Video ID: 	XPEh8EeNv4U
H: 	1080
W: 	1920
FPS: 	25.0

FRAME INDEX X0 Y0 W H [Landmarks (5 Points)]

00017223 00000000 778.77 190.99 447.75 664.91 890.16 442.83 1082.86 467.10 961.06 561.21 879.94 672.59 1049.84 690.28
00017224 DELETE   785.29 194.83 449.34 670.04 903.69 438.00 1100.51 459.46 982.51 561.54 891.65 671.88 1062.30 690.25
00017225 DELETE   803.99 195.14 448.59 651.45 937.80 435.78 1135.33 457.19 1034.30 551.75 925.27 660.29 1099.84 677.27
00017226 DELETE   820.86 185.28 446.05 656.44 962.70 431.71 1160.90 449.06 1074.30 539.25 961.33 658.61 1136.28 671.48
00017227 00000004 825.96 178.57 446.77 657.56 967.25 425.95 1166.42 442.46 1078.82 537.57 974.07 657.50 1139.19 669.42
00017228 DELETE   820.66 188.00 445.07 644.87 951.41 429.64 1151.68 448.99 1055.53 539.77 952.16 652.49 1123.30 666.82
00017229 DELETE   811.88 196.42 444.90 637.05 932.85 430.78 1129.46 455.83 1021.40 548.97 923.00 651.21 1089.10 671.75
00017230 00000007 798.84 190.39 454.25 647.81 918.51 430.26 1111.78 456.98 990.93 555.11 910.12 656.60 1062.66 680.22
00017231 00000008 801.89 194.18 452.34 647.20 922.15 434.37 1114.65 460.62 995.76 561.46 914.79 660.31 1067.16 683.55
00017232 00000009 810.35 200.19 445.70 641.38 933.48 442.81 1129.21 467.44 1020.71 562.95 926.64 664.08 1087.51 684.24
00017233 00000010 817.18 200.07 444.82 642.99 938.61 444.75 1138.03 467.92 1030.94 567.04 937.09 669.06 1101.00 687.66
00017234 00000011 818.30 198.74 444.01 643.71 937.72 444.44 1136.74 467.59 1028.97 566.95 936.20 669.92 1098.22 688.73
00017235 00000012 814.62 200.11 445.81 642.30 934.31 441.31 1127.99 466.21 1018.67 563.14 927.82 664.50 1084.14 685.06
00017236 00000013 813.93 195.59 444.58 647.21 931.39 439.00 1122.05 463.77 1011.94 561.58 923.99 664.18 1073.62 685.36
00017237 00000014 816.50 199.38 443.11 641.43 935.18 437.68 1125.69 463.32 1017.00 556.97 925.50 661.67 1077.18 683.29
00017238 00000015 821.60 197.15 442.51 641.55 939.46 439.48 1135.56 463.04 1028.05 558.36 933.90 663.45 1094.24 682.86
00017239 00000016 824.32 198.25 444.77 642.99 946.46 438.45 1143.37 461.57 1039.46 557.76 941.32 662.85 1106.62 681.22
00017240 00000017 826.12 197.25 444.58 641.27 946.75 437.51 1144.60 460.04 1040.05 555.75 941.61 661.84 1106.95 679.73
00017241 00000018 824.68 196.99 443.50 638.78 943.21 436.94 1136.71 461.14 1030.40 555.00 935.42 657.21 1094.67 676.88
00017242 00000019 822.65 199.36 439.92 633.88 940.11 433.42 1130.35 461.97 1020.19 550.27 927.93 653.72 1080.36 677.74
00017243 00000020 823.34 198.87 440.62 632.74 941.50 432.46 1130.87 462.30 1020.29 550.15 928.62 652.89 1079.00 678.07
00017244 00000021 828.38 198.81 439.80 633.26 943.62 434.95 1135.90 461.06 1027.00 552.31 934.08 656.05 1090.87 677.64
00017245 00000022 831.46 198.06 439.42 628.71 945.37 434.12 1142.00 458.66 1032.03 549.70 939.97 655.58 1101.08 675.13
00017246 00000023 832.35 200.03 437.06 621.88 947.36 442.72 1142.47 465.64 1033.07 545.89 943.59 654.06 1106.10 671.71
00017247 00000024 827.62 196.91 441.17 625.51 945.05 447.92 1137.76 472.22 1024.22 559.31 938.47 657.15 1099.14 677.27
00017248 00000025 828.07 207.83 441.36 626.18 942.19 449.92 1132.35 475.03 1015.29 574.62 937.66 663.65 1091.43 685.46
00017249 00000026 826.79 208.42 440.46 624.76 936.60 443.69 1127.95 468.21 1009.39 573.07 933.56 665.58 1083.71 687.21
00017250 00000027 825.87 205.94 430.97 628.76 939.58 438.76 1129.24 464.51 1020.71 557.08 934.07 666.02 1077.65 688.06
00017251 00000028 825.53 198.45 431.56 637.23 939.68 428.79 1127.92 452.72 1021.50 544.08 932.70 657.41 1076.15 678.03
00017252 00000029 825.53 197.46 433.23 630.02 940.33 424.38 1128.45 448.28 1023.71 537.58 936.15 649.96 1079.79 670.21
00017253 00000030 827.45 199.33 430.03 623.94 941.17 425.44 1129.64 450.55 1023.98 539.67 935.80 648.18 1082.49 669.54
00017254 00000031 827.85 201.91 430.23 621.71 941.43 428.69 1130.11 453.66 1023.93 544.07 936.18 650.95 1083.66 672.08
00017255 00000032 827.84 203.54 429.58 616.63 941.61 430.18 1130.42 455.57 1024.31 544.40 935.35 649.57 1083.91 671.00
00017256 00000033 828.32 201.23 427.98 610.09 942.43 427.93 1131.25 455.28 1024.91 541.22 934.36 643.19 1086.09 665.98
00017257 00000034 825.53 186.64 432.12 609.02 942.62 420.17 1129.33 449.72 1017.81 535.40 931.64 633.43 1083.67 659.00
00017258 00000035 826.23 182.30 430.38 609.83 942.50 416.35 1129.26 445.66 1016.75 530.21 930.23 627.93 1085.14 652.97
00017259 00000036 826.28 182.90 429.82 608.12 942.82 416.47 1128.16 445.81 1016.89 529.93 930.12 626.89 1083.59 652.01
00017260 00000037 824.90 188.09 430.07 604.62 942.86 420.97 1127.70 450.29 1018.20 535.86 932.01 630.79 1083.58 656.18
00017261 00000038 824.03 190.35 428.37 603.21 941.49 424.22 1124.24 453.02 1015.83 538.87 931.16 633.11 1080.12 658.31
00017262 00000039 823.83 189.89 427.39 601.11 940.22 423.28 1122.36 452.23 1013.95 536.20 929.55 631.53 1078.00 656.80
00017263 00000040 823.92 189.53 425.80 597.80 940.26 419.72 1122.00 449.03 1013.99 532.95 929.46 627.40 1078.55 652.75
00017264 00000041 824.19 186.62 426.02 602.21 940.73 418.27 1120.87 447.65 1013.43 530.78 929.51 625.81 1077.68 651.14
00017265 00000042 826.13 185.57 424.03 602.13 941.25 418.02 1121.13 447.35 1012.90 530.33 929.55 624.93 1078.51 650.09
00017266 00000043 826.13 187.83 423.02 600.12 941.59 418.56 1121.17 448.55 1012.91 530.57 929.06 624.95 1077.81 650.66
00017267 00000044 826.47 188.29 422.23 597.52 941.58 418.58 1120.63 449.64 1012.17 530.93 928.61 623.69 1076.68 650.25
00017268 00000045 826.74 187.41 420.32 595.19 940.42 416.93 1120.59 447.15 1011.95 529.71 928.28 622.84 1077.20 648.68
00017269 00000046 826.92 184.58 418.99 595.64 940.06 415.98 1120.30 446.23 1012.02 528.39 928.18 620.85 1077.83 646.55
00017270 00000047 827.82 185.02 418.06 592.75 940.48 415.54 1119.94 445.84 1011.76 527.95 928.62 619.70 1077.36 645.51
00017271 00000048 828.18 187.10 417.00 589.83 940.78 416.18 1119.88 447.06 1011.89 528.97 928.74 619.68 1076.54 646.04
00017272 00000049 828.54 185.75 417.03 590.59 941.53 416.03 1119.92 447.44 1012.34 528.53 929.30 618.73 1076.63 645.42
00017273 00000050 829.94 185.79 415.99 589.06 942.05 414.01 1120.80 445.07 1012.83 525.86 930.44 616.47 1078.93 642.74
00017274 00000051 831.46 182.16 414.16 588.38 942.00 410.79 1121.56 441.50 1012.79 522.92 930.32 611.97 1081.85 637.70
00017275 00000052 833.09 179.17 411.69 587.82 943.22 408.37 1122.24 438.68 1014.49 520.62 932.27 608.81 1084.16 634.10
00017276 00000053 834.04 178.67 411.04 587.48 944.05 408.50 1122.38 438.56 1015.60 521.41 933.79 608.63 1085.24 633.69
00017277 00000054 834.30 179.80 410.33 585.28 944.56 407.86 1122.73 438.07 1016.24 520.46 934.49 608.00 1085.42 633.19
00017278 00000055 834.34 178.91 408.94 584.43 944.78 405.82 1123.43 435.56 1017.36 517.56 935.52 606.24 1087.18 631.03
00017279 00000056 835.09 177.91 407.28 583.20 945.46 404.65 1123.18 434.65 1017.87 514.94 936.04 604.20 1087.37 629.20
00017280 00000057 836.18 178.77 405.98 581.97 945.31 404.49 1124.04 433.76 1017.93 513.84 936.28 603.39 1089.05 627.74
00017281 00000058 835.35 178.56 405.41 581.38 945.73 403.47 1123.78 432.94 1018.79 512.48 937.15 601.53 1090.08 626.04
00017282 00000059 835.38 176.60 403.81 581.51 946.16 402.36 1125.41 432.71 1019.81 509.68 937.38 597.90 1093.91 622.66
00017283 00000060 834.51 177.74 403.85 579.58 946.83 401.10 1124.56 432.88 1020.97 508.42 935.92 594.12 1094.13 619.94
00017284 00000061 834.77 177.55 403.11 579.21 945.94 400.45 1124.31 431.72 1020.67 508.12 933.92 591.21 1097.23 616.40
00017285 00000062 832.55 177.84 404.78 576.95 946.38 398.61 1123.87 430.54 1021.69 506.75 932.15 586.85 1097.43 612.57
00017286 00000063 832.22 178.86 404.78 574.85 947.71 394.78 1123.41 428.12 1021.68 504.30 931.37 582.41 1097.69 609.24
00017287 00000064 831.75 180.75 405.61 576.76 949.61 392.96 1120.34 427.23 1019.61 503.40 930.20 579.41 1094.26 607.09
00017288 00000065 835.54 189.82 407.94 575.76 947.42 394.57 1118.53 424.41 1017.31 509.69 929.75 579.57 1090.90 605.13
00017289 00000066 835.15 188.76 408.40 577.03 946.80 391.80 1117.67 421.43 1016.77 507.41 931.32 577.49 1091.02 602.63
00017290 00000067 834.63 185.33 409.11 577.97 945.84 389.57 1117.45 419.71 1015.51 506.42 929.97 575.46 1091.02 601.09
00017291 00000068 834.62 181.96 407.96 579.79 944.27 387.81 1116.25 417.00 1014.23 504.74 929.39 574.10 1091.70 598.93
00017292 00000069 833.90 181.59 408.18 579.82 943.15 387.66 1115.13 416.81 1013.20 504.06 928.93 572.65 1092.66 597.32
00017293 00000070 831.32 173.53 405.52 580.26 947.04 383.25 1117.36 417.28 1014.70 494.88 927.43 570.34 1094.71 597.65
00017294 00000071 830.54 173.30 404.89 579.59 945.43 382.64 1115.98 417.12 1012.76 494.12 925.11 568.82 1094.11 596.49
00017295 00000072 829.68 174.14 404.35 578.53 942.58 382.74 1114.12 416.58 1010.23 493.08 923.39 568.09 1094.06 595.24
00017296 00000073 828.82 174.41 403.68 578.05 940.86 382.97 1111.77 416.43 1007.80 493.20 922.11 567.49 1092.78 594.37
00017297 00000074 826.68 174.13 404.67 578.13 939.04 383.66 1110.10 417.00 1006.79 492.43 921.37 567.61 1091.29 594.42
00017298 00000075 825.64 174.43 403.93 576.36 937.05 383.82 1107.63 416.61 1004.70 492.19 920.16 566.74 1090.16 593.12
00017299 00000076 824.85 174.85 403.69 575.11 935.99 383.59 1107.25 416.57 1004.34 491.53 919.01 565.87 1089.80 592.56
00017300 00000077 824.01 174.58 403.73 573.69 935.14 383.25 1105.90 415.85 1003.44 490.17 918.62 564.93 1088.48 591.36
00017301 00000078 823.61 175.51 402.27 571.84 934.30 382.81 1105.51 414.80 1003.67 489.80 918.01 563.87 1089.94 589.77
00017302 00000079 823.70 174.67 402.66 572.48 934.85 382.67 1105.32 414.53 1004.13 489.48 918.33 563.97 1089.05 589.82
00017303 00000080 823.75 175.28 402.46 571.07 935.04 382.38 1105.55 414.00 1004.83 488.59 918.59 563.57 1089.26 589.32
00017304 00000081 824.22 174.13 401.83 572.10 935.25 382.19 1105.68 413.41 1005.77 488.67 919.05 563.15 1090.33 588.54
00017305 00000082 824.18 172.98 402.11 572.32 936.33 381.54 1106.08 412.99 1007.68 487.92 920.13 562.73 1090.52 588.35
00017306 00000083 825.62 173.48 400.22 570.88 936.74 380.97 1105.41 411.92 1007.68 487.36 921.25 562.03 1090.64 587.20
00017307 00000084 827.06 173.38 399.06 571.38 937.31 381.52 1106.25 411.99 1008.30 487.75 921.98 562.41 1091.78 587.13
00017308 00000085 827.84 172.79 398.44 570.86 938.53 381.73 1107.21 412.65 1010.13 488.20 922.82 562.27 1092.00 587.49
00017309 00000086 827.80 174.61 398.87 568.30 938.97 381.86 1107.28 412.97 1010.43 487.77 923.12 561.68 1091.56 587.12
00017310 00000087 829.26 173.69 398.22 569.21 940.12 382.19 1108.76 413.10 1011.38 487.59 924.61 562.16 1092.62 587.47
00017311 00000088 829.83 174.44 398.13 567.84 941.02 381.75 1109.62 413.27 1011.78 487.09 924.94 561.56 1092.90 587.45
00017312 00000089 829.65 173.87 397.97 566.14 941.71 381.62 1109.95 413.60 1013.02 486.31 926.08 561.13 1092.32 587.44
00017313 00000090 830.08 173.07 397.49 565.92 941.85 380.89 1110.29 412.81 1013.43 485.20 927.00 560.96 1092.11 587.29
00017314 00000091 830.34 173.82 397.10 564.59 942.21 380.94 1110.54 413.03 1013.69 485.03 926.70 560.59 1091.57 587.14
00017315 00000092 830.69 174.68 396.88 563.12 942.58 380.87 1110.76 412.99 1014.08 485.07 926.91 560.21 1091.54 586.84
00017316 00000093 830.06 175.06 396.50 561.33 942.05 381.15 1110.31 413.29 1013.72 484.45 926.66 559.79 1090.68 586.45
00017317 00000094 829.90 175.64 395.24 559.80 941.80 381.44 1109.63 413.60 1013.66 484.36 926.70 559.55 1089.97 586.23
00017318 00000095 828.85 175.19 395.59 560.00 941.85 381.50 1107.83 413.18 1013.63 484.28 926.68 560.59 1086.65 587.09
00017319 00000096 828.69 175.69 394.96 559.87 941.80 382.16 1107.25 414.29 1013.39 485.03 927.01 562.05 1084.99 588.98
00017320 00000097 830.27 175.54 392.56 559.72 941.91 383.34 1106.43 415.07 1012.77 485.82 928.24 563.44 1083.08 590.10
00017321 00000098 830.64 175.92 391.68 558.77 941.04 383.44 1104.39 414.07 1011.70 485.32 929.78 565.54 1080.33 591.40
00017322 00000099 831.31 176.05 390.01 554.20 940.38 383.79 1104.05 413.29 1012.15 485.03 930.86 565.94 1078.90 590.90
00017323 00000100 833.56 178.50 387.64 548.94 941.07 390.27 1105.95 419.95 1011.21 486.36 933.40 568.14 1077.89 592.92
00017324 00000101 834.12 178.15 387.85 550.15 941.93 392.90 1106.76 421.42 1012.30 486.82 934.73 570.50 1076.53 594.43
00017325 00000102 834.68 176.00 386.13 551.81 941.33 390.94 1104.21 418.31 1012.66 488.62 934.43 572.86 1075.43 596.04
00017326 00000103 834.15 174.73 385.95 550.83 940.30 388.80 1104.45 414.88 1013.59 488.07 934.11 573.63 1075.47 595.78
00017327 00000104 834.59 174.12 385.78 551.60 940.27 387.58 1104.90 413.28 1014.29 488.58 933.83 574.42 1075.01 596.38
00017328 00000105 835.12 174.69 385.02 548.77 940.52 387.52 1104.99 412.80 1014.45 489.17 933.78 574.36 1075.69 595.95
00017329 00000106 835.42 174.57 383.70 544.14 940.52 387.24 1103.57 412.19 1014.01 488.12 932.73 572.94 1074.83 594.16
00017330 00000107 835.68 174.91 383.37 542.47 940.85 386.98 1103.88 411.60 1014.58 487.17 934.10 571.85 1075.57 592.79
00017331 00000108 836.04 175.25 383.47 541.29 940.78 386.59 1103.86 411.69 1013.90 485.30 934.14 569.67 1076.12 590.90
00017332 00000109 836.66 174.65 383.45 541.90 941.20 385.50 1104.23 411.06 1013.90 484.06 934.43 568.04 1076.47 589.68
00017333 00000110 837.22 174.64 381.88 537.98 941.42 385.02 1103.50 409.93 1013.65 483.45 934.74 566.10 1076.28 587.17
00017334 00000111 837.44 174.76 381.81 536.78 941.94 384.27 1103.75 409.71 1013.44 482.42 934.79 564.62 1075.70 586.04
00017335 00000112 838.12 175.70 380.22 534.78 942.41 384.89 1104.10 410.57 1013.49 483.15 934.57 565.27 1075.75 586.90
00017336 00000113 836.78 175.63 381.21 534.92 942.27 385.93 1103.69 411.54 1013.56 483.58 934.33 565.45 1075.81 586.99
00017337 00000114 836.32 177.24 381.66 533.96 942.00 386.94 1103.70 412.77 1012.71 484.34 933.30 565.99 1075.49 587.66
00017338 00000115 835.67 179.09 382.99 534.93 942.06 388.01 1103.44 414.22 1012.30 485.29 933.23 566.28 1076.36 588.29
00017339 00000116 835.85 181.45 382.95 532.60 941.84 388.55 1103.78 414.88 1011.87 486.54 932.39 566.91 1076.40 588.95
CROP_BBOX: 551 0 1575 1050
