Video ID: 	J4JhwwMBh8M
H: 	1080
W: 	1920
FPS: 	25.0

FRAME INDEX X0 Y0 W H [Landmarks (5 Points)]

00000664 00000000 629.14 179.14 421.30 610.27 710.68 420.00 879.69 431.10 766.35 537.95 717.54 627.41 864.45 635.82
00000665 DELETE   632.83 172.74 423.06 608.42 714.39 408.81 892.62 419.16 775.28 530.13 721.87 624.36 874.42 632.07
00000666 DELETE   634.66 161.80 430.09 609.47 726.98 396.07 911.30 397.83 802.12 518.69 744.99 618.51 898.31 618.92
00000667 DELETE   635.67 149.87 433.91 609.07 743.20 389.98 929.86 386.85 833.18 509.20 772.04 615.10 917.28 610.73
00000668 00000004 638.08 147.97 437.16 612.62 762.62 389.35 944.99 382.29 862.84 502.84 793.23 611.04 939.33 602.64
00000669 00000005 641.75 145.05 432.91 625.06 771.87 386.39 952.00 379.69 875.23 499.77 800.14 609.31 950.56 600.69
00000670 00000006 636.61 143.60 435.34 628.18 766.58 388.41 947.68 379.95 870.88 502.69 795.49 610.26 948.97 600.37
00000671 00000007 630.30 145.88 439.51 620.56 755.39 391.02 937.92 381.59 857.11 507.49 785.26 610.23 939.58 599.85
00000672 00000008 627.91 148.42 439.03 616.46 742.73 391.71 928.15 381.91 841.43 508.71 774.00 609.78 931.23 599.50
00000673 00000009 624.57 151.13 440.37 613.73 734.54 393.91 920.38 383.26 831.27 512.75 768.62 612.19 925.11 601.51
00000674 00000010 625.76 151.65 440.11 614.65 740.45 398.12 924.32 386.28 838.32 514.43 774.19 614.09 930.50 602.29
00000675 00000011 634.23 153.21 440.46 613.45 756.21 405.83 942.21 386.71 864.53 518.36 793.86 616.40 953.16 598.67
00000676 00000012 652.51 142.78 431.84 624.16 774.14 404.34 957.75 386.01 887.42 522.23 815.57 619.03 973.47 603.28
00000677 00000013 656.43 143.86 429.79 617.04 779.66 404.41 966.59 386.07 896.61 522.11 823.52 622.10 980.38 606.58
00000678 00000014 648.60 149.65 430.81 614.88 771.52 406.44 960.96 386.73 887.18 522.90 815.34 626.26 969.33 608.41
00000679 00000015 645.21 150.65 434.99 624.36 763.51 405.68 951.07 387.50 870.80 520.51 808.12 633.00 955.17 615.42
00000680 00000016 642.12 153.21 435.15 630.74 758.36 402.82 944.34 388.34 858.52 520.03 795.89 632.58 945.58 617.85
00000681 00000017 642.37 152.98 435.40 625.29 758.52 403.44 945.06 390.92 857.85 520.42 792.07 626.60 945.48 613.64
00000682 00000018 644.16 152.67 436.10 620.53 761.62 406.58 947.42 392.12 863.57 522.51 794.30 622.11 950.42 607.89
00000683 00000019 644.00 154.32 437.28 617.57 765.02 409.62 953.15 392.67 872.78 524.01 799.52 622.07 959.04 606.09
00000684 00000020 645.21 154.08 436.05 617.83 767.05 410.01 954.51 392.18 876.17 525.77 801.48 622.39 961.60 605.70
00000685 00000021 642.79 154.78 437.48 621.56 764.70 408.63 950.70 391.74 871.19 524.04 797.39 622.38 957.02 606.32
00000686 00000022 641.35 155.47 437.83 620.89 760.91 407.66 945.79 393.87 862.91 525.14 791.84 623.45 947.98 610.03
00000687 00000023 641.52 153.94 437.29 613.07 755.40 405.08 944.21 395.10 854.92 523.93 784.60 619.40 943.51 609.46
00000688 00000024 642.25 153.43 436.01 606.93 753.67 405.87 945.17 394.30 855.10 524.25 783.40 616.74 946.75 605.85
00000689 00000025 642.52 153.80 436.28 604.41 755.81 407.08 946.50 395.40 858.14 524.26 783.62 613.72 948.64 602.92
00000690 00000026 641.20 155.41 439.01 604.16 756.06 409.03 946.93 395.47 859.91 524.12 783.13 611.99 951.36 599.59
00000691 00000027 641.16 156.39 440.25 602.78 755.67 411.90 946.94 396.54 860.58 526.71 781.56 610.20 955.08 596.46
00000692 00000028 641.16 157.57 440.09 600.36 755.95 414.06 946.03 398.28 860.16 529.92 779.86 608.09 955.79 594.07
00000693 00000029 641.53 158.92 439.95 599.23 756.31 416.26 946.36 400.16 860.37 533.64 778.47 606.60 957.99 592.50
00000694 00000030 642.14 160.26 440.07 595.56 756.20 415.79 946.89 400.24 860.20 533.27 776.18 602.93 959.83 589.44
00000695 00000031 641.71 160.76 439.63 594.40 757.42 416.02 948.40 400.10 863.05 534.65 775.83 600.78 963.29 587.10
00000696 00000032 640.81 160.61 439.98 594.07 757.70 416.36 948.04 400.33 863.62 535.18 774.89 598.39 963.89 584.75
00000697 00000033 639.24 160.74 440.53 595.62 756.13 416.11 946.76 399.61 861.99 537.35 772.50 597.94 963.39 583.91
00000698 00000034 638.62 162.26 441.84 595.86 754.45 417.14 945.91 400.30 859.60 539.94 770.89 599.95 961.26 585.74
00000699 00000035 637.93 165.17 442.42 594.14 754.13 417.92 945.76 401.29 858.84 541.61 769.94 600.40 960.66 586.52
00000700 00000036 649.78 163.18 435.84 596.17 761.75 415.65 955.19 403.81 862.99 544.77 776.56 599.96 968.43 589.91
00000701 00000037 651.50 163.24 436.82 595.65 765.44 415.76 958.04 404.63 866.33 545.95 779.39 599.25 970.67 589.94
00000702 00000038 653.34 163.63 436.92 594.24 765.92 415.98 958.94 404.71 866.57 545.65 780.10 599.52 970.97 590.03
00000703 00000039 654.29 164.55 436.99 595.25 765.81 415.41 958.21 405.64 864.78 545.81 778.39 598.00 969.68 589.75
00000704 00000040 655.47 165.03 436.11 595.03 765.68 415.09 957.70 406.09 863.72 546.25 777.61 596.71 969.35 589.12
00000705 00000041 655.79 164.56 436.06 596.40 766.35 415.51 957.60 406.50 863.98 546.09 777.81 596.74 969.02 589.16
00000706 00000042 656.04 165.61 436.60 596.10 767.32 415.23 958.62 406.10 865.09 546.72 778.91 597.22 969.73 589.68
00000707 00000043 657.36 166.86 436.76 595.53 769.08 415.66 959.64 406.84 866.11 546.49 780.49 597.81 970.06 590.51
00000708 00000044 657.93 167.62 437.27 596.19 770.31 416.58 961.00 408.06 867.18 547.23 781.36 598.42 971.09 591.44
00000709 00000045 658.56 169.45 437.95 594.64 770.87 417.57 962.62 409.21 868.41 547.85 782.60 600.59 972.24 593.86
00000710 00000046 658.82 169.30 437.47 597.05 771.42 418.02 962.61 410.03 868.58 548.31 783.19 601.44 972.03 595.03
00000711 00000047 659.63 169.94 437.46 596.99 772.48 418.48 964.12 411.62 869.43 549.53 783.88 602.18 972.53 596.74
00000712 00000048 660.49 169.93 437.07 596.77 772.84 419.12 965.18 412.84 869.98 550.62 783.68 602.06 973.57 597.13
00000713 00000049 661.76 170.64 435.39 596.99 775.06 421.01 966.37 414.19 873.37 551.02 786.09 602.28 976.33 596.83
00000714 00000050 664.21 170.92 434.38 596.92 777.98 422.28 969.42 413.97 878.10 550.74 789.20 602.78 980.19 596.35
00000715 00000051 666.26 171.04 432.81 596.91 780.77 425.30 971.96 413.37 884.16 552.07 794.92 605.72 985.56 596.50
00000716 00000052 666.94 172.62 432.74 596.38 782.70 426.45 973.39 413.89 886.66 551.82 796.65 605.67 987.70 595.97
00000717 00000053 666.74 173.46 432.55 596.73 782.23 426.39 972.84 415.17 885.03 551.92 795.18 605.81 985.94 597.22
00000718 00000054 666.11 173.53 432.72 596.93 780.70 425.58 971.37 415.82 882.16 552.70 792.83 605.28 983.55 597.86
00000719 00000055 665.76 173.74 432.89 596.01 779.43 424.53 970.62 415.46 880.30 551.47 790.84 604.36 982.30 597.47
00000720 00000056 665.12 173.08 433.00 596.49 778.73 424.56 969.72 415.99 878.85 550.72 789.54 604.17 980.57 597.60
00000721 00000057 665.20 173.02 432.83 596.89 778.96 424.55 969.32 415.92 879.06 551.33 790.16 604.40 980.84 597.80
00000722 00000058 664.81 174.86 431.89 595.59 780.33 426.42 970.29 416.24 881.66 553.57 791.82 605.84 982.27 598.27
00000723 00000059 665.85 177.18 431.81 594.79 781.18 429.68 973.47 418.48 884.32 555.38 793.29 608.13 986.53 599.79
00000724 00000060 668.13 179.58 430.11 595.30 784.23 431.39 976.04 419.72 888.69 556.87 795.43 609.51 989.59 600.98
00000725 00000061 669.43 180.32 429.97 596.38 787.19 431.68 976.76 420.72 891.09 556.81 797.50 609.44 990.48 601.53
00000726 00000062 670.35 181.33 431.19 596.59 788.05 431.38 977.31 420.84 891.37 556.85 798.41 609.47 991.25 601.97
00000727 00000063 670.17 178.86 431.10 600.19 787.85 430.24 977.18 420.20 891.59 555.10 800.53 611.71 990.70 604.40
00000728 00000064 668.30 174.85 431.64 603.70 785.59 430.40 975.38 419.95 889.92 553.83 800.87 614.57 987.80 606.80
00000729 00000065 667.42 173.49 430.20 602.91 783.76 431.83 974.37 421.17 887.99 551.84 799.74 617.13 983.26 609.05
00000730 00000066 663.51 169.88 431.47 604.64 779.44 430.77 970.55 419.90 883.11 551.12 796.69 618.28 978.16 609.95
00000731 00000067 660.70 167.67 434.06 606.38 775.25 427.21 967.36 416.73 877.51 547.55 794.51 619.64 973.50 611.39
00000732 00000068 659.22 165.60 434.88 608.74 773.01 423.58 965.57 413.13 875.49 544.76 793.41 620.21 970.73 611.92
00000733 00000069 659.12 163.86 434.51 610.18 773.80 422.55 965.50 412.64 876.23 543.62 794.63 619.77 969.82 611.94
00000734 00000070 660.98 163.97 433.19 606.78 776.23 425.75 967.34 415.02 878.51 543.65 797.48 619.85 972.21 611.27
00000735 00000071 661.01 164.99 433.35 605.44 776.80 426.41 967.65 415.37 879.54 543.41 798.29 619.98 972.46 611.19
00000736 00000072 660.87 164.21 433.66 606.53 776.78 422.83 968.05 412.14 880.21 542.47 798.91 619.33 972.86 610.78
00000737 00000073 661.03 164.23 434.73 605.05 777.31 421.05 968.85 409.83 881.87 542.88 801.66 620.08 973.52 611.21
00000738 00000074 662.90 163.19 433.47 605.47 778.08 420.37 969.31 408.18 883.35 543.33 803.93 620.25 974.70 610.59
00000739 00000075 664.61 162.16 432.99 606.95 780.49 420.36 970.78 408.74 886.15 543.88 805.69 619.97 976.52 610.85
00000740 00000076 665.59 163.05 432.43 606.84 781.84 421.23 971.17 409.49 887.51 544.24 807.15 620.13 978.03 610.93
00000741 00000077 665.69 163.64 432.62 607.27 783.05 422.25 971.50 410.15 888.73 544.91 808.82 620.53 979.38 611.07
00000742 00000078 666.76 163.73 431.88 607.78 784.31 422.71 972.56 410.20 890.09 545.83 810.03 620.39 980.69 610.69
00000743 00000079 667.29 164.15 432.32 608.44 785.12 423.01 972.77 410.33 890.60 545.94 811.33 620.43 981.95 610.59
00000744 00000080 667.95 164.34 433.17 608.44 785.39 423.34 973.09 410.46 890.62 546.27 811.43 620.29 982.63 610.28
00000745 00000081 669.09 165.85 432.97 606.31 786.38 424.00 974.00 410.76 891.83 547.05 812.13 620.14 983.58 609.86
00000746 00000082 669.08 167.48 434.10 606.12 786.86 424.93 974.42 411.60 891.97 548.35 812.40 620.20 985.10 609.92
00000747 00000083 669.76 168.39 433.52 604.92 787.73 425.31 975.28 412.55 892.90 549.69 813.78 620.41 986.63 610.56
00000748 00000084 670.04 168.47 433.60 605.34 788.04 426.20 975.79 413.06 893.58 550.07 813.86 620.74 987.43 610.60
00000749 00000085 669.89 168.35 434.13 605.02 787.77 425.90 975.88 412.83 893.21 549.72 814.05 620.72 987.42 610.64
00000750 00000086 669.28 168.77 433.58 604.15 786.96 426.09 974.95 413.06 892.31 549.81 812.64 620.66 985.90 610.58
00000751 00000087 668.49 167.88 433.74 604.63 784.89 426.17 974.31 412.97 890.25 548.53 810.52 621.04 984.31 610.74
00000752 00000088 666.41 167.70 434.27 603.39 783.70 426.17 973.78 413.61 888.94 548.73 809.12 621.28 982.24 611.52
00000753 00000089 664.94 167.18 434.12 603.81 782.03 425.76 972.94 413.41 887.48 548.66 806.66 621.08 980.92 611.55
00000754 00000090 664.57 167.02 434.11 603.56 781.10 425.68 972.14 413.07 886.69 548.65 805.76 620.86 980.54 611.06
00000755 00000091 664.50 167.22 434.12 603.34 781.22 425.62 972.08 412.82 886.94 548.47 805.92 620.71 980.77 610.78
00000756 00000092 665.74 167.13 433.18 603.75 782.55 426.05 972.68 413.26 888.18 548.71 807.30 620.65 981.65 610.72
00000757 00000093 666.20 168.08 434.05 603.85 783.74 426.49 973.29 413.74 889.00 549.01 808.72 621.05 982.45 611.09
00000758 00000094 667.64 170.82 433.01 603.06 784.54 427.99 974.22 415.46 889.87 550.67 808.38 621.43 984.12 611.74
00000759 00000095 668.51 172.58 432.47 602.78 785.51 428.81 974.86 416.83 890.83 551.26 808.81 621.49 985.18 612.26
00000760 00000096 669.73 173.79 431.61 602.31 786.44 429.94 975.53 418.65 891.39 553.16 808.89 621.67 985.38 613.18
00000761 00000097 669.89 176.50 431.98 599.70 787.15 431.72 975.95 420.62 891.78 556.04 809.44 622.67 985.09 614.59
00000762 00000098 670.63 178.64 431.12 600.26 787.25 433.86 976.05 421.68 892.42 557.37 810.47 625.15 986.18 616.24
00000763 00000099 670.90 179.65 430.78 599.67 787.78 435.41 976.47 422.49 893.34 557.57 811.33 625.96 986.86 616.49
00000764 00000100 670.74 179.45 431.16 600.01 787.68 434.75 976.29 421.81 893.31 557.78 810.77 625.30 987.31 615.79
00000765 00000101 669.97 176.71 431.87 599.34 787.67 433.00 976.75 420.32 893.57 555.73 809.93 622.33 987.66 612.88
00000766 00000102 670.18 170.50 431.86 601.40 787.19 429.26 975.96 415.84 892.83 550.82 810.83 619.64 987.60 609.16
00000767 00000103 669.92 165.95 433.76 602.05 786.28 424.21 974.76 411.02 891.45 545.21 811.26 616.26 986.25 605.75
00000768 00000104 670.43 165.57 432.67 604.56 786.26 426.11 975.86 412.47 892.55 549.69 810.63 617.99 987.90 607.13
00000769 00000105 671.39 172.72 430.35 603.74 787.43 433.28 978.70 419.47 895.05 556.33 810.66 623.86 991.12 613.19
00000770 00000106 672.51 178.94 429.54 600.70 788.42 435.38 980.35 421.46 896.98 557.33 810.97 624.71 993.38 614.08
00000771 00000107 671.16 179.89 431.54 598.13 787.81 434.43 980.83 421.43 895.42 556.98 809.19 623.45 991.97 613.64
00000772 00000108 669.84 176.41 432.16 598.91 785.74 432.21 979.40 419.32 893.13 555.42 806.23 620.23 991.19 610.28
00000773 00000109 667.88 172.72 433.13 601.37 783.81 429.84 976.72 416.89 890.40 552.75 805.20 618.89 989.29 608.61
00000774 00000110 665.75 169.82 434.63 602.61 781.74 428.91 974.95 416.65 887.57 551.52 802.49 617.72 986.65 607.88
00000775 00000111 664.83 170.76 434.49 601.86 780.61 428.09 973.45 416.28 885.36 551.54 800.37 616.79 984.57 607.37
00000776 00000112 664.02 173.48 434.46 601.34 780.30 429.03 973.49 418.12 884.73 552.65 799.47 617.46 984.41 608.81
00000777 00000113 664.75 176.36 434.15 601.15 780.12 430.89 974.52 420.12 884.55 554.43 798.08 618.45 985.39 609.98
00000778 00000114 665.69 177.82 433.63 600.11 781.03 431.38 976.04 420.64 885.74 555.42 798.58 618.45 987.08 610.10
00000779 00000115 666.06 177.77 433.72 598.49 781.51 431.01 976.45 419.63 886.40 554.65 799.72 617.93 987.69 609.00
00000780 00000116 665.21 175.45 435.08 597.88 781.26 429.80 976.21 417.83 886.65 553.02 800.40 616.97 987.30 607.51
00000781 00000117 664.45 171.99 434.28 599.59 779.32 427.36 972.43 415.38 883.56 550.79 799.64 616.53 983.51 606.96
00000782 00000118 663.53 171.56 434.48 599.28 776.99 426.36 970.08 414.15 880.58 549.51 798.31 616.36 981.52 606.41
00000783 00000119 661.54 171.18 436.52 601.52 774.41 424.74 969.34 413.47 877.11 549.78 795.17 616.87 979.54 607.53
00000784 00000120 660.71 172.13 436.59 601.60 773.34 424.70 968.32 413.09 875.95 551.43 794.57 617.25 979.23 607.62
00000785 00000121 660.52 171.94 436.46 600.91 773.00 424.51 967.66 412.91 875.28 551.91 794.50 617.08 978.30 607.50
00000786 00000122 659.39 171.59 437.43 599.52 771.39 422.60 968.02 412.08 872.76 551.14 791.42 615.42 976.76 606.64
00000787 00000123 659.02 170.87 437.11 599.60 770.42 421.68 966.88 411.64 871.17 549.49 790.10 614.94 974.73 606.48
00000788 00000124 658.54 170.66 437.21 599.96 769.04 420.78 965.71 411.43 869.00 549.03 788.36 614.75 972.13 606.82
00000789 00000125 656.68 170.13 437.22 602.54 767.86 420.24 963.91 411.06 867.52 548.36 786.78 615.65 969.40 607.82
00000790 00000126 655.49 171.43 437.53 602.64 765.82 419.35 961.63 411.03 864.21 548.34 784.33 615.12 967.18 607.96
00000791 00000127 654.65 172.33 435.81 603.54 763.99 420.00 958.95 411.14 862.06 549.18 782.54 615.37 965.14 607.93
00000792 00000128 653.43 171.93 436.16 604.53 761.18 420.16 956.62 410.58 859.56 549.57 780.96 616.59 963.18 608.64
00000793 00000129 652.30 171.68 436.52 606.04 760.04 420.45 955.00 410.89 858.30 550.19 780.15 617.36 962.12 609.44
00000794 00000130 652.24 172.25 435.22 608.03 759.59 420.62 953.85 411.87 857.92 551.02 779.56 619.08 961.05 611.87
00000795 00000131 651.15 172.61 435.77 615.85 759.21 421.99 952.56 414.70 857.15 553.94 780.19 625.60 957.97 619.87
CROP_BBOX: 364 0 1359 993
