Video ID: 	BJQhhNbsKpY
H: 	1080
W: 	1920
FPS: 	25.0

FRAME INDEX X0 Y0 W H [Landmarks (5 Points)]

00004072 00000000 652.34 264.54 409.05 590.34 800.13 489.35 975.60 488.39 926.02 597.89 818.61 693.68 973.84 691.48
00004073 00000001 653.14 263.83 408.70 589.63 799.82 488.24 976.26 487.69 926.06 596.91 816.43 688.77 976.88 687.13
00004074 00000002 654.25 263.96 407.87 588.26 799.75 487.26 976.66 487.02 925.72 596.59 816.46 687.22 977.28 685.85
00004075 00000003 654.36 263.81 407.83 587.34 799.93 487.05 976.87 486.49 925.55 596.26 816.74 686.84 977.47 685.19
00004076 00000004 653.98 263.99 407.80 588.45 799.91 486.78 976.78 486.63 924.86 596.43 814.40 685.70 977.03 684.51
00004077 00000005 650.74 265.90 410.43 592.16 799.77 486.31 974.88 488.42 923.19 596.25 811.87 686.73 973.28 687.46
00004078 00000006 648.52 265.43 411.67 594.71 798.01 486.40 973.24 489.12 920.76 596.70 808.05 686.18 971.32 687.58
00004079 00000007 647.59 263.09 410.95 590.81 795.80 484.32 972.75 488.07 918.93 596.04 803.69 681.59 968.65 684.10
00004080 00000008 648.53 260.90 406.83 584.05 794.89 480.96 969.82 486.04 915.70 593.11 802.23 676.43 964.65 680.38
00004081 00000009 645.75 258.31 405.81 583.05 794.28 474.57 967.96 481.50 912.60 590.76 801.91 672.86 959.40 678.15
00004082 DELETE   641.04 247.86 406.04 591.18 795.66 476.29 966.00 485.69 909.10 584.22 799.07 670.51 954.68 678.09
00004083 00000011 631.49 240.29 409.44 590.99 786.68 471.41 958.55 478.96 899.94 579.69 795.83 669.89 945.68 675.62
00004084 00000012 623.04 229.60 409.82 596.73 781.11 462.80 949.92 473.12 891.96 570.98 789.28 665.23 932.52 673.26
00004085 00000013 616.61 225.79 410.02 601.61 773.01 459.34 940.56 470.98 883.26 565.56 782.09 663.72 925.02 672.48
00004086 00000014 612.54 224.29 408.99 601.90 767.21 452.90 931.63 463.11 875.43 561.38 778.10 661.55 916.65 668.98
00004087 00000015 610.55 225.45 407.97 599.64 761.15 451.76 926.23 459.76 869.51 559.92 772.30 659.28 914.32 665.05
00004088 00000016 607.80 228.05 406.82 595.27 752.84 454.28 919.06 458.74 863.47 561.12 765.60 658.77 912.74 661.85
00004089 00000017 605.44 230.83 405.77 590.25 746.94 454.88 913.81 458.74 856.76 560.03 760.46 657.66 908.42 660.60
00004090 00000018 601.08 230.49 406.37 589.91 737.96 456.16 909.76 461.67 848.24 561.67 750.49 657.84 901.92 662.45
00004091 00000019 595.23 233.97 402.42 587.85 734.87 457.72 907.16 462.88 847.51 561.51 749.11 659.74 898.92 664.09
00004092 00000020 589.39 234.89 407.90 582.28 729.34 456.64 899.40 460.10 838.94 561.84 747.37 657.39 893.29 659.80
00004093 00000021 585.10 233.53 409.49 582.32 724.59 457.98 893.61 459.75 832.45 562.13 744.12 657.10 889.29 657.87
00004094 00000022 583.84 233.73 408.59 580.94 721.25 458.58 891.90 460.89 829.95 559.87 740.47 657.29 885.99 658.49
00004095 00000023 582.07 236.25 409.27 577.78 717.85 459.73 888.90 461.85 825.66 560.57 738.15 657.61 883.81 658.59
00004096 00000024 580.66 235.15 408.99 579.20 713.70 459.85 885.50 461.68 820.49 561.16 735.75 658.76 881.31 659.25
00004097 00000025 577.89 232.83 409.05 581.66 710.40 459.89 880.51 461.24 815.97 561.46 732.60 658.46 877.26 658.49
00004098 00000026 575.88 230.24 409.38 583.04 705.53 458.83 875.22 459.12 809.55 559.86 728.84 657.14 873.55 656.09
00004099 00000027 573.87 230.34 411.22 582.98 702.24 458.06 871.77 456.92 804.64 560.74 726.06 657.13 870.66 654.76
00004100 00000028 571.71 226.36 411.98 591.66 700.14 455.93 871.15 454.00 803.26 562.63 724.90 659.65 871.49 656.27
00004101 00000029 571.54 225.95 412.72 595.82 699.67 455.30 871.09 452.61 802.28 564.10 724.11 660.50 873.64 656.34
00004102 00000030 571.25 225.66 414.00 596.79 699.55 455.42 871.24 452.34 802.17 564.22 723.91 660.38 874.18 655.83
00004103 00000031 573.13 226.64 412.01 593.08 699.55 456.32 871.79 452.97 802.41 564.12 724.58 660.14 874.04 655.64
00004104 00000032 574.61 227.54 411.46 591.83 702.05 458.75 872.28 456.65 803.23 564.80 725.40 659.42 874.01 655.90
00004105 00000033 576.64 229.65 411.55 591.75 704.88 461.75 875.65 460.35 805.94 570.00 728.84 664.33 874.51 661.55
00004106 00000034 578.75 231.26 412.65 594.98 705.24 466.04 879.35 464.26 807.14 579.88 730.59 672.28 876.95 669.10
00004107 00000035 581.55 233.44 412.75 597.59 706.85 470.21 882.23 467.83 808.57 587.31 731.83 678.18 878.94 674.41
00004108 00000036 584.05 234.12 410.94 596.83 707.81 470.41 883.65 468.25 809.33 585.55 733.56 678.58 880.70 674.97
00004109 00000037 585.75 232.95 410.28 595.34 711.23 465.56 884.17 464.92 810.86 578.76 736.45 673.25 881.67 670.83
00004110 00000038 586.71 227.27 408.54 598.44 713.36 459.67 884.41 459.24 813.43 568.37 737.74 665.44 884.34 663.17
00004111 00000039 587.57 223.15 410.21 597.87 711.22 455.62 882.93 453.14 812.21 562.46 737.03 659.86 885.95 655.62
00004112 00000040 587.36 221.02 412.08 594.64 707.05 451.79 881.68 444.43 812.18 557.37 737.51 656.51 889.40 648.20
00004113 00000041 586.81 220.40 412.91 591.73 705.83 449.44 880.04 438.77 813.99 555.06 739.56 653.20 892.03 642.14
00004114 00000042 585.60 216.02 413.57 586.77 702.34 448.78 877.31 434.05 813.09 548.33 741.10 649.54 892.80 635.23
00004115 00000043 584.79 212.31 412.83 584.67 701.04 447.87 873.88 430.45 812.09 545.18 740.91 644.43 892.16 627.75
00004116 00000044 582.04 209.21 413.65 584.68 695.25 448.12 870.39 425.82 807.29 546.72 737.34 643.21 892.43 622.00
00004117 00000045 576.48 210.64 413.25 581.91 690.67 450.77 864.50 424.03 804.60 548.16 738.11 645.39 891.19 620.65
00004118 00000046 573.26 210.81 413.60 585.88 688.06 455.07 859.95 425.37 802.69 552.44 738.34 650.91 890.26 623.85
00004119 00000047 568.52 217.95 414.73 587.11 686.45 460.09 853.79 426.83 799.27 555.87 739.24 657.21 888.26 627.09
00004120 00000048 566.57 221.42 414.96 584.73 682.08 464.09 848.68 428.35 794.73 559.65 737.67 660.20 885.74 628.24
00004121 00000049 562.96 222.95 415.54 584.53 680.26 465.28 845.21 429.72 792.00 562.56 736.76 662.12 881.53 630.44
00004122 00000050 558.45 225.53 418.27 584.41 677.14 468.74 844.10 432.45 791.11 566.10 734.30 663.86 881.08 631.86
00004123 00000051 556.41 231.00 417.74 579.34 674.89 473.77 839.77 438.32 787.03 574.72 729.93 664.42 877.66 633.67
00004124 00000052 553.30 239.20 418.98 572.79 671.56 480.26 835.83 446.69 781.38 582.00 727.00 668.67 873.69 639.68
00004125 00000053 550.54 244.09 417.92 571.76 670.99 486.07 833.30 453.85 778.46 590.23 725.08 674.39 869.37 646.51
00004126 00000054 546.77 247.74 418.38 572.23 669.84 492.83 831.93 458.86 778.62 598.99 722.71 678.24 870.08 649.07
00004127 00000055 547.26 250.42 415.18 574.06 664.97 496.88 829.97 460.86 777.28 602.71 720.06 682.60 871.40 651.55
00004128 00000056 540.90 253.40 419.34 572.54 662.60 498.51 828.59 461.53 777.56 606.42 718.32 684.38 870.71 653.01
00004129 00000057 537.26 257.86 420.62 566.22 661.86 499.54 826.87 461.91 777.00 605.81 718.49 683.97 869.61 652.21
00004130 00000058 535.05 256.55 420.91 565.09 660.03 500.98 825.02 461.86 776.69 605.78 716.84 683.43 868.51 650.57
00004131 00000059 533.10 254.38 420.38 563.93 657.01 499.20 823.16 459.56 774.11 602.54 713.45 679.74 868.00 646.27
00004132 00000060 529.88 248.13 420.78 567.53 654.25 494.44 818.36 456.01 770.06 595.06 712.79 676.48 864.35 643.60
00004133 00000061 526.82 238.95 420.41 575.16 651.47 486.40 815.29 448.33 769.24 582.22 709.94 671.27 862.14 639.21
00004134 00000062 525.94 233.80 419.02 580.14 649.24 476.43 814.63 440.13 767.72 568.56 707.08 664.64 862.65 633.86
00004135 00000063 525.86 227.08 416.08 583.41 649.64 471.14 815.59 437.59 768.16 560.67 703.43 657.66 859.36 629.58
00004136 00000064 526.59 222.21 412.35 585.07 651.96 470.28 815.41 437.68 768.59 551.55 702.96 652.49 855.51 625.46
00004137 DELETE   522.84 217.71 415.46 581.31 650.67 460.69 814.57 428.29 768.47 539.18 700.35 642.81 855.26 615.89
00004138 00000066 522.01 211.96 415.45 578.59 651.06 444.76 817.25 416.43 768.53 525.26 698.00 631.00 854.62 606.53
00004139 00000067 520.70 206.06 417.54 581.61 650.04 436.16 817.38 405.65 768.78 515.24 697.14 623.66 858.62 597.00
00004140 00000068 516.14 204.70 416.78 578.13 645.59 436.13 817.31 397.56 778.04 516.13 694.64 623.05 856.52 588.82
00004141 00000069 517.00 202.12 416.28 578.41 646.93 433.44 819.95 394.54 780.58 512.08 697.09 622.97 858.40 588.61
00004142 00000070 517.58 201.09 412.89 578.19 647.74 434.37 821.17 394.34 783.20 511.14 699.89 624.31 860.26 589.06
00004143 00000071 518.16 199.48 410.99 578.43 650.92 437.42 823.52 395.81 786.84 512.27 705.31 628.29 862.25 592.00
00004144 00000072 518.28 201.37 407.53 572.82 651.54 442.24 824.40 398.02 790.42 516.79 711.24 635.30 862.55 596.56
00004145 00000073 517.89 207.39 407.01 572.97 655.78 448.08 825.07 402.86 796.22 525.40 711.79 638.86 862.86 600.20
00004146 00000074 521.54 209.80 408.82 582.50 662.23 446.07 828.41 415.10 791.22 538.24 712.99 641.81 864.16 615.29
00004147 00000075 521.94 219.28 408.00 580.55 662.47 455.97 829.58 424.58 792.70 549.63 708.48 647.12 865.77 620.76
00004148 00000076 523.64 225.09 407.25 578.81 664.34 463.21 832.73 431.72 795.85 559.09 706.17 650.44 868.31 624.47
00004149 00000077 524.71 228.43 408.29 583.23 666.71 465.72 833.00 437.09 797.15 564.52 705.99 654.56 867.99 630.93
00004150 00000078 527.45 228.00 406.09 583.61 668.98 465.93 835.70 437.70 799.42 563.62 706.34 654.01 868.91 630.77
00004151 00000079 528.03 224.71 406.70 581.37 671.71 461.71 839.52 433.80 802.64 558.45 708.81 650.80 868.23 628.08
00004152 00000080 527.97 218.10 410.17 584.09 674.24 453.70 841.24 424.60 805.10 551.51 708.95 640.35 871.81 616.16
00004153 00000081 527.64 213.56 408.11 578.52 676.12 440.08 841.89 414.11 804.92 535.71 714.77 632.47 869.46 610.07
00004154 00000082 530.24 201.72 408.83 578.97 675.85 429.13 843.40 402.17 804.39 519.47 722.11 626.08 870.02 602.10
00004155 00000083 531.86 192.43 402.18 569.51 674.44 430.78 840.12 397.88 804.77 519.27 722.40 619.90 872.65 593.27
00004156 00000084 532.94 187.38 403.59 569.00 674.90 421.71 842.09 392.24 803.42 505.59 720.71 611.32 871.70 587.68
00004157 00000085 532.01 192.95 414.47 575.24 680.36 417.23 846.37 390.05 804.74 503.44 725.12 609.76 873.64 585.06
00004158 00000086 534.17 189.05 403.22 572.15 676.83 420.55 843.68 391.08 806.00 509.48 721.11 612.95 874.20 588.99
00004159 00000087 534.27 190.94 404.25 572.24 677.35 421.66 846.64 392.16 808.10 512.84 719.22 613.77 876.13 589.72
00004160 00000088 534.64 195.03 413.50 573.74 682.53 417.11 851.30 390.03 809.51 505.71 724.12 607.83 879.23 583.46
00004161 00000089 534.00 185.72 405.98 571.96 677.16 410.71 846.12 386.01 805.73 496.98 717.23 600.73 876.45 580.31
00004162 00000090 532.61 175.98 407.18 578.18 673.60 399.61 841.20 378.69 801.40 484.21 715.25 592.30 874.76 574.33
00004163 00000091 531.40 172.55 406.15 579.26 671.31 395.80 839.13 374.27 801.80 480.17 712.10 587.24 875.88 568.38
00004164 00000092 531.21 172.91 405.27 578.28 670.36 394.48 838.88 372.99 800.80 481.75 710.81 587.27 875.10 568.49
00004165 00000093 532.92 174.96 403.68 576.70 673.09 403.67 841.33 381.40 800.71 489.83 712.22 593.03 873.14 574.14
00004166 DELETE   534.40 187.57 402.25 567.51 677.27 421.22 847.35 396.44 804.53 507.85 710.96 602.46 873.08 582.30
00004167 00000095 538.23 193.57 398.72 567.63 680.52 440.46 852.50 413.72 806.12 526.38 708.02 615.28 871.26 594.39
00004168 DELETE   537.29 206.60 406.84 571.66 687.46 445.35 854.40 427.36 810.22 539.27 712.73 622.03 869.00 607.52
00004169 00000097 539.52 215.33 405.36 577.37 694.67 454.22 858.77 437.01 817.30 550.30 716.44 632.39 870.32 618.55
00004170 00000098 544.35 221.49 407.69 579.45 699.67 458.61 865.79 442.82 819.94 559.06 718.59 640.51 875.47 627.48
00004171 00000099 550.90 222.76 408.45 581.37 704.39 456.31 873.01 443.82 825.76 562.17 722.54 643.66 880.65 632.90
00004172 00000100 558.36 221.19 407.23 582.36 713.50 451.24 881.23 442.09 833.66 563.43 728.47 641.53 885.57 633.29
00004173 00000101 569.01 220.47 402.17 577.97 719.05 446.72 886.03 439.12 839.11 554.76 735.35 637.01 891.30 630.10
00004174 00000102 578.36 216.95 398.04 574.79 721.33 441.56 890.71 432.91 844.50 544.95 742.28 631.84 900.54 623.97
00004175 00000103 582.74 211.48 398.28 576.14 724.54 435.48 895.54 426.23 851.04 535.79 748.25 626.81 907.60 617.92
00004176 00000104 588.06 210.74 396.48 575.40 728.76 435.39 898.01 425.64 856.62 534.01 753.45 625.13 911.70 616.02
00004177 00000105 592.63 214.30 397.02 579.14 733.19 438.76 903.02 428.44 862.54 537.78 755.92 629.19 917.18 619.89
00004178 00000106 596.49 220.99 395.36 574.75 738.90 445.87 908.21 436.98 865.99 546.15 758.85 635.55 918.79 628.07
00004179 00000107 600.25 224.78 398.97 576.99 743.68 448.80 912.10 442.73 865.24 552.11 764.70 644.05 917.82 639.86
00004180 00000108 600.87 227.89 398.11 575.07 744.77 453.07 913.02 446.63 866.83 555.72 769.98 650.37 918.55 645.94
CROP_BBOX: 295 0 1312 1043
