Video ID: 	kkXKHO_QBC0
H: 	1080
W: 	1920
FPS: 	25.0

FRAME INDEX X0 Y0 W H [Landmarks (5 Points)]

00024660 00000000 651.08 107.18 398.14 577.64 864.26 322.48 1028.81 343.14 1020.06 422.31 886.84 536.19 1017.47 552.02
00024661 DELETE   649.38 124.18 391.93 562.57 858.87 330.02 1015.52 346.33 1007.88 428.84 882.42 546.13 1001.23 559.36
00024662 00000002 645.69 128.56 395.76 565.26 857.95 333.94 1015.02 351.86 1007.70 437.02 879.73 551.61 999.17 566.27
00024663 DELETE   644.36 144.15 397.02 568.18 856.34 345.23 1012.64 358.98 1005.64 454.90 881.30 569.69 998.37 580.93
00024664 DELETE   661.02 162.61 389.51 573.44 867.04 364.98 1024.69 379.92 1010.19 478.34 883.15 589.09 1004.25 602.15
00024665 DELETE   648.29 169.56 408.88 587.87 869.86 384.80 1017.85 398.41 1008.62 509.13 886.60 606.27 1001.44 617.57
00024666 00000006 663.65 193.47 415.40 579.66 886.67 391.17 1041.35 417.73 1024.25 515.46 892.62 614.98 1010.44 636.03
00024667 DELETE   679.94 202.80 411.39 574.86 895.53 396.64 1049.96 419.99 1036.77 521.19 894.50 620.80 1016.10 640.93
00024668 DELETE   685.31 195.24 406.32 567.11 897.69 386.18 1061.11 413.05 1046.04 517.68 906.88 614.68 1038.61 638.69
00024669 00000009 698.66 166.46 400.64 573.13 911.48 378.45 1077.48 404.73 1061.44 485.87 929.88 596.16 1055.26 617.23
00024670 00000010 712.56 154.48 396.35 564.09 925.55 361.74 1085.89 388.04 1071.43 469.95 945.39 580.48 1063.89 601.71
00024671 00000011 717.72 147.45 392.84 561.03 927.20 352.05 1088.28 376.02 1071.45 463.51 948.26 573.87 1064.82 593.16
00024672 00000012 722.07 140.91 389.75 567.56 930.37 346.47 1087.42 365.65 1078.89 458.04 950.41 568.26 1068.64 584.05
00024673 00000013 730.29 142.66 391.86 566.41 935.79 341.75 1100.28 367.43 1086.97 454.36 949.64 562.84 1075.61 584.32
00024674 00000014 733.74 142.50 396.34 563.57 941.46 338.02 1104.57 365.73 1089.97 454.54 950.08 558.59 1074.85 582.16
00024675 00000015 731.51 133.59 409.00 574.55 956.11 331.46 1108.34 365.65 1095.23 453.65 961.51 552.51 1074.55 579.28
00024676 00000016 731.89 134.34 410.38 570.31 955.76 327.08 1108.17 362.79 1094.23 451.28 958.64 549.36 1074.91 577.35
00024677 00000017 729.02 129.29 408.64 570.34 954.88 319.57 1105.37 359.72 1091.93 444.43 956.95 541.78 1071.19 573.18
00024678 00000018 724.27 127.56 405.07 563.45 941.79 320.49 1101.19 354.73 1086.00 438.66 952.09 538.08 1075.91 566.88
00024679 00000019 719.63 118.71 405.15 567.62 938.92 315.41 1091.48 348.39 1078.40 433.10 943.84 527.81 1066.03 555.73
00024680 00000020 711.18 109.94 404.78 570.04 925.79 301.84 1085.63 342.41 1070.33 417.62 929.77 515.90 1060.70 549.85
00024681 00000021 707.62 106.48 399.37 568.19 918.56 297.49 1081.74 334.76 1065.76 402.73 922.56 511.23 1054.53 542.18
00024682 00000022 703.78 95.48 394.98 560.38 911.56 292.56 1070.52 327.93 1054.24 395.39 920.57 502.03 1043.67 531.10
00024683 00000023 693.37 90.31 398.31 557.14 899.04 286.93 1057.15 319.79 1039.35 387.98 909.14 493.30 1034.22 520.04
00024684 00000024 688.98 93.74 400.55 552.37 894.53 284.95 1055.73 316.68 1035.83 388.32 905.71 491.72 1031.14 516.93
00024685 00000025 680.43 89.01 405.29 554.84 887.45 284.91 1052.26 316.94 1030.47 388.30 902.04 492.11 1028.45 517.05
00024686 00000026 671.37 95.46 409.08 545.21 875.82 285.43 1045.01 313.95 1017.32 389.89 893.94 493.08 1021.00 514.29
00024687 00000027 667.85 91.61 413.18 553.18 864.16 286.65 1039.06 314.13 1000.30 393.43 883.31 498.05 1013.63 518.13
00024688 00000028 664.09 88.93 421.61 569.92 862.10 293.29 1039.70 321.78 995.43 400.28 880.13 507.37 1011.95 529.20
00024689 00000029 672.46 107.32 415.27 567.06 867.51 305.44 1046.76 332.28 1009.19 420.09 891.83 529.76 1020.64 550.96
00024690 00000030 690.64 130.23 411.38 553.88 888.02 318.40 1057.93 339.71 1027.42 433.73 910.56 547.02 1034.18 562.73
00024691 00000031 702.08 138.42 407.98 554.90 904.20 321.67 1069.37 341.06 1041.84 440.20 926.88 554.52 1041.69 569.35
00024692 00000032 705.27 136.20 409.40 556.36 913.43 324.50 1077.42 345.88 1051.34 441.95 934.51 554.91 1047.00 571.54
00024693 00000033 708.83 138.60 407.79 554.46 920.51 323.07 1082.21 345.81 1061.32 442.48 937.53 553.15 1051.04 571.59
00024694 00000034 709.55 129.95 405.87 560.18 926.53 323.27 1084.71 345.37 1067.25 443.16 941.35 552.27 1053.42 570.35
00024695 00000035 709.06 121.12 405.08 568.45 925.37 324.93 1083.67 347.34 1067.50 445.61 938.15 552.24 1052.58 571.15
00024696 00000036 710.43 124.68 403.28 562.13 922.86 328.39 1083.70 349.62 1065.40 446.49 936.70 552.25 1054.49 570.16
00024697 00000037 708.24 127.05 405.72 560.97 920.51 329.15 1082.34 351.54 1064.77 446.25 935.09 553.38 1055.02 572.01
00024698 00000038 709.04 125.65 404.66 563.31 920.35 330.06 1083.46 354.14 1064.45 447.80 934.17 555.43 1054.44 575.35
00024699 00000039 709.32 127.69 403.77 561.41 920.74 330.49 1083.77 352.64 1066.87 448.76 937.19 558.38 1056.28 576.93
00024700 00000040 707.46 132.02 402.34 557.18 918.88 333.38 1082.18 354.61 1064.91 451.92 936.92 561.07 1054.92 578.57
00024701 00000041 704.59 139.70 402.70 558.31 914.65 336.64 1077.37 356.78 1060.22 454.36 933.70 565.69 1050.62 581.90
00024702 00000042 701.62 141.89 401.34 561.07 910.69 342.08 1071.92 363.35 1053.87 454.93 929.11 565.39 1046.43 582.35
00024703 00000043 697.05 142.33 402.21 557.50 906.14 342.41 1066.12 363.40 1049.32 454.80 924.79 562.50 1042.48 579.33
00024704 00000044 696.39 138.92 400.79 562.41 906.54 340.89 1063.44 364.10 1049.54 452.02 925.35 559.92 1040.72 578.82
00024705 00000045 689.78 141.87 398.39 560.02 907.54 350.58 1059.99 379.47 1049.02 450.64 928.06 559.48 1039.11 581.98
00024706 00000046 684.94 143.62 403.98 568.47 901.88 351.64 1053.70 379.46 1044.77 447.81 924.61 560.60 1039.90 582.22
00024707 00000047 678.49 149.65 406.82 572.01 892.65 348.92 1043.80 378.87 1037.64 449.28 912.70 559.23 1029.45 582.59
00024708 00000048 673.65 151.91 405.84 574.13 885.08 348.65 1039.31 375.58 1034.68 454.53 899.63 562.51 1021.00 583.72
00024709 00000049 664.91 157.86 403.43 569.78 876.88 350.59 1034.96 378.84 1026.70 459.89 889.65 564.88 1016.65 586.90
00024710 00000050 666.23 168.22 395.00 564.91 871.40 358.58 1031.87 378.62 1019.82 467.44 878.92 578.14 1013.11 595.60
00024711 DELETE   653.66 172.23 400.90 568.48 847.72 365.74 1019.08 388.22 992.90 476.13 851.87 582.65 998.51 602.53
00024712 00000052 626.74 176.77 406.70 565.24 816.14 370.99 989.07 391.73 958.78 479.21 826.16 586.02 968.00 603.52
00024713 00000053 617.52 180.21 405.20 552.20 800.69 371.52 980.60 396.40 935.65 480.55 812.29 584.44 952.14 604.86
00024714 00000054 609.88 176.87 407.31 550.81 796.21 370.79 977.20 394.14 932.24 478.14 808.94 582.96 949.67 601.38
00024715 00000055 609.51 178.09 407.14 545.20 797.68 366.42 974.80 388.54 931.67 474.60 811.68 577.81 947.96 594.65
00024716 00000056 609.14 177.12 412.51 546.74 803.02 360.11 973.11 383.79 936.84 469.86 812.21 572.97 945.83 591.22
00024717 00000057 613.12 172.63 407.82 548.22 807.32 356.77 974.57 378.50 942.25 461.11 819.09 567.20 951.41 583.99
00024718 00000058 620.14 157.45 406.05 569.62 815.59 348.11 979.92 371.75 956.33 459.15 824.55 566.00 957.83 585.00
00024719 00000059 632.54 161.46 401.35 560.43 831.80 344.75 993.60 369.37 972.50 458.03 837.31 562.75 969.55 583.40
00024720 00000060 643.72 156.94 396.21 558.19 842.97 342.83 1007.51 365.31 986.87 459.00 850.02 563.45 982.06 582.82
00024721 00000061 648.99 145.86 392.37 559.07 849.79 342.91 1017.77 370.00 995.81 455.80 860.47 563.58 989.38 586.62
00024722 00000062 649.47 141.97 393.56 559.10 849.94 342.44 1019.11 370.16 997.55 453.87 859.88 561.41 991.86 585.08
00024723 00000063 653.37 140.78 393.34 558.77 851.31 338.97 1022.93 369.53 996.44 447.34 860.94 557.12 994.14 582.62
00024724 00000064 656.69 139.26 394.64 562.13 855.14 336.18 1025.97 365.80 1002.57 446.76 862.17 554.59 997.32 579.86
00024725 00000065 661.15 137.25 398.55 566.51 862.28 337.39 1026.61 361.95 1011.14 443.27 871.17 553.46 1005.13 574.58
00024726 00000066 658.86 137.90 409.85 571.03 873.45 328.35 1035.53 365.67 1018.15 443.98 882.00 548.11 1010.28 577.22
00024727 00000067 664.19 139.29 408.24 567.54 881.93 329.33 1038.75 365.95 1023.98 446.17 887.42 548.09 1011.47 576.97
00024728 00000068 663.19 139.08 410.72 569.03 885.07 330.42 1039.77 367.26 1027.40 448.91 889.01 550.25 1010.83 579.46
00024729 00000069 661.38 139.25 413.89 573.71 881.98 333.90 1036.23 370.53 1022.00 450.36 884.76 550.18 1007.40 579.24
00024730 00000070 662.44 138.72 414.56 574.53 883.30 331.75 1036.49 368.89 1022.12 448.70 886.09 549.77 1007.79 579.22
00024731 00000071 668.38 137.38 414.42 576.26 887.56 331.01 1038.99 367.79 1024.83 444.17 890.29 547.62 1012.04 576.97
00024732 00000072 677.31 139.59 413.44 578.52 893.87 332.77 1045.47 370.28 1030.94 448.79 892.61 550.71 1014.89 581.14
00024733 00000073 683.03 146.69 411.64 580.58 899.57 339.15 1050.63 374.50 1034.64 459.18 893.18 558.78 1015.98 587.63
00024734 00000074 687.00 149.45 408.75 584.13 901.82 343.58 1053.92 377.95 1037.86 464.68 895.46 566.94 1017.24 595.03
00024735 00000075 689.56 153.16 408.58 582.37 908.99 351.84 1059.45 383.39 1042.53 473.28 900.91 571.41 1022.93 597.36
00024736 00000076 697.31 159.43 407.11 571.69 917.24 354.15 1070.63 385.75 1050.48 476.40 907.81 571.19 1032.46 597.91
00024737 00000077 702.55 158.26 403.94 571.18 919.25 353.47 1075.28 386.17 1053.26 476.02 904.76 569.65 1034.46 597.86
00024738 00000078 700.69 149.60 405.82 581.12 919.85 352.61 1072.24 382.10 1055.61 472.92 906.64 567.82 1034.89 593.62
00024739 00000079 700.95 148.28 407.28 583.42 918.50 346.59 1072.39 377.03 1055.78 468.20 908.03 566.95 1034.68 593.12
00024740 00000080 700.71 146.38 410.62 588.65 914.96 342.74 1071.97 370.44 1056.55 464.31 904.33 566.89 1035.65 590.95
00024741 00000081 698.70 145.29 411.22 583.33 917.46 343.64 1071.18 367.79 1058.52 463.23 905.16 564.13 1034.96 585.92
00024742 00000082 700.93 136.90 409.52 585.13 923.65 348.00 1074.39 370.19 1064.65 460.80 916.47 562.07 1042.23 582.40
00024743 00000083 704.00 127.82 406.20 583.22 925.47 342.34 1080.07 365.67 1072.83 453.46 928.05 559.62 1051.51 580.17
00024744 00000084 710.61 117.23 398.21 579.86 929.01 333.62 1081.31 356.30 1079.75 441.62 941.92 551.79 1059.49 571.55
00024745 00000085 714.43 102.41 388.91 588.67 933.30 329.25 1086.76 345.96 1087.77 436.69 955.59 545.96 1072.91 559.41
00024746 00000086 711.86 100.65 385.37 581.48 929.32 323.99 1080.85 341.29 1084.47 429.62 956.47 539.07 1069.86 552.63
00024747 00000087 698.51 102.62 389.49 574.67 918.36 318.42 1058.21 329.97 1072.09 422.31 951.51 544.17 1049.80 554.80
00024748 00000088 688.93 96.86 391.91 584.06 910.50 311.27 1049.91 323.24 1069.33 423.65 945.76 542.40 1051.08 552.00
00024749 00000089 671.89 95.43 393.70 581.09 891.45 320.59 1031.39 325.12 1054.33 420.01 934.02 535.65 1035.85 539.06
00024750 00000090 665.17 96.91 391.16 578.88 879.23 320.66 1022.42 325.40 1040.35 421.52 922.60 537.41 1025.68 541.24
00024751 00000091 658.90 98.49 387.04 582.82 874.98 321.40 1026.43 329.40 1037.85 426.64 905.54 542.25 1021.61 547.98
00024752 00000092 650.04 97.65 382.76 587.18 866.12 326.73 1019.89 339.64 1023.83 432.20 891.54 545.38 1009.00 555.72
00024753 00000093 633.94 104.16 393.40 586.43 844.53 322.32 1008.82 343.43 1003.76 421.55 875.30 542.55 1001.00 559.35
00024754 00000094 623.23 108.97 398.87 577.42 835.07 315.91 990.94 336.22 991.91 414.08 863.76 539.09 980.60 555.74
00024755 00000095 625.38 111.61 401.94 579.16 841.35 313.70 992.25 342.22 995.66 409.45 859.06 531.68 978.20 555.77
00024756 00000096 631.46 106.33 412.97 588.48 852.25 302.13 1008.34 332.88 1002.93 422.47 859.08 526.06 988.21 552.10
00024757 00000097 657.24 118.65 412.91 587.15 876.69 304.23 1031.95 344.74 1020.86 423.78 868.45 528.60 997.91 562.13
00024758 00000098 674.12 118.31 411.96 590.16 894.41 303.17 1050.21 340.18 1042.69 443.23 878.86 535.33 1014.79 568.41
00024759 00000099 702.17 129.86 409.50 579.68 918.56 319.03 1077.65 353.44 1059.33 443.60 901.90 537.36 1035.66 567.94
00024760 00000100 715.01 136.02 407.98 576.96 935.08 320.09 1089.45 358.29 1073.67 454.15 919.68 538.23 1049.35 571.47
00024761 00000101 730.73 137.46 420.29 578.80 959.07 324.49 1114.03 367.45 1090.62 471.67 929.41 545.84 1061.21 584.35
00024762 00000102 748.92 156.28 409.98 571.33 969.30 337.14 1122.45 385.64 1095.17 484.13 935.61 558.56 1064.96 601.55
00024763 00000103 763.71 167.03 406.45 567.50 982.08 360.32 1134.59 404.04 1106.14 494.05 947.20 566.79 1077.13 605.08
00024764 00000104 770.40 166.39 411.17 569.64 993.92 354.48 1145.42 402.71 1120.74 498.26 957.33 571.24 1089.71 612.68
00024765 00000105 780.61 177.87 415.80 563.18 1004.24 361.27 1154.98 404.38 1126.14 499.56 970.29 573.66 1100.23 610.33
00024766 00000106 786.77 181.75 414.46 566.76 1011.32 365.12 1160.06 409.29 1134.62 504.35 977.67 578.54 1103.46 616.18
00024767 00000107 788.56 179.29 416.71 581.92 1015.27 363.07 1161.93 407.05 1142.65 508.80 970.48 584.26 1096.68 622.96
00024768 00000108 789.38 186.47 416.70 585.50 1007.77 370.12 1163.41 418.25 1142.50 507.53 961.01 588.04 1096.47 632.41
00024769 00000109 778.33 182.50 415.61 583.13 1000.71 368.78 1153.57 414.63 1130.46 513.56 958.25 590.46 1092.01 630.78
00024770 00000110 771.82 184.19 420.43 581.29 993.61 369.45 1151.38 414.67 1124.06 515.49 954.66 592.67 1092.34 632.43
00024771 00000111 763.22 193.15 419.46 571.79 984.95 369.86 1144.73 415.77 1117.00 520.82 950.77 595.19 1090.35 635.38
00024772 00000112 754.05 193.40 412.89 560.35 972.42 371.73 1132.59 413.41 1108.02 518.98 941.28 591.83 1084.42 628.71
00024773 00000113 738.73 177.07 412.55 567.54 963.28 384.07 1118.15 425.87 1091.40 503.56 939.20 582.23 1068.69 617.87
00024774 00000114 722.37 178.92 413.92 558.52 942.58 371.60 1101.90 406.64 1077.54 496.55 924.16 578.43 1057.19 608.04
00024775 00000115 711.84 174.87 408.73 555.44 931.10 361.55 1086.31 395.73 1060.07 493.51 906.19 571.72 1039.46 601.13
00024776 00000116 714.02 171.68 399.54 557.01 925.57 359.74 1086.92 394.01 1059.55 487.08 895.33 569.48 1032.35 601.41
00024777 00000117 704.11 160.54 402.36 578.86 920.98 355.05 1073.62 390.66 1055.31 482.30 891.52 568.39 1023.15 600.70
00024778 00000118 699.33 155.08 406.52 589.62 917.55 352.04 1069.85 389.95 1053.40 480.70 888.37 569.24 1020.33 603.09
00024779 00000119 698.43 157.03 409.55 591.46 921.92 356.69 1071.65 394.60 1056.37 487.23 889.93 571.45 1021.03 605.70
00024780 00000120 699.78 157.13 409.85 595.07 922.85 361.99 1074.35 394.50 1059.38 495.64 889.39 577.53 1021.00 607.61
00024781 00000121 701.62 167.91 409.66 585.15 923.97 361.99 1075.75 396.26 1059.13 496.15 892.44 578.47 1023.41 609.90
00024782 00000122 704.94 168.58 408.75 587.06 927.08 361.88 1079.62 396.16 1061.96 496.23 895.28 578.55 1027.34 609.98
00024783 00000123 706.14 164.00 407.72 589.84 927.46 362.90 1082.30 397.22 1062.66 495.71 896.75 579.06 1029.18 610.33
00024784 00000124 699.24 167.09 408.77 583.94 921.95 361.33 1074.77 396.32 1056.93 493.58 894.09 576.73 1024.97 608.20
00024785 00000125 688.74 167.80 406.81 578.71 911.01 357.02 1060.86 394.60 1048.99 500.25 884.30 580.32 1018.83 613.74
00024786 00000126 687.16 174.78 405.03 572.81 904.74 362.76 1058.65 395.63 1047.78 505.75 880.15 587.38 1017.78 617.23
00024787 00000127 690.77 193.59 407.37 565.76 908.85 369.55 1065.90 409.05 1053.13 516.36 885.11 593.93 1022.39 629.42
00024788 00000128 688.06 202.21 418.12 565.65 913.87 379.83 1071.19 418.67 1051.81 525.44 892.26 602.20 1026.24 636.59
00024789 00000129 688.28 204.02 414.28 569.62 914.25 379.78 1067.92 418.58 1053.18 529.80 884.38 603.35 1016.34 638.52
CROP_BBOX: 425 0 1389 915
