Video ID: 	SSnqdb8Orb8
H: 	1080
W: 	1920
FPS: 	25.0

FRAME INDEX X0 Y0 W H [Landmarks (5 Points)]

00003770 00000000 819.19 69.93 625.94 896.21 895.26 407.08 1139.75 418.62 918.63 603.73 921.61 756.52 1100.50 768.78
00003771 00000001 820.21 68.99 626.25 901.63 899.68 413.43 1136.57 422.09 918.61 598.97 925.03 757.72 1097.32 767.49
00003772 00000002 821.56 68.24 625.63 912.34 901.93 415.82 1136.73 426.89 918.35 600.04 925.04 758.20 1101.05 769.63
00003773 00000003 823.95 68.31 624.99 908.92 903.01 418.20 1138.50 429.37 920.17 604.29 928.08 758.72 1103.77 770.24
00003774 00000004 823.64 72.94 626.72 904.09 903.69 423.06 1141.52 434.56 923.25 604.93 927.56 760.35 1106.72 771.81
00003775 00000005 833.79 73.55 625.18 899.70 915.72 414.83 1144.51 429.24 923.36 604.81 932.51 755.53 1110.13 768.70
00003776 DELETE   838.75 75.36 629.98 896.27 913.56 416.80 1162.12 419.93 943.17 600.62 941.67 759.41 1129.55 764.26
00003777 DELETE   851.15 83.12 621.75 880.21 928.40 418.39 1179.47 416.77 968.08 595.62 959.70 756.65 1145.71 758.22
00003778 DELETE   857.29 58.89 619.76 902.45 939.57 408.26 1199.42 410.98 997.48 594.11 974.24 752.39 1177.98 755.60
00003779 00000009 864.11 68.74 622.03 894.13 951.13 400.48 1216.58 406.36 1014.50 596.04 984.17 741.45 1200.32 747.21
00003780 00000010 867.32 73.78 619.76 889.51 964.24 397.21 1227.48 402.53 1037.20 599.20 1000.32 736.85 1218.38 741.84
00003781 00000011 874.50 80.80 613.68 883.26 973.12 396.44 1232.71 399.86 1047.49 598.72 1012.39 735.11 1226.48 737.92
00003782 00000012 872.46 73.14 617.74 900.05 976.36 398.97 1233.70 400.06 1052.47 600.01 1019.42 741.47 1229.80 742.68
00003783 00000013 871.23 80.76 620.93 914.85 973.37 401.45 1228.97 397.82 1048.54 600.50 1022.65 757.41 1231.40 754.37
00003784 00000014 863.62 82.58 622.23 924.26 973.44 404.44 1224.85 401.23 1044.49 599.56 1017.58 758.38 1224.47 756.58
00003785 00000015 861.14 78.47 623.34 928.65 968.87 406.66 1218.04 403.88 1035.70 599.85 1011.26 756.09 1223.47 753.99
00003786 00000016 860.39 80.11 621.97 926.68 965.16 406.63 1213.58 403.21 1029.75 598.53 1007.54 754.63 1219.48 752.10
00003787 00000017 859.59 85.14 622.44 917.77 962.45 407.23 1211.49 405.78 1025.39 598.13 1002.87 751.78 1214.49 750.89
00003788 00000018 856.77 84.08 624.51 911.72 959.11 407.34 1208.39 408.00 1019.21 600.65 999.99 751.03 1205.58 752.40
00003789 00000019 856.60 71.06 626.70 914.42 957.33 410.40 1204.28 409.53 1012.25 598.92 999.16 752.33 1192.56 753.26
00003790 00000020 857.01 71.17 623.17 903.93 953.64 412.44 1202.29 409.65 1007.63 597.26 994.78 754.67 1182.93 754.56
00003791 00000021 854.66 66.24 624.32 911.90 948.37 412.42 1195.12 411.50 995.21 595.44 986.42 754.98 1175.10 756.46
00003792 00000022 853.41 67.00 624.50 911.95 943.99 409.59 1189.03 411.80 985.56 597.60 981.77 755.64 1166.58 759.83
00003793 00000023 850.18 77.77 626.50 901.84 940.63 404.31 1186.62 411.60 978.22 600.63 973.04 750.69 1160.81 758.95
00003794 00000024 848.58 75.70 626.57 903.92 936.56 402.73 1183.32 411.31 971.39 597.99 966.98 749.73 1158.97 758.71
00003795 00000025 847.44 64.70 625.92 922.67 935.40 402.55 1176.72 412.40 962.65 595.70 963.27 747.30 1156.72 756.91
00003796 00000026 846.83 67.76 623.85 920.69 931.34 402.38 1173.17 413.91 957.23 594.23 955.70 744.49 1155.12 755.42
00003797 00000027 845.53 65.64 620.03 929.77 922.02 403.88 1170.25 418.16 952.60 596.10 947.52 746.84 1158.32 758.79
00003798 00000028 845.02 63.13 607.75 935.84 919.43 397.44 1170.37 418.31 955.52 595.08 945.22 742.42 1153.70 760.30
00003799 00000029 845.28 63.87 618.13 928.41 920.77 402.62 1168.51 417.13 952.64 595.30 947.28 744.23 1157.46 756.40
00003800 00000030 844.92 59.96 607.16 937.05 919.80 397.18 1170.59 417.93 957.63 596.11 945.80 741.95 1153.10 759.96
00003801 00000031 844.94 63.44 619.01 923.14 922.12 402.97 1169.46 417.45 953.52 595.20 946.17 743.52 1153.44 755.86
00003802 00000032 843.72 69.03 623.70 914.11 929.30 400.49 1171.74 414.25 956.42 592.62 950.51 740.00 1147.53 753.11
00003803 00000033 843.20 67.88 623.96 916.65 929.86 398.81 1171.86 412.27 956.66 594.18 952.17 740.99 1146.30 753.91
00003804 00000034 842.89 67.36 624.69 916.77 929.39 398.02 1172.59 411.23 958.26 595.73 955.49 744.20 1145.62 757.11
00003805 00000035 844.94 66.64 625.04 910.56 928.52 399.31 1174.06 412.24 958.01 598.76 955.38 745.96 1145.38 758.72
00003806 00000036 845.13 64.59 622.17 909.05 924.36 396.16 1176.76 413.25 958.83 604.09 949.15 745.65 1142.40 762.33
00003807 00000037 845.16 66.18 622.88 913.91 925.61 396.50 1177.64 411.87 960.19 604.48 951.55 749.19 1142.91 764.56
00003808 00000038 843.60 65.43 624.93 916.36 925.62 395.45 1177.98 412.81 960.24 607.46 949.76 748.81 1139.50 766.20
00003809 00000039 845.28 63.19 622.85 917.15 926.11 397.18 1179.22 413.61 961.22 607.13 949.56 749.96 1139.22 766.64
00003810 00000040 844.49 61.92 624.33 921.75 925.42 396.90 1179.67 413.41 960.09 605.74 949.27 751.07 1139.95 767.77
00003811 00000041 846.86 64.26 621.30 918.71 926.77 398.44 1178.52 415.30 960.22 607.02 950.32 751.16 1139.99 768.08
00003812 00000042 845.98 63.01 624.32 917.82 926.40 400.80 1178.69 417.04 960.25 608.09 950.00 752.05 1140.45 768.44
00003813 00000043 846.42 63.37 625.05 914.94 927.19 401.26 1179.97 417.58 960.82 608.40 949.50 752.37 1140.05 768.87
00003814 00000044 846.67 62.81 624.07 909.03 925.76 403.09 1180.21 418.16 961.93 608.59 949.90 752.19 1140.64 767.57
00003815 00000045 847.94 62.29 622.62 904.90 924.61 403.99 1181.30 418.11 961.28 609.32 948.38 754.14 1141.31 768.67
00003816 00000046 848.21 58.70 625.73 912.27 924.62 405.17 1180.80 417.47 961.15 610.59 951.58 758.62 1142.75 771.50
00003817 00000047 847.07 61.99 630.06 919.59 928.24 409.13 1176.62 418.97 958.72 607.14 954.68 761.18 1139.64 771.70
00003818 00000048 846.66 61.70 630.56 920.59 928.29 409.20 1175.05 419.73 957.25 607.78 954.68 761.14 1139.02 772.06
00003819 00000049 846.40 57.58 629.22 927.69 928.06 408.82 1174.18 419.52 955.71 606.97 954.79 760.90 1140.09 771.82
00003820 00000050 847.27 58.28 627.84 926.69 928.97 408.75 1174.75 420.18 955.78 606.35 953.90 759.56 1140.01 771.14
00003821 00000051 847.03 61.16 628.44 920.79 929.02 409.88 1176.83 421.51 958.92 606.83 953.09 757.75 1140.78 769.60
00003822 00000052 846.71 61.86 629.28 919.20 928.51 410.54 1178.00 422.19 960.78 608.12 954.30 758.71 1141.11 770.60
00003823 00000053 846.51 60.56 628.31 919.74 928.85 410.52 1178.58 422.17 962.26 608.36 954.64 758.41 1141.92 770.33
00003824 00000054 848.43 67.21 626.66 915.36 930.82 410.98 1179.73 423.09 962.21 608.14 955.87 760.14 1143.21 772.29
00003825 00000055 848.26 63.33 626.65 919.55 931.82 410.30 1179.87 423.61 962.44 607.98 955.83 758.66 1142.72 771.87
00003826 00000056 849.13 68.74 624.60 917.12 935.15 408.56 1183.12 421.49 965.54 605.13 956.63 757.44 1144.60 770.41
00003827 00000057 848.70 65.94 624.87 916.95 934.95 408.07 1184.82 420.14 969.25 604.57 958.59 756.57 1147.23 768.95
00003828 00000058 849.10 66.66 626.79 916.69 935.75 408.92 1185.10 419.74 970.10 601.80 959.53 755.65 1148.51 766.93
00003829 00000059 849.48 65.32 624.27 917.97 935.64 407.36 1184.85 419.62 970.63 604.01 959.92 754.85 1150.61 767.13
00003830 00000060 850.25 69.13 624.86 913.63 936.67 405.47 1186.58 420.40 971.10 605.02 960.76 752.42 1151.02 766.99
00003831 00000061 849.79 68.75 626.02 912.94 937.30 404.89 1188.67 420.89 972.60 603.89 959.73 751.21 1150.89 766.76
00003832 00000062 849.73 66.22 627.30 919.32 938.48 407.96 1188.95 422.70 972.96 603.95 962.38 753.77 1152.79 768.16
00003833 00000063 850.53 68.24 625.90 920.29 939.94 407.99 1188.08 422.76 973.07 604.37 963.89 754.21 1154.41 768.50
00003834 00000064 851.07 70.70 624.68 918.61 939.46 409.32 1186.37 422.41 971.61 602.76 964.51 755.53 1152.51 768.52
00003835 00000065 851.96 68.24 622.81 911.67 936.83 409.10 1184.63 421.39 970.47 604.47 962.99 754.39 1148.29 767.15
00003836 00000066 851.32 62.24 620.95 919.08 937.48 407.16 1183.20 420.99 971.92 604.88 964.16 750.63 1150.01 764.63
00003837 00000067 851.45 66.48 618.92 907.35 936.53 409.52 1180.29 422.63 972.47 603.53 963.79 743.65 1151.05 757.08
00003838 00000068 849.12 61.82 622.10 917.38 937.41 411.43 1178.88 422.60 972.38 600.58 964.50 743.81 1155.02 755.25
00003839 00000069 848.23 62.50 625.23 925.40 936.93 412.34 1177.28 420.29 969.01 599.46 968.58 750.95 1161.35 759.09
00003840 00000070 849.84 66.56 622.87 929.21 937.87 412.64 1176.18 423.63 966.56 605.06 970.38 753.54 1166.69 763.69
00003841 00000071 851.08 66.31 620.83 918.19 935.56 415.66 1180.03 424.48 968.92 607.96 963.88 757.43 1158.04 766.71
00003842 00000072 849.56 60.60 623.48 923.76 933.36 416.36 1182.93 428.62 970.93 616.35 961.51 762.14 1150.92 774.66
00003843 00000073 850.52 63.24 621.74 921.03 933.26 417.74 1183.61 431.77 972.53 620.90 960.27 763.56 1148.10 777.83
00003844 00000074 850.54 67.29 619.19 903.99 931.98 416.09 1185.64 431.35 973.81 619.68 956.46 759.42 1144.48 775.06
00003845 00000075 849.54 65.71 621.43 909.42 933.79 414.90 1183.21 432.32 970.05 616.52 955.16 755.26 1142.64 772.61
00003846 00000076 850.12 62.73 620.90 922.84 936.14 415.74 1180.86 433.39 967.21 613.36 958.94 754.98 1148.49 771.85
00003847 00000077 851.92 63.57 621.42 918.58 937.13 416.35 1182.33 432.79 967.34 610.07 958.84 753.17 1149.00 769.00
00003848 00000078 853.29 66.71 621.74 915.28 938.76 414.46 1184.94 432.09 968.76 609.27 959.82 753.14 1149.82 769.91
00003849 00000079 854.95 71.27 622.72 912.04 940.60 412.73 1186.77 429.90 970.52 610.04 963.42 755.66 1149.75 772.06
00003850 00000080 855.27 71.84 625.19 914.11 942.24 414.89 1187.33 427.45 972.73 609.10 966.60 760.28 1150.43 772.95
00003851 00000081 853.32 71.33 627.29 923.06 942.23 416.25 1186.19 427.23 973.68 610.58 969.63 764.76 1154.68 775.92
00003852 00000082 853.88 70.50 626.51 927.34 942.89 418.55 1185.86 429.61 974.99 612.41 972.83 765.34 1162.27 776.23
00003853 00000083 855.18 68.02 624.22 925.19 944.13 418.70 1185.58 430.43 975.97 613.21 974.68 762.24 1165.14 773.54
00003854 00000084 854.55 67.56 621.64 919.82 943.89 416.66 1186.44 431.37 977.77 614.23 971.88 757.22 1165.14 770.87
00003855 00000085 854.58 63.93 621.16 916.99 940.90 417.76 1185.56 431.75 976.00 614.58 968.48 756.64 1160.20 770.10
00003856 00000086 856.93 67.65 619.57 902.11 938.59 417.94 1187.17 433.59 974.45 617.78 964.23 755.22 1156.63 770.30
00003857 00000087 856.33 66.82 619.30 905.13 938.56 416.59 1187.99 433.99 974.71 617.75 962.91 754.31 1156.62 770.79
00003858 00000088 855.40 64.40 621.49 911.61 939.16 416.72 1187.81 434.94 973.78 617.21 962.74 754.44 1156.39 771.48
00003859 00000089 856.26 67.47 618.65 906.76 940.28 418.05 1187.85 436.08 975.99 618.48 964.36 753.42 1158.41 770.38
00003860 00000090 856.28 64.57 617.87 909.24 941.92 417.64 1186.78 436.58 976.21 615.78 964.41 749.61 1158.46 767.42
00003861 00000091 854.34 64.75 620.12 910.22 941.82 419.05 1185.59 436.09 976.94 615.10 966.56 750.20 1160.01 766.23
00003862 00000092 854.92 61.99 622.37 923.18 944.93 419.01 1185.21 434.50 977.28 612.70 972.22 753.29 1161.85 768.02
00003863 00000093 854.13 67.44 622.63 919.78 945.81 417.96 1184.83 432.29 979.48 612.78 975.99 753.68 1162.81 767.28
00003864 00000094 854.83 69.12 621.15 920.98 945.85 420.38 1185.49 433.92 979.40 613.49 974.06 756.30 1164.31 769.19
00003865 00000095 855.32 66.65 621.69 925.96 945.14 422.69 1185.36 435.32 978.22 613.98 974.29 759.19 1167.04 771.00
00003866 00000096 855.46 66.75 622.45 925.01 944.78 422.72 1185.53 434.93 978.73 615.21 974.78 758.83 1167.55 770.33
00003867 00000097 856.30 70.65 621.32 921.10 946.20 423.00 1185.67 435.62 979.14 614.92 975.74 759.15 1168.99 770.78
00003868 00000098 856.42 70.55 621.96 920.39 945.33 422.54 1185.64 435.49 978.64 615.46 974.34 758.74 1168.93 770.63
00003869 00000099 856.03 74.54 621.58 915.84 945.82 422.39 1186.18 436.07 979.18 616.36 974.39 757.64 1169.92 770.00
00003870 00000100 855.96 77.05 620.95 912.74 946.06 421.61 1187.80 435.94 980.42 617.61 973.51 757.15 1171.13 770.05
00003871 00000101 856.66 76.30 619.86 913.92 947.30 421.60 1187.81 437.90 980.81 619.49 974.35 755.38 1172.64 769.73
00003872 00000102 854.62 83.11 621.27 908.60 947.64 424.43 1189.25 442.22 981.68 620.02 972.35 755.53 1172.36 771.00
00003873 00000103 854.78 82.59 620.93 908.11 947.65 423.86 1189.47 441.25 982.81 620.60 972.91 755.37 1172.14 770.56
00003874 00000104 854.85 83.02 620.92 906.47 946.63 422.02 1190.08 439.09 983.62 622.40 973.33 755.04 1172.32 770.05
00003875 00000105 856.20 82.83 619.84 904.52 947.37 420.01 1189.48 438.12 984.14 622.83 974.18 752.86 1172.14 768.71
00003876 00000106 857.11 80.08 618.95 903.57 947.52 421.68 1189.50 438.02 986.07 623.45 974.63 753.18 1171.24 767.93
00003877 00000107 858.57 80.16 617.63 900.76 947.12 420.53 1189.26 437.79 984.43 623.20 974.38 750.62 1170.94 766.17
00003878 00000108 860.21 80.16 613.84 897.09 945.49 418.76 1189.63 437.97 983.16 624.35 971.41 748.49 1170.11 765.83
00003879 00000109 859.69 83.27 614.73 888.19 944.16 418.62 1190.85 438.06 983.78 623.94 970.01 747.06 1170.28 764.59
00003880 00000110 858.57 79.16 615.67 892.91 943.23 419.80 1191.80 437.83 984.72 622.88 968.76 748.94 1168.62 765.65
00003881 00000111 857.85 78.58 617.56 890.55 941.84 419.06 1192.44 435.59 985.24 621.55 968.01 750.34 1167.16 766.14
00003882 00000112 858.67 77.90 616.42 892.43 941.36 418.24 1192.70 434.69 984.54 621.09 967.03 752.37 1165.23 768.16
00003883 00000113 859.81 77.69 615.60 891.02 942.64 417.80 1193.43 434.11 985.00 619.99 968.09 752.43 1165.20 768.13
00003884 00000114 860.07 77.50 615.38 892.13 942.49 418.09 1192.04 433.90 984.37 619.60 968.78 753.62 1164.20 768.89
00003885 00000115 860.61 74.10 614.63 895.06 942.48 418.99 1192.29 433.51 985.09 618.73 969.80 754.04 1164.60 768.25
00003886 00000116 859.91 74.51 614.60 896.31 942.58 419.21 1193.60 432.66 986.71 618.04 970.17 756.38 1164.95 769.77
00003887 00000117 858.17 78.02 618.49 889.84 944.08 422.92 1195.47 438.10 986.31 620.09 969.20 755.88 1164.50 770.70
00003888 00000118 857.00 78.37 617.55 888.52 947.74 421.92 1190.97 438.02 988.14 619.91 973.34 753.12 1161.40 768.95
00003889 00000119 855.54 77.10 620.08 890.11 947.81 422.48 1193.94 437.61 992.02 622.04 973.92 754.76 1162.17 769.92
00003890 00000120 855.75 85.01 623.74 888.02 951.59 419.30 1202.98 429.51 1002.60 622.45 981.88 760.54 1170.63 771.75
00003891 00000121 858.82 83.01 623.69 891.33 958.43 418.83 1206.39 421.88 1012.95 619.09 999.51 766.04 1175.12 771.53
00003892 00000122 860.97 80.23 627.57 915.68 960.83 412.24 1209.13 410.39 1021.95 613.53 1012.42 775.44 1179.76 777.71
00003893 00000123 861.46 78.76 627.29 931.61 965.60 410.81 1215.44 409.15 1029.60 612.23 1015.52 779.43 1189.40 781.81
00003894 00000124 862.71 86.55 624.45 925.69 967.89 409.67 1217.13 405.33 1032.63 607.64 1017.29 778.05 1192.79 778.10
00003895 00000125 862.51 90.99 625.41 920.22 969.33 408.69 1220.04 405.87 1034.60 606.62 1015.98 773.97 1195.84 774.80
00003896 00000126 863.16 86.55 621.56 913.05 968.60 406.34 1221.69 404.08 1035.00 605.89 1014.76 769.99 1194.20 771.47
00003897 00000127 867.32 85.58 611.70 895.94 967.16 405.75 1225.25 404.97 1034.72 607.00 1010.52 761.64 1201.31 763.68
00003898 00000128 867.76 82.19 611.98 891.68 966.56 408.99 1222.28 412.87 1030.30 608.73 1002.04 750.75 1201.46 756.29
00003899 00000129 864.94 84.85 615.75 885.37 963.04 411.85 1220.13 413.16 1029.28 610.44 1002.65 751.10 1201.62 754.47
CROP_BBOX: 487 0 1823 1080
