Video ID: 	aA_vyjeUclQ
H: 	2160
W: 	3840
FPS: 	25.0

FRAME INDEX X0 Y0 W H [Landmarks (5 Points)]

00038571 00000000 2291.49 306.13 506.21 751.64 2403.58 598.73 2624.17 655.12 2451.30 777.43 2370.54 820.90 2598.72 863.83
00038572 DELETE   2290.82 304.78 508.66 743.75 2404.38 596.05 2625.72 653.19 2452.70 773.49 2370.51 816.64 2598.38 860.37
00038573 00000002 2294.23 302.58 512.36 749.18 2409.48 598.81 2632.85 654.64 2458.80 775.13 2376.38 821.20 2604.06 864.15
00038574 00000003 2300.57 304.48 514.94 755.01 2417.44 607.90 2642.57 658.96 2471.56 780.86 2387.25 828.58 2615.61 867.85
00038575 DELETE   2306.14 311.21 516.00 754.10 2425.68 612.61 2652.29 666.12 2481.71 787.53 2394.27 830.16 2625.54 870.98
00038576 00000005 2314.87 322.50 510.64 746.30 2430.13 620.95 2656.17 681.76 2483.44 806.08 2401.86 832.37 2631.86 877.99
00038577 00000006 2314.29 328.15 514.38 741.79 2431.83 624.82 2655.19 691.48 2481.24 814.05 2399.18 836.95 2626.72 887.18
00038578 DELETE   2315.64 329.82 514.78 742.63 2432.01 627.25 2654.39 696.86 2477.09 811.41 2395.74 838.29 2624.08 891.00
00038579 00000008 2319.48 330.91 514.15 738.98 2436.58 628.66 2659.45 700.58 2481.90 810.03 2399.20 838.06 2625.25 892.57
00038580 DELETE   2326.44 335.38 509.13 732.74 2449.18 631.73 2670.87 700.65 2496.87 804.32 2401.94 835.63 2624.91 890.81
00038581 00000010 2344.02 332.35 501.62 739.21 2464.51 629.90 2680.79 701.29 2507.70 810.25 2416.85 837.61 2635.15 894.70
00038582 00000011 2352.02 332.96 503.28 741.73 2471.91 630.96 2690.02 700.78 2517.33 810.89 2428.04 841.18 2645.64 896.64
00038583 00000012 2355.86 329.03 502.12 746.66 2474.83 630.87 2693.67 700.48 2521.04 812.47 2432.46 841.14 2651.08 895.93
00038584 00000013 2355.51 331.98 506.06 746.97 2475.41 631.88 2695.11 702.31 2520.51 814.14 2432.06 842.75 2652.15 898.08
00038585 00000014 2357.34 337.32 503.43 742.23 2476.72 631.66 2696.61 704.78 2521.37 816.03 2431.99 842.93 2652.44 900.25
00038586 00000015 2356.92 337.35 507.80 746.90 2480.33 630.87 2702.42 705.92 2527.22 820.40 2433.44 843.97 2656.27 902.88
00038587 00000016 2363.56 337.29 509.41 747.96 2486.15 635.13 2711.24 710.86 2535.93 822.63 2440.52 847.18 2661.66 906.12
00038588 00000017 2367.35 337.94 513.32 747.08 2493.91 633.45 2721.31 714.45 2546.03 824.99 2444.12 845.00 2666.81 908.28
00038589 00000018 2370.94 336.94 515.93 739.58 2501.09 628.09 2728.74 716.02 2553.27 821.52 2447.87 835.77 2669.27 904.52
00038590 00000019 2373.21 336.15 516.22 734.00 2502.86 619.94 2729.42 711.11 2550.08 818.50 2448.46 827.00 2673.59 898.32
00038591 00000020 2374.76 329.18 516.07 735.40 2504.53 609.54 2726.04 704.58 2545.37 812.18 2448.85 819.39 2669.64 894.14
00038592 DELETE   2376.65 319.36 517.67 743.33 2507.23 605.67 2726.87 700.22 2545.42 805.98 2453.03 817.23 2672.03 891.62
00038593 00000022 2382.39 308.95 519.67 747.44 2510.32 601.26 2732.10 693.92 2554.20 800.53 2462.08 814.72 2678.24 887.24
00038594 00000023 2387.59 294.48 521.66 746.58 2514.48 594.60 2738.51 675.19 2564.92 777.90 2464.40 808.99 2679.34 873.30
00038595 00000024 2381.94 290.69 523.81 738.33 2511.13 580.89 2740.19 665.50 2562.73 763.58 2459.75 796.37 2677.25 864.19
00038596 00000025 2372.96 284.56 530.61 737.55 2510.89 563.57 2738.20 656.01 2557.19 745.08 2451.46 785.53 2663.44 860.12
00038597 00000026 2373.51 273.93 523.20 739.82 2507.68 552.66 2728.80 642.78 2548.95 733.47 2449.92 775.54 2656.23 848.34
00038598 00000027 2374.44 265.78 519.15 748.63 2505.79 543.25 2720.25 630.33 2540.29 720.38 2448.25 770.53 2652.98 841.69
00038599 00000028 2374.16 258.19 515.59 751.15 2503.49 532.64 2716.71 613.60 2537.60 710.79 2448.70 761.53 2659.36 828.33
00038600 00000029 2375.48 250.50 510.93 754.05 2503.38 521.72 2719.29 594.52 2538.83 697.97 2445.57 751.80 2661.75 812.43
00038601 00000030 2374.29 252.46 510.56 750.22 2504.64 511.10 2718.74 584.37 2540.80 695.13 2450.57 751.57 2662.75 813.06
00038602 00000031 2374.94 248.90 507.45 752.77 2507.01 507.77 2722.14 577.45 2547.62 686.65 2454.91 752.14 2664.12 811.10
00038603 00000032 2376.35 247.13 506.10 746.75 2508.90 505.15 2725.66 575.64 2550.77 682.94 2458.52 746.34 2667.71 805.44
00038604 00000033 2381.14 236.20 503.59 750.16 2507.62 504.09 2725.28 572.52 2553.18 676.96 2458.64 740.89 2667.93 798.03
00038605 00000034 2378.44 230.18 505.70 752.01 2504.96 498.85 2724.11 566.73 2548.96 666.81 2456.16 736.81 2666.51 793.52
00038606 00000035 2375.01 231.53 507.24 747.08 2500.07 496.66 2719.50 565.20 2542.06 668.45 2451.97 734.77 2664.06 791.38
00038607 00000036 2368.69 230.74 507.94 744.16 2493.74 496.32 2714.59 565.61 2536.78 669.72 2444.49 736.02 2654.24 793.53
00038608 00000037 2365.35 240.48 506.14 722.56 2493.02 495.37 2711.91 569.13 2533.04 667.78 2440.45 731.34 2647.06 791.23
00038609 00000038 2361.98 241.52 506.36 720.48 2488.33 497.48 2706.86 568.56 2529.60 670.27 2437.44 731.76 2644.84 789.34
00038610 00000039 2356.06 241.11 508.49 726.74 2479.69 503.94 2703.46 571.11 2523.43 673.59 2429.94 738.03 2645.60 792.44
00038611 00000040 2355.84 243.09 502.47 726.77 2475.20 512.62 2694.58 575.83 2516.07 677.71 2427.38 744.33 2642.44 795.38
00038612 00000041 2348.21 248.26 504.52 731.95 2464.64 529.87 2686.05 587.56 2510.35 681.15 2417.85 754.97 2631.39 804.75
00038613 00000042 2347.53 253.88 502.04 727.78 2460.64 535.27 2680.23 587.49 2506.10 680.23 2418.88 761.46 2624.45 807.14
00038614 00000043 2352.53 256.74 496.48 722.01 2465.71 530.91 2674.10 585.18 2503.22 681.91 2427.61 756.55 2629.78 801.31
00038615 00000044 2357.48 255.27 496.96 722.60 2470.24 526.75 2679.63 578.30 2507.65 682.48 2434.42 758.00 2638.80 800.07
00038616 00000045 2359.32 254.59 499.15 725.33 2474.08 526.69 2686.29 576.44 2513.57 683.38 2440.26 757.76 2646.52 798.32
00038617 00000046 2361.23 253.12 500.64 740.54 2471.88 535.69 2690.14 578.90 2520.92 687.12 2439.51 764.38 2654.65 801.36
00038618 00000047 2365.92 254.82 491.12 733.80 2470.00 547.05 2687.87 586.28 2520.41 688.95 2442.81 770.63 2649.81 805.16
00038619 00000048 2352.35 253.07 493.00 723.44 2454.64 546.87 2676.68 578.34 2510.73 682.09 2432.49 768.30 2642.67 796.02
00038620 DELETE   2332.31 246.60 498.77 727.90 2435.51 535.59 2658.42 565.83 2495.40 676.69 2416.56 763.79 2633.31 790.72
00038621 00000050 2320.44 241.81 494.15 726.43 2416.10 524.93 2632.46 550.07 2466.43 666.53 2404.13 764.51 2605.19 787.46
00038622 00000051 2305.04 250.53 490.42 714.02 2401.68 524.85 2604.47 543.84 2440.63 656.48 2398.31 764.18 2577.26 780.56
00038623 DELETE   2305.13 247.81 478.23 712.86 2380.68 531.12 2571.11 535.82 2409.99 645.53 2384.73 772.49 2555.46 777.56
00038624 DELETE   2299.16 245.67 470.57 711.34 2360.71 540.77 2545.30 531.26 2377.30 643.89 2370.50 776.57 2538.23 769.28
00038625 DELETE   2282.75 246.30 469.72 708.51 2335.11 543.54 2509.62 526.89 2344.29 645.57 2356.94 780.15 2519.70 767.85
00038626 00000055 2270.08 257.68 455.02 695.17 2319.70 549.26 2485.51 529.10 2323.98 637.78 2340.65 777.23 2493.50 761.53
00038627 00000056 2257.35 258.57 460.86 696.79 2305.81 550.84 2471.53 523.87 2309.39 638.29 2328.15 782.54 2479.77 761.77
00038628 00000057 2252.14 258.00 462.85 698.47 2301.33 549.56 2469.06 517.19 2305.55 632.29 2326.28 782.16 2478.61 756.98
00038629 00000058 2246.69 253.22 466.94 702.57 2298.96 547.56 2472.67 513.75 2309.22 628.56 2324.81 778.82 2483.44 753.02
00038630 00000059 2242.92 249.11 470.37 706.03 2298.68 542.18 2479.53 509.20 2316.03 625.25 2327.19 775.21 2489.41 750.37
00038631 00000060 2242.11 246.45 471.67 708.87 2300.01 536.88 2485.44 506.74 2322.79 626.26 2329.82 773.92 2495.71 751.25
00038632 00000061 2241.20 242.03 470.78 712.60 2299.67 533.48 2484.86 504.36 2321.85 624.98 2328.53 772.62 2494.13 750.76
00038633 00000062 2236.48 234.31 474.03 717.74 2297.97 527.70 2485.29 502.04 2322.13 621.36 2323.41 766.57 2490.63 747.54
00038634 00000063 2233.17 228.20 475.82 722.11 2297.36 520.07 2488.24 497.91 2325.14 620.14 2322.15 761.68 2491.94 745.29
00038635 00000064 2230.19 226.45 477.43 724.94 2297.45 518.86 2493.97 499.56 2332.61 619.53 2320.64 758.97 2496.76 745.03
00038636 00000065 2228.68 231.31 474.83 725.23 2297.49 521.46 2494.01 505.16 2333.79 625.61 2319.65 760.19 2498.91 748.23
00038637 00000066 2224.67 236.27 475.14 723.31 2294.37 528.78 2490.46 515.58 2329.57 629.92 2311.20 761.46 2493.40 752.07
00038638 00000067 2219.64 231.37 477.83 728.56 2291.42 535.46 2487.74 523.99 2325.48 631.36 2303.74 761.50 2488.48 753.90
00038639 00000068 2213.30 233.80 484.80 721.48 2290.14 531.75 2484.34 525.33 2319.98 636.85 2301.40 752.32 2483.98 748.37
00038640 00000069 2209.16 238.40 488.70 709.34 2287.26 536.22 2483.34 530.64 2319.52 644.99 2297.91 754.08 2478.71 750.87
00038641 00000070 2209.41 237.78 488.51 708.28 2287.60 538.68 2483.77 533.52 2319.31 648.79 2299.30 757.22 2476.10 754.18
00038642 00000071 2210.94 236.63 489.89 714.89 2289.19 537.67 2486.17 532.91 2320.34 648.14 2300.55 759.87 2478.43 757.36
00038643 00000072 2218.15 239.14 482.54 719.17 2294.10 540.55 2492.29 536.09 2332.01 646.49 2307.23 769.06 2484.08 767.48
00038644 00000073 2220.41 241.59 481.78 728.64 2296.17 542.46 2494.80 539.05 2336.36 650.60 2309.22 776.18 2487.58 775.68
00038645 00000074 2212.98 244.38 487.15 727.15 2295.49 540.24 2488.03 538.72 2327.34 659.77 2307.79 772.62 2479.40 772.63
00038646 00000075 2204.05 248.02 485.18 724.36 2287.94 541.80 2480.82 541.02 2317.18 663.06 2297.16 773.29 2471.50 773.25
00038647 00000076 2192.01 248.49 485.72 725.04 2273.97 543.06 2468.96 543.44 2309.91 669.20 2284.63 776.12 2461.48 776.85
00038648 00000077 2188.59 253.20 480.97 723.46 2264.26 552.26 2466.58 554.66 2309.78 678.51 2272.87 784.09 2460.22 789.00
00038649 00000078 2184.95 254.73 489.62 728.79 2264.67 557.97 2467.45 561.45 2311.03 690.03 2276.44 794.01 2466.74 797.61
00038650 00000079 2196.19 267.47 485.56 715.46 2272.56 571.13 2482.33 576.21 2319.43 693.84 2278.01 797.97 2471.22 805.15
00038651 00000080 2207.72 273.37 483.64 718.41 2287.30 577.83 2484.90 576.53 2319.44 698.09 2293.58 804.82 2476.83 804.42
00038652 00000081 2209.44 277.22 486.42 720.75 2291.55 579.81 2486.60 581.29 2324.58 702.50 2296.08 808.04 2473.75 810.03
00038653 00000082 2209.43 277.51 482.18 724.75 2291.51 580.62 2486.88 583.60 2322.05 704.50 2293.16 809.06 2475.43 811.99
00038654 00000083 2201.27 278.74 487.15 721.80 2282.67 578.37 2483.49 587.12 2320.35 706.43 2284.07 807.07 2472.17 814.81
00038655 00000084 2191.31 282.33 489.93 716.54 2273.30 580.73 2476.27 589.16 2313.30 709.89 2275.22 807.37 2467.35 814.73
00038656 00000085 2185.75 281.85 491.61 716.67 2270.03 581.06 2472.03 588.95 2310.71 709.55 2273.46 807.12 2464.61 814.03
00038657 00000086 2190.08 280.15 491.26 722.58 2273.83 577.56 2474.25 586.85 2314.10 709.22 2278.81 807.70 2465.93 815.59
00038658 00000087 2204.49 278.11 485.33 727.33 2285.28 575.31 2482.03 586.50 2318.92 705.28 2288.92 806.79 2469.12 816.22
00038659 00000088 2212.10 278.60 484.64 723.65 2293.72 575.59 2490.33 579.39 2329.75 705.01 2298.95 807.25 2480.53 810.92
00038660 00000089 2218.57 274.87 481.99 723.40 2298.95 571.45 2495.79 575.45 2336.83 703.21 2304.99 802.88 2487.46 806.45
00038661 00000090 2219.37 275.41 484.01 723.34 2300.31 569.69 2498.34 574.65 2339.09 703.94 2305.67 802.99 2490.44 807.19
00038662 00000091 2218.72 273.05 482.92 728.94 2299.95 571.89 2498.68 579.06 2337.86 707.61 2303.20 804.60 2490.14 810.66
00038663 00000092 2216.12 272.58 483.40 730.92 2299.00 572.24 2498.69 582.34 2336.77 708.70 2298.58 804.30 2488.71 812.92
00038664 00000093 2215.90 273.84 484.34 729.41 2300.08 568.56 2501.48 580.56 2339.97 708.91 2299.59 803.86 2488.85 813.74
00038665 00000094 2219.61 271.22 482.99 729.42 2304.53 564.71 2507.54 578.20 2344.62 707.53 2304.75 801.47 2494.27 812.21
00038666 00000095 2223.51 269.45 487.29 728.43 2312.38 556.93 2516.34 572.74 2352.73 704.50 2312.40 798.23 2502.72 810.54
00038667 00000096 2231.43 266.38 487.97 729.95 2324.76 552.65 2529.97 572.12 2364.93 702.77 2323.16 795.39 2514.40 810.29
00038668 00000097 2240.86 269.22 491.36 730.19 2335.85 549.91 2539.58 572.82 2375.01 703.13 2329.77 792.58 2524.25 810.81
00038669 00000098 2250.45 264.96 488.77 736.63 2339.50 561.68 2547.95 585.46 2382.11 703.77 2333.56 792.04 2532.44 811.92
00038670 00000099 2253.13 260.35 489.23 741.55 2342.61 559.06 2551.41 584.93 2383.52 702.30 2335.70 790.64 2534.65 812.03
00038671 00000100 2253.81 257.63 488.80 744.51 2344.97 551.23 2551.98 577.21 2385.37 697.86 2336.83 787.53 2537.19 808.77
00038672 00000101 2257.26 250.88 488.54 748.28 2349.36 540.52 2554.16 569.08 2387.26 694.77 2338.87 784.21 2538.40 807.17
00038673 00000102 2261.47 247.69 490.39 748.83 2353.47 538.32 2561.51 566.78 2396.82 690.60 2344.46 782.30 2543.00 805.54
00038674 00000103 2270.71 248.55 484.46 741.54 2367.70 536.55 2568.79 565.62 2405.15 689.22 2351.71 776.21 2544.77 799.68
00038675 00000104 2278.24 252.47 487.09 740.95 2379.59 533.87 2578.44 563.58 2417.99 687.81 2362.54 776.48 2555.81 800.59
00038676 00000105 2283.28 252.44 485.35 746.54 2387.31 533.01 2587.55 564.32 2426.84 691.75 2368.11 777.50 2565.78 802.76
00038677 00000106 2284.67 253.97 488.81 746.00 2392.19 533.81 2594.27 564.80 2434.60 688.22 2372.61 777.86 2571.87 803.22
00038678 00000107 2285.81 254.69 488.76 745.09 2395.37 533.70 2598.85 566.32 2438.43 689.00 2374.77 777.68 2575.18 804.28
00038679 00000108 2286.79 256.56 489.76 749.04 2398.45 536.38 2602.81 569.42 2442.65 693.61 2377.95 782.59 2578.01 809.35
00038680 00000109 2288.23 260.55 495.49 751.92 2402.56 539.56 2610.14 572.92 2451.41 695.73 2382.19 788.02 2583.12 815.42
00038681 00000110 2290.51 260.25 502.39 756.59 2406.15 544.07 2623.83 577.07 2461.86 698.99 2386.11 792.63 2594.24 820.23
00038682 00000111 2298.12 262.26 500.07 752.87 2412.70 546.06 2637.45 576.32 2476.57 697.89 2390.12 790.60 2607.87 818.58
00038683 00000112 2299.18 262.10 502.31 756.11 2417.37 546.99 2641.63 578.74 2481.90 700.17 2392.42 790.50 2611.07 819.79
00038684 00000113 2300.51 263.51 502.43 752.48 2419.85 546.87 2643.68 577.90 2485.89 700.46 2396.71 792.27 2610.50 821.25
00038685 00000114 2301.96 263.38 503.24 749.05 2422.37 546.72 2647.67 578.42 2491.19 699.09 2399.33 791.97 2611.13 821.82
00038686 00000115 2316.45 274.92 494.03 731.57 2427.20 550.18 2650.35 581.29 2498.90 689.91 2411.95 795.66 2606.27 822.51
00038687 00000116 2318.28 274.39 494.98 731.22 2432.19 550.03 2653.43 578.72 2505.75 690.40 2420.19 798.40 2606.13 823.28
00038688 00000117 2321.16 271.59 491.97 726.41 2433.84 548.89 2656.15 576.92 2510.04 688.98 2423.22 792.78 2608.67 817.18
00038689 00000118 2315.45 265.15 496.09 733.83 2433.52 544.66 2658.34 571.93 2507.31 691.66 2417.76 792.46 2614.33 818.90
00038690 00000119 2315.73 264.77 492.60 730.57 2432.51 542.00 2659.79 568.09 2509.46 687.68 2416.97 789.39 2615.01 814.91
00038691 00000120 2315.71 263.79 491.89 729.56 2431.62 541.77 2660.19 565.06 2511.39 685.61 2419.44 790.07 2615.57 813.21
00038692 00000121 2316.21 265.02 490.63 725.52 2431.13 541.60 2661.51 562.14 2513.67 682.06 2421.36 788.90 2618.29 809.71
00038693 00000122 2317.22 274.77 489.15 709.06 2432.22 545.63 2661.96 567.14 2518.72 678.25 2429.53 787.50 2614.06 807.99
00038694 00000123 2314.22 282.54 487.13 703.10 2421.30 553.72 2656.26 570.69 2511.31 679.56 2426.76 795.38 2610.46 811.71
00038695 00000124 2308.28 275.67 487.31 718.12 2419.08 566.02 2651.06 576.15 2508.65 681.81 2420.67 804.34 2613.84 816.09
00038696 00000125 2303.35 285.56 491.80 706.95 2412.98 569.09 2646.93 578.70 2505.93 684.89 2422.17 804.13 2608.63 814.95
00038697 00000126 2299.55 290.61 497.20 705.70 2409.24 570.41 2648.08 581.59 2504.67 688.43 2418.02 810.06 2607.35 822.07
00038698 00000127 2296.49 292.97 497.66 713.41 2409.21 574.54 2643.27 582.35 2501.03 694.55 2414.80 813.84 2611.05 822.67
00038699 00000128 2292.96 297.11 496.93 716.53 2406.12 577.56 2639.98 584.93 2498.88 701.28 2409.66 818.76 2610.06 826.84
00038700 00000129 2291.05 299.48 493.53 713.95 2401.91 577.86 2634.38 586.08 2491.45 703.41 2405.89 822.82 2599.79 831.64
00038701 00000130 2288.21 302.42 490.03 717.62 2399.01 579.59 2629.05 588.83 2483.74 706.73 2400.89 829.05 2594.08 838.73
00038702 00000131 2283.34 302.64 492.45 721.98 2395.47 583.37 2626.77 592.24 2480.54 710.33 2397.76 830.77 2594.69 840.08
00038703 00000132 2282.15 306.40 492.02 720.01 2394.82 587.94 2625.25 596.94 2479.91 716.83 2395.71 833.50 2594.14 842.71
00038704 00000133 2281.90 309.83 492.65 721.34 2394.30 593.19 2623.62 602.39 2478.24 723.61 2395.30 837.54 2593.45 846.76
00038705 00000134 2281.14 314.20 494.22 720.47 2394.89 597.77 2623.19 606.77 2478.78 728.00 2397.46 841.95 2592.71 850.85
00038706 00000135 2280.70 317.09 493.59 718.54 2392.81 599.26 2622.70 608.25 2476.82 729.96 2394.81 843.65 2594.00 852.37
00038707 00000136 2277.94 316.57 494.96 720.34 2389.82 600.22 2622.98 608.56 2474.90 730.77 2390.67 842.60 2596.57 850.67
00038708 00000137 2275.28 314.34 496.87 720.82 2387.75 600.51 2619.36 608.50 2473.12 729.83 2389.77 840.75 2593.24 848.58
00038709 00000138 2278.98 310.43 496.73 720.06 2383.27 596.65 2614.31 605.01 2469.38 726.29 2390.63 839.80 2590.05 848.67
00038710 00000139 2279.50 307.65 495.27 719.69 2385.60 590.99 2614.73 600.58 2470.49 722.28 2392.45 836.73 2587.78 846.66
00038711 00000140 2283.51 306.23 492.29 718.87 2387.60 588.01 2615.44 595.61 2472.77 717.29 2394.80 835.31 2591.26 843.99
00038712 00000141 2285.25 306.78 491.68 709.44 2388.79 583.20 2617.49 591.40 2475.52 712.56 2395.31 829.34 2593.28 838.78
00038713 00000142 2281.99 299.14 494.93 716.71 2389.38 578.25 2612.21 586.67 2471.61 708.06 2395.52 818.74 2592.73 827.39
00038714 00000143 2282.16 295.93 493.75 716.92 2388.57 574.92 2611.89 582.99 2471.89 703.56 2395.09 816.92 2591.11 825.58
00038715 00000144 2282.93 296.69 492.17 714.38 2387.95 573.21 2612.24 581.17 2471.05 701.77 2394.75 815.94 2591.00 824.53
00038716 00000145 2282.95 296.74 492.50 713.05 2387.79 572.23 2612.62 580.41 2471.44 701.76 2395.03 815.53 2591.08 824.22
00038717 00000146 2283.39 294.99 492.68 712.11 2387.70 571.47 2613.33 579.77 2471.94 701.06 2394.80 815.15 2590.87 824.07
00038718 00000147 2283.79 293.93 493.32 713.62 2388.31 571.29 2613.62 579.43 2472.33 701.25 2395.00 815.50 2591.54 824.32
00038719 00000148 2284.36 293.90 493.33 716.14 2388.97 571.47 2614.29 579.74 2472.75 701.22 2395.56 816.74 2591.74 825.70
00038720 00000149 2283.67 295.60 493.83 713.46 2390.01 569.83 2623.68 578.73 2475.79 699.02 2395.24 818.23 2591.17 827.55
00038721 00000150 2283.00 298.19 495.39 719.80 2391.83 570.18 2624.22 579.29 2476.26 698.53 2394.63 820.90 2592.36 830.36
00038722 00000151 2283.57 300.78 492.90 730.16 2393.93 571.47 2623.14 579.85 2475.67 699.46 2396.29 825.94 2594.07 834.73
00038723 00000152 2284.45 300.50 490.63 741.43 2395.01 571.75 2622.48 579.87 2475.70 700.29 2398.00 829.45 2595.24 837.97
00038724 00000153 2284.20 298.31 490.17 746.04 2394.45 571.54 2622.68 579.55 2475.30 701.40 2397.02 829.97 2596.69 838.33
00038725 00000154 2282.97 299.94 490.96 740.62 2392.72 572.35 2622.97 580.63 2474.60 702.23 2394.45 829.51 2598.68 838.07
00038726 00000155 2282.29 296.45 496.32 741.65 2390.26 576.30 2615.14 584.94 2470.38 706.09 2394.06 826.17 2600.70 835.19
00038727 00000156 2279.16 295.74 495.52 736.72 2392.91 575.62 2622.64 587.39 2474.24 709.85 2392.23 827.59 2596.47 838.86
00038728 00000157 2281.53 298.98 493.98 735.74 2393.45 582.19 2619.28 593.88 2470.53 723.08 2392.02 831.39 2595.82 841.94
00038729 00000158 2280.82 304.82 493.65 737.60 2389.15 602.18 2611.41 612.26 2467.14 736.48 2390.98 841.93 2591.88 851.57
00038730 00000159 2277.59 311.82 496.54 742.77 2382.31 623.80 2604.99 630.12 2460.47 754.26 2387.46 851.98 2594.55 857.68
00038731 00000160 2275.97 318.60 495.71 746.31 2375.93 631.30 2599.73 644.49 2450.54 776.77 2380.39 862.98 2587.54 873.29
00038732 00000161 2284.32 330.25 475.95 740.06 2375.52 650.15 2591.25 666.25 2447.52 796.08 2383.64 877.12 2578.61 890.48
00038733 00000162 2280.40 334.20 484.86 745.96 2364.26 652.05 2586.77 668.40 2436.96 797.66 2378.34 883.60 2577.78 895.96
