Video ID: 	YfTdrUY6I-c
H: 	1080
W: 	1920
FPS: 	24.0

FRAME INDEX X0 Y0 W H [Landmarks (5 Points)]

00008904 00000000 663.53 235.60 346.78 529.92 802.40 492.37 942.56 458.04 935.72 539.45 861.75 661.37 974.59 634.17
00008905 DELETE   660.92 236.03 350.18 525.67 800.18 485.14 942.85 456.43 933.78 531.28 858.66 653.28 973.83 630.12
00008906 00000002 658.50 233.76 350.36 526.22 805.01 476.84 940.88 453.88 935.77 527.18 858.35 646.51 970.10 628.04
00008907 00000003 660.82 226.00 348.95 533.88 806.72 468.02 944.92 451.52 934.99 524.96 852.37 640.67 965.86 627.82
00008908 00000004 660.59 223.57 350.70 532.31 809.19 466.44 949.94 452.11 938.16 525.39 852.18 639.25 967.01 628.50
00008909 DELETE   664.42 223.00 347.73 529.23 811.25 465.85 954.61 452.98 942.21 524.88 853.31 637.55 970.76 627.95
00008910 DELETE   666.16 224.38 347.92 526.77 811.68 464.03 958.32 452.23 944.25 525.91 852.74 636.89 973.01 628.09
00008911 DELETE   664.38 224.00 350.50 533.39 812.91 462.75 957.00 449.96 944.33 525.08 853.24 637.86 971.71 628.19
00008912 00000008 667.05 224.17 346.91 536.45 813.68 463.73 955.31 451.44 942.47 526.63 852.23 638.63 969.02 629.42
00008913 00000009 667.25 225.28 347.07 538.10 814.62 466.25 955.27 453.91 942.95 528.57 851.29 639.59 969.22 630.53
00008914 00000010 665.36 226.76 348.58 539.22 816.37 468.54 955.74 457.26 944.97 531.32 851.14 641.52 969.05 633.32
00008915 00000011 667.10 231.37 347.52 535.80 818.01 470.71 959.63 459.80 947.15 536.43 850.11 643.26 969.41 635.50
00008916 00000012 669.41 233.08 345.61 534.06 817.45 470.86 961.09 459.59 947.25 537.69 849.53 643.65 970.25 635.70
00008917 00000013 668.65 234.21 346.73 532.99 817.89 470.24 961.89 459.51 947.21 539.55 849.21 644.32 969.24 636.93
00008918 00000014 667.56 235.06 348.10 533.09 818.91 470.39 962.46 459.89 948.24 541.63 850.26 645.51 968.79 638.19
00008919 00000015 667.78 234.43 349.74 534.63 819.66 471.89 963.95 461.67 949.27 543.75 849.68 646.72 969.35 639.80
00008920 00000016 669.95 232.38 348.19 536.82 821.04 472.92 964.64 463.26 949.99 545.23 849.60 647.25 968.90 640.93
00008921 00000017 672.87 233.53 346.21 535.23 821.24 473.91 966.11 464.12 950.46 546.27 849.92 648.18 970.25 641.88
00008922 00000018 672.37 235.11 346.21 533.32 821.94 474.58 966.32 463.85 950.90 546.80 850.49 647.96 969.96 640.90
00008923 00000019 670.85 236.57 348.34 531.73 821.95 473.88 968.17 462.72 952.24 546.90 851.77 648.49 972.16 640.87
00008924 00000020 670.35 236.87 349.31 531.87 822.58 473.76 968.87 462.97 953.34 547.09 852.10 648.51 972.48 641.17
00008925 DELETE   671.94 236.63 348.67 533.35 823.05 474.82 969.84 464.06 954.06 548.61 851.19 649.71 972.79 642.59
00008926 00000022 671.23 238.68 349.30 530.84 822.29 475.21 970.42 464.48 953.32 549.65 850.52 650.36 972.33 643.28
00008927 00000023 672.39 238.22 349.23 530.11 822.00 476.62 971.90 464.69 953.45 551.90 852.44 652.32 974.80 644.10
00008928 DELETE   671.68 239.11 350.23 530.46 822.54 476.74 972.14 464.80 954.19 552.54 852.74 652.67 974.93 644.34
00008929 00000025 670.45 240.90 351.31 531.27 824.52 477.12 972.43 465.48 956.11 551.66 853.23 652.11 975.03 644.03
00008930 00000026 671.13 241.30 351.23 532.22 825.50 477.40 972.95 466.40 957.11 551.69 852.50 651.99 974.97 644.62
00008931 DELETE   671.80 241.07 352.38 530.61 826.68 475.45 974.27 464.81 957.42 551.69 852.12 650.35 975.17 643.27
00008932 DELETE   671.46 240.62 352.68 530.09 827.04 474.58 975.19 464.26 958.23 552.29 853.16 650.75 975.48 643.85
00008933 00000029 669.77 240.41 354.17 530.03 826.94 473.74 975.55 463.91 958.46 551.75 854.66 651.16 975.91 644.42
00008934 00000030 669.23 240.21 354.43 529.43 826.68 473.48 975.61 463.47 957.96 550.71 855.68 650.87 976.47 643.82
00008935 00000031 669.95 238.06 353.63 529.16 825.26 473.62 976.54 463.90 957.73 551.55 855.90 652.09 977.69 645.32
00008936 00000032 667.15 236.44 355.67 530.66 823.73 472.47 974.53 463.28 956.68 549.26 855.81 650.75 976.83 644.24
00008937 DELETE   665.57 229.90 356.77 535.87 822.02 470.33 971.58 460.68 954.07 547.29 853.90 648.88 974.03 641.96
00008938 00000034 668.11 226.80 353.24 538.04 819.91 466.82 969.66 457.66 949.87 545.61 850.94 647.55 970.44 641.18
00008939 00000035 662.58 220.19 354.35 537.25 816.15 460.91 958.55 448.46 943.45 535.20 861.61 646.01 966.77 636.48
00008940 00000036 663.75 215.06 352.24 541.17 815.37 458.95 956.58 447.93 943.16 532.56 860.75 644.58 965.18 636.46
00008941 00000037 660.45 212.04 356.72 541.61 813.60 454.13 957.94 444.25 940.98 530.86 858.22 642.73 963.15 635.32
00008942 00000038 664.39 211.31 356.32 535.43 811.19 450.49 961.75 440.22 939.16 530.22 854.16 639.84 964.50 632.13
00008943 00000039 665.27 207.54 368.64 535.92 815.63 448.47 976.59 439.52 941.32 529.09 855.21 635.32 976.48 627.72
00008944 00000040 668.86 208.89 369.39 533.90 821.27 447.19 979.35 440.76 947.13 524.81 858.37 631.84 978.58 626.74
00008945 00000041 674.77 206.86 366.19 536.66 823.41 444.43 982.95 438.89 948.53 524.42 858.65 631.55 980.47 627.38
00008946 00000042 672.66 202.83 365.43 540.09 829.76 437.20 984.98 433.73 951.40 519.10 869.43 628.10 979.79 625.73
00008947 00000043 675.85 199.87 361.87 537.91 829.16 444.88 983.55 431.94 952.89 522.36 875.62 631.99 985.44 621.82
00008948 00000044 675.02 200.96 360.45 534.36 825.73 446.13 981.42 430.65 950.62 522.34 878.03 632.58 988.78 620.03
00008949 DELETE   670.85 202.64 364.12 533.49 820.89 448.06 980.66 427.05 948.84 523.81 876.84 633.72 991.44 616.43
00008950 00000046 673.13 206.38 366.53 530.56 816.46 461.83 975.27 433.04 946.31 529.50 865.07 638.10 986.49 614.78
00008951 00000047 678.43 210.65 360.61 531.13 808.54 473.46 967.44 434.43 936.06 536.58 861.84 646.43 984.78 614.25
00008952 00000048 679.02 216.02 361.17 523.96 813.20 460.29 962.39 431.07 928.27 534.49 869.54 636.28 979.08 612.91
00008953 00000049 678.55 220.45 360.55 521.22 809.03 463.56 959.94 433.39 923.91 539.62 866.68 640.07 978.15 616.19
00008954 00000050 680.89 221.16 357.33 524.08 803.62 467.46 957.91 434.50 920.33 546.85 860.47 644.34 979.60 618.38
00008955 00000051 687.03 227.74 345.50 521.75 796.35 487.08 956.15 444.37 921.41 551.74 852.66 660.16 978.52 625.72
00008956 00000052 683.83 235.03 348.68 519.94 792.61 494.12 952.54 446.83 917.83 562.98 852.21 668.27 977.83 630.04
00008957 00000053 675.73 238.06 354.65 522.75 789.89 500.38 945.29 452.16 913.71 574.62 849.02 673.74 971.20 635.01
00008958 DELETE   663.36 246.37 362.21 519.54 781.91 505.05 937.35 454.52 906.05 578.02 844.44 677.60 964.40 636.58
00008959 00000055 651.86 251.75 364.67 518.48 767.89 507.64 926.99 457.18 891.86 586.75 832.59 683.05 956.07 641.75
00008960 00000056 650.00 251.58 361.59 518.29 764.07 509.16 921.99 457.00 887.05 585.72 829.60 681.80 955.23 639.17
00008961 00000057 643.93 253.68 366.70 522.62 762.77 507.28 920.74 455.46 885.75 585.79 830.76 677.18 961.73 634.32
00008962 00000058 643.54 251.78 364.48 522.65 758.27 504.05 912.94 451.39 881.64 577.51 828.33 678.43 951.55 634.83
00008963 00000059 635.37 247.22 373.60 530.29 756.01 502.48 915.83 451.84 881.23 577.69 826.52 673.90 959.73 631.77
00008964 00000060 636.12 245.01 374.43 523.14 755.21 501.99 916.65 445.20 883.05 573.06 830.14 670.00 963.32 622.65
00008965 00000061 641.40 246.10 368.31 521.98 760.40 502.49 917.58 445.41 886.92 570.76 833.66 670.02 963.91 622.64
00008966 00000062 645.47 244.16 365.80 522.99 763.52 504.16 920.30 444.25 890.40 568.16 840.23 671.82 968.57 621.89
00008967 00000063 649.80 244.47 362.80 523.09 768.62 503.11 924.45 441.66 897.22 565.20 846.24 672.08 973.22 621.12
00008968 00000064 648.36 239.19 364.84 529.23 773.98 500.44 928.62 437.58 907.12 559.49 855.01 671.88 978.72 620.08
00008969 00000065 645.68 240.65 365.25 528.00 773.59 501.34 927.45 439.51 907.18 558.72 854.87 671.10 978.76 620.25
00008970 00000066 648.60 243.17 362.60 526.78 772.07 504.14 926.88 440.67 904.93 560.92 853.54 673.47 980.16 620.95
00008971 00000067 649.95 243.86 361.28 519.06 768.81 505.91 918.70 437.55 902.66 554.74 855.62 674.27 971.28 617.77
00008972 00000068 634.42 254.89 371.56 521.75 765.78 507.96 922.30 449.36 900.82 569.51 844.94 678.54 972.79 630.05
00008973 00000069 634.36 250.95 366.65 518.86 762.43 509.61 916.41 447.66 898.19 563.20 847.67 679.50 965.82 628.46
00008974 00000070 633.32 251.20 364.73 519.36 761.40 507.56 915.44 447.34 897.17 562.91 844.22 678.38 963.24 628.73
00008975 00000071 632.96 249.05 361.81 520.90 760.69 504.80 912.94 445.75 895.70 561.50 843.72 676.86 960.19 628.31
00008976 00000072 633.60 245.04 356.79 520.03 760.14 496.01 912.43 441.31 892.58 554.56 836.69 669.94 952.82 625.55
00008977 00000073 633.24 243.66 356.66 518.56 760.02 492.97 912.08 439.74 891.50 551.50 832.18 666.25 949.77 623.50
00008978 00000074 626.55 241.01 359.37 522.50 759.84 489.20 915.13 440.27 892.18 555.76 830.53 662.21 952.98 622.68
00008979 00000075 624.46 235.21 359.27 526.44 758.56 485.89 913.45 438.51 890.14 554.00 829.80 660.24 949.75 622.11
00008980 00000076 623.95 226.15 356.09 532.21 756.46 479.84 910.57 434.11 886.48 548.92 831.92 658.20 947.31 621.57
00008981 00000077 622.35 222.84 356.42 533.27 755.54 477.15 910.17 432.48 885.71 545.86 831.87 656.23 947.46 620.31
00008982 00000078 620.25 219.96 356.63 533.74 754.19 476.18 909.48 431.68 884.59 543.88 830.42 653.97 946.63 618.04
00008983 00000079 619.89 218.21 355.97 533.76 753.60 475.63 909.53 430.89 884.25 542.63 829.73 653.06 946.19 616.85
00008984 00000080 619.22 217.06 355.08 529.39 751.84 474.07 908.54 429.14 883.19 539.84 827.69 648.65 945.66 611.91
00008985 00000081 616.60 216.81 357.03 529.30 750.86 473.01 907.65 428.36 882.28 539.89 824.84 646.67 943.66 610.19
00008986 00000082 614.99 215.62 357.96 529.38 750.41 471.79 907.38 427.24 882.70 538.26 822.85 644.75 942.98 608.28
00008987 00000083 614.53 215.96 357.37 526.69 749.99 470.51 906.33 426.18 882.17 536.40 821.06 641.56 941.50 605.30
00008988 00000084 612.14 212.45 359.49 526.71 750.50 467.53 906.47 424.15 882.58 533.78 820.31 638.77 939.50 603.20
00008989 00000085 612.20 211.99 358.50 524.87 750.25 466.96 905.04 423.64 881.70 531.54 820.66 637.77 938.47 602.26
00008990 00000086 612.24 212.08 358.14 523.86 750.10 465.99 905.14 422.33 881.96 530.50 819.67 636.54 938.34 600.79
00008991 00000087 612.05 211.38 357.66 524.24 750.29 464.88 904.98 421.53 881.91 529.99 819.26 636.18 937.10 600.77
00008992 00000088 614.42 208.25 354.25 532.02 749.98 461.50 905.08 418.82 881.91 528.38 818.09 636.52 937.80 601.69
00008993 00000089 614.99 207.54 353.77 533.05 750.28 461.07 905.19 418.50 882.50 527.03 818.87 636.83 937.60 602.12
00008994 00000090 612.80 206.91 355.09 535.25 750.15 459.70 904.96 418.41 881.73 526.89 819.19 637.30 936.24 603.76
00008995 00000091 614.27 203.01 354.91 539.80 750.07 458.28 905.59 416.80 882.41 527.32 820.70 638.96 937.20 605.04
00008996 00000092 617.05 200.76 353.16 542.63 750.73 458.26 906.20 416.30 883.46 527.18 820.39 639.38 936.72 604.93
00008997 00000093 617.89 199.60 353.01 539.02 751.64 457.45 907.05 415.64 883.90 526.43 822.90 638.74 937.57 604.19
00008998 00000094 617.70 199.30 353.44 537.35 752.56 457.80 908.34 416.16 885.02 525.96 823.89 638.15 939.70 603.56
00008999 00000095 616.85 198.91 355.03 534.77 752.44 458.16 909.62 416.19 885.97 525.29 824.78 637.83 941.59 602.78
00009000 00000096 615.70 201.60 356.68 526.98 754.16 457.16 910.90 416.07 887.33 523.66 826.27 634.65 942.56 600.34
00009001 00000097 616.49 203.41 356.27 526.57 756.28 458.77 913.24 417.66 889.46 524.49 826.93 635.63 942.19 601.61
00009002 00000098 619.81 203.03 353.82 526.80 759.74 459.95 912.70 419.06 890.62 523.35 830.95 636.66 941.86 603.18
00009003 00000099 621.88 204.41 353.99 524.63 763.59 460.90 915.68 419.45 894.59 525.10 832.47 636.49 942.54 602.66
00009004 00000100 625.28 203.63 356.18 524.58 771.40 458.65 922.74 416.67 904.32 529.21 841.31 636.54 948.31 602.06
00009005 00000101 632.88 202.51 352.11 525.42 775.02 459.69 925.90 417.13 906.62 530.82 844.50 637.66 951.80 602.62
00009006 00000102 632.96 203.03 351.06 525.98 777.69 462.29 926.90 417.78 910.10 531.15 846.79 640.12 952.06 603.85
00009007 DELETE   630.73 201.77 351.29 528.05 778.31 460.77 926.62 417.54 910.34 530.66 846.92 640.93 950.08 605.84
00009008 00000104 619.13 206.29 359.15 526.02 771.34 457.80 919.41 415.41 904.76 531.72 845.04 640.09 946.51 605.54
00009009 00000105 615.80 203.05 361.94 529.19 766.75 460.87 915.26 416.01 901.84 529.88 843.48 640.55 948.14 603.60
00009010 00000106 614.00 204.31 361.70 527.06 763.14 461.11 914.58 417.94 898.81 527.60 839.02 638.92 948.48 603.12
00009011 00000107 615.42 206.67 358.66 525.98 761.38 462.53 915.16 418.56 898.35 528.49 837.70 641.06 948.96 604.79
00009012 00000108 615.64 209.49 357.10 524.26 761.78 463.84 916.18 421.09 898.68 531.39 836.80 643.25 947.27 608.20
00009013 00000109 608.75 212.91 362.98 523.02 759.40 463.69 915.52 421.59 898.73 532.54 837.03 643.74 948.14 609.17
00009014 00000110 610.24 212.10 359.92 522.23 758.13 463.10 914.48 421.32 896.77 533.21 837.25 644.03 948.16 609.52
00009015 00000111 609.49 209.42 358.89 525.80 756.03 460.68 912.59 419.98 893.19 531.21 834.53 643.01 945.86 609.46
00009016 00000112 602.38 204.64 359.93 531.50 749.83 456.92 903.93 415.85 885.66 527.95 827.93 639.85 937.48 606.07
00009017 00000113 603.93 206.43 358.62 530.13 748.94 458.57 904.42 416.48 884.87 529.15 826.09 640.67 937.59 606.05
00009018 00000114 603.95 207.57 357.69 530.86 748.62 459.10 904.70 416.31 885.37 529.60 826.24 642.22 938.20 607.16
00009019 00000115 600.74 207.28 361.72 532.14 748.88 459.73 905.17 416.73 887.57 529.64 828.66 643.56 940.27 608.42
00009020 00000116 602.07 207.69 360.59 530.40 749.35 458.88 907.23 416.82 888.87 528.60 831.20 644.59 942.48 609.95
00009021 00000117 602.11 207.93 361.28 529.26 749.57 459.06 907.57 417.32 888.98 528.78 831.29 643.70 942.83 609.26
00009022 00000118 602.77 208.20 361.02 528.35 750.39 460.47 907.42 419.32 888.77 529.52 830.66 642.76 942.11 608.76
00009023 00000119 603.59 209.39 359.69 526.91 750.26 462.59 907.36 421.23 887.85 530.55 828.96 642.16 941.45 608.07
00009024 00000120 605.18 209.73 358.67 526.17 751.32 464.05 907.50 423.48 887.20 531.21 826.23 640.91 939.32 607.52
00009025 00000121 606.50 210.27 357.98 525.22 752.24 464.59 908.17 423.69 887.96 531.65 825.77 640.90 939.24 607.29
00009026 00000122 605.91 210.56 358.84 525.16 752.17 465.57 908.14 424.38 887.77 531.60 824.91 640.37 938.99 606.54
00009027 00000123 606.38 210.86 358.26 524.73 752.29 466.21 907.99 425.09 887.49 532.24 824.86 640.36 939.10 606.61
00009028 00000124 607.87 213.63 356.98 523.61 752.39 466.05 908.73 425.09 887.26 533.42 824.39 641.29 939.02 607.73
00009029 00000125 608.11 214.20 356.48 523.14 752.52 466.38 908.95 425.10 887.69 533.52 825.48 642.11 939.85 608.31
00009030 DELETE   608.58 216.12 358.43 526.81 755.84 467.84 909.39 427.11 890.63 533.16 829.71 644.37 940.99 611.49
00009031 DELETE   607.78 220.80 359.00 527.32 768.81 468.28 905.35 430.96 893.23 528.43 835.11 646.34 923.48 616.70
00009032 00000128 617.49 223.93 348.87 524.55 772.30 473.89 906.96 439.27 897.18 529.84 831.55 644.53 921.94 617.82
00009033 DELETE   621.46 223.06 349.24 524.11 772.73 474.67 910.93 437.06 899.69 531.22 832.65 644.01 926.77 615.08
00009034 DELETE   622.93 219.24 348.32 524.39 777.25 471.70 913.02 435.10 904.42 531.37 836.05 639.93 929.02 612.13
CROP_BBOX: 390 0 1319 963
