Video ID: 	S6tULGLTBww
H: 	1080
W: 	1920
FPS: 	25.0

FRAME INDEX X0 Y0 W H [Landmarks (5 Points)]

00007698 00000000 795.38 234.38 449.74 568.89 945.03 427.70 1156.68 423.87 1079.64 555.80 956.54 618.68 1165.32 614.87
00007699 DELETE   796.55 246.10 454.60 556.95 946.02 424.31 1160.60 422.41 1081.44 556.75 956.79 616.89 1167.51 615.04
00007700 00000002 799.18 236.54 453.47 570.81 951.34 426.56 1161.70 424.74 1084.94 559.05 959.61 618.75 1169.14 616.74
00007701 00000003 800.64 233.87 453.41 577.00 955.59 426.44 1163.72 427.04 1086.86 560.29 960.10 620.40 1166.52 620.42
00007702 00000004 801.06 226.88 451.67 583.75 960.93 425.13 1164.42 428.39 1089.49 558.40 963.90 622.33 1161.70 624.48
00007703 00000005 799.08 224.45 454.46 586.59 965.04 421.18 1170.47 427.72 1093.90 558.68 969.29 627.81 1156.38 632.27
00007704 00000006 796.27 211.07 460.58 581.50 970.53 424.15 1171.86 432.45 1095.12 567.58 977.75 630.26 1139.59 639.93
00007705 00000007 794.59 211.43 461.33 574.50 967.11 423.79 1172.62 433.86 1090.78 570.06 971.67 630.92 1134.33 642.25
00007706 00000008 792.16 210.26 460.66 574.58 966.12 424.00 1170.24 438.22 1086.74 569.72 969.57 632.55 1127.01 647.06
00007707 DELETE   792.93 207.66 460.01 572.92 967.48 423.97 1171.94 437.59 1088.09 569.75 971.78 631.68 1128.11 645.66
00007708 DELETE   792.38 201.61 461.96 582.28 968.99 422.94 1172.35 435.35 1091.85 569.38 971.43 629.37 1131.59 642.71
00007709 00000011 791.81 201.64 465.91 589.55 966.77 414.27 1174.79 430.40 1090.41 561.06 965.37 626.65 1136.38 643.04
00007710 00000012 791.73 200.29 468.40 585.59 968.79 408.60 1175.69 426.61 1092.61 555.91 965.72 620.89 1136.92 638.78
00007711 00000013 795.45 190.50 464.68 589.50 970.23 408.53 1176.70 424.04 1092.86 554.71 961.90 616.53 1137.37 632.38
00007712 00000014 796.87 192.66 465.26 587.56 970.01 408.14 1176.34 424.68 1091.08 551.76 960.03 613.59 1137.69 630.14
00007713 00000015 798.35 192.08 464.62 590.85 970.73 408.44 1176.26 425.98 1089.98 551.45 959.69 616.04 1135.37 633.23
00007714 00000016 800.46 194.69 464.52 585.71 971.14 412.71 1175.65 430.11 1089.37 555.01 959.49 615.82 1136.12 632.92
00007715 00000017 800.54 206.19 466.38 577.63 973.52 415.71 1175.27 434.87 1089.13 561.94 959.14 614.78 1133.19 633.93
00007716 00000018 802.05 206.38 466.14 578.59 973.97 413.89 1174.82 435.38 1087.23 564.20 957.24 612.56 1132.66 633.85
00007717 00000019 802.04 205.81 464.24 580.25 973.44 413.26 1174.43 435.74 1086.30 565.70 954.99 612.09 1132.65 634.25
00007718 00000020 802.78 204.69 464.43 579.15 972.82 410.50 1174.78 432.84 1085.97 561.03 955.36 609.77 1134.01 631.47
00007719 00000021 805.20 195.31 462.20 585.49 971.84 409.69 1175.79 429.70 1086.58 554.54 956.66 608.61 1139.82 628.00
00007720 00000022 805.58 194.14 461.65 581.28 971.83 408.74 1175.09 427.87 1086.12 551.47 956.45 605.24 1139.07 623.83
00007721 00000023 805.26 199.69 463.05 573.90 970.86 407.79 1175.09 426.26 1085.45 551.33 956.00 604.33 1139.04 622.61
00007722 00000024 806.49 194.29 460.13 581.98 971.01 407.52 1174.59 426.19 1084.69 553.06 954.10 603.70 1139.68 622.04
00007723 00000025 805.10 191.17 460.34 587.83 969.79 409.21 1173.28 427.26 1083.70 554.74 951.16 604.35 1139.85 622.17
00007724 00000026 802.57 206.23 462.63 575.58 969.89 409.99 1172.71 432.18 1082.30 560.73 946.83 602.68 1135.95 624.61
00007725 00000027 802.53 206.24 463.14 574.85 969.76 411.46 1173.03 433.37 1082.66 563.03 947.55 603.44 1136.64 625.21
00007726 00000028 803.43 205.54 461.85 573.26 969.31 411.17 1173.66 432.63 1082.78 563.72 946.74 601.82 1138.34 623.38
00007727 00000029 803.44 205.93 461.63 571.36 968.57 409.31 1173.67 430.71 1082.17 561.36 945.36 599.40 1139.46 620.84
00007728 00000030 803.41 203.15 461.19 572.78 969.71 407.61 1173.75 429.95 1082.15 557.35 946.41 598.75 1137.58 620.66
00007729 00000031 804.20 195.98 459.66 581.77 969.37 406.86 1170.61 425.69 1081.23 555.61 948.05 599.15 1137.18 618.14
00007730 00000032 803.44 195.00 459.90 582.81 968.59 406.51 1170.60 424.67 1081.50 554.92 946.48 597.98 1138.29 616.38
00007731 00000033 803.08 199.70 460.36 576.85 968.46 405.97 1170.39 425.42 1080.59 555.43 945.90 596.52 1137.08 616.02
00007732 00000034 802.76 199.10 459.79 578.06 968.33 407.37 1169.35 424.81 1081.43 555.37 946.70 597.08 1137.77 614.97
00007733 00000035 802.29 201.17 459.72 577.18 968.89 407.72 1168.72 426.26 1081.16 557.41 946.78 597.59 1136.61 616.47
00007734 00000036 802.84 203.13 459.50 574.20 968.72 407.90 1169.17 427.29 1080.69 557.91 945.98 597.48 1136.25 617.15
00007735 00000037 801.31 201.16 459.31 577.62 967.60 408.08 1168.24 426.63 1080.46 558.34 946.65 599.12 1136.09 618.01
00007736 00000038 800.14 204.92 461.64 574.38 967.23 408.19 1168.09 427.73 1079.69 558.58 945.57 599.20 1134.77 618.95
00007737 00000039 799.52 204.54 461.71 574.89 966.85 407.70 1167.26 428.45 1078.15 557.57 946.51 600.64 1131.63 621.28
00007738 00000040 799.41 202.52 461.62 576.96 966.44 407.32 1167.03 429.33 1077.19 555.10 949.30 603.57 1129.49 624.96
00007739 00000041 796.44 218.89 466.73 559.55 969.95 413.45 1165.36 437.27 1078.17 557.56 949.63 603.13 1121.68 626.33
00007740 00000042 795.90 220.94 466.53 556.66 969.09 413.21 1164.39 437.65 1076.75 558.45 948.28 602.66 1120.11 626.43
00007741 00000043 796.25 221.40 464.93 556.08 966.90 408.44 1166.32 436.13 1073.72 558.18 945.56 601.80 1120.61 628.29
00007742 00000044 795.94 213.41 464.39 567.40 962.62 408.55 1163.86 434.08 1070.06 556.74 944.39 604.64 1121.52 629.14
00007743 00000045 793.62 205.38 463.95 576.31 958.76 409.30 1164.35 433.57 1069.20 557.55 943.61 608.60 1122.99 631.83
00007744 00000046 793.22 201.28 463.69 579.75 957.59 410.89 1164.63 435.24 1068.58 555.88 943.79 611.06 1122.99 634.11
00007745 00000047 792.67 204.37 462.28 578.38 958.23 411.08 1163.30 435.54 1068.23 556.22 945.68 614.50 1119.01 637.87
00007746 00000048 793.56 205.33 462.01 578.59 960.23 409.10 1162.70 434.95 1067.76 556.35 948.57 614.58 1117.68 639.04
00007747 00000049 793.22 200.85 463.67 587.48 960.52 408.88 1163.48 435.04 1068.59 554.01 950.17 616.39 1120.36 640.59
00007748 00000050 792.05 194.77 463.62 596.41 960.48 408.40 1160.58 434.23 1067.28 551.93 949.48 616.98 1117.99 640.64
00007749 00000051 789.30 197.64 464.88 592.19 958.35 408.11 1159.78 434.64 1064.79 554.08 945.05 616.44 1114.03 640.98
00007750 DELETE   788.74 191.14 461.35 594.27 956.01 408.96 1156.57 432.22 1063.77 550.49 946.18 616.81 1113.85 638.47
00007751 00000053 788.04 185.36 458.38 604.13 953.13 408.19 1152.05 431.50 1059.63 550.43 945.49 622.65 1108.49 644.06
00007752 DELETE   785.62 183.96 456.67 608.90 951.16 407.52 1146.97 432.13 1055.09 553.22 942.01 628.29 1093.66 651.62
00007753 00000055 783.69 192.60 459.11 595.93 952.23 414.27 1146.70 436.31 1056.67 556.95 946.73 630.10 1094.06 651.55
00007754 00000056 781.86 221.70 463.90 562.91 953.24 420.83 1150.58 443.47 1059.20 563.99 947.20 629.56 1092.27 651.38
00007755 00000057 780.84 201.82 465.08 586.36 953.27 416.19 1154.47 436.10 1066.02 558.83 949.27 627.49 1106.59 646.90
00007756 00000058 780.16 199.86 465.38 589.62 952.65 413.10 1156.63 432.88 1069.18 552.72 946.11 626.52 1111.57 645.76
00007757 00000059 782.87 202.65 464.40 579.59 952.61 405.68 1159.17 426.95 1068.52 550.54 943.07 622.35 1110.14 642.92
00007758 00000060 785.91 190.59 462.21 588.50 954.81 404.14 1162.70 426.13 1070.69 548.51 944.71 620.31 1113.90 640.78
00007759 00000061 790.94 200.53 461.30 579.73 959.55 405.68 1164.72 430.67 1071.60 551.44 950.65 622.29 1111.82 645.67
00007760 00000062 792.68 200.47 462.35 584.00 964.54 408.50 1167.01 435.99 1073.88 556.35 949.14 623.74 1107.97 649.56
00007761 00000063 794.01 219.98 463.71 562.75 967.85 410.44 1164.56 443.71 1070.58 560.05 949.49 621.41 1102.00 651.88
00007762 00000064 798.39 204.57 463.91 577.10 972.98 411.15 1170.65 442.12 1076.65 566.25 953.97 622.72 1108.77 651.98
00007763 00000065 801.60 204.67 464.18 577.64 972.63 413.42 1174.40 443.71 1077.46 565.88 955.31 623.15 1114.15 651.57
00007764 00000066 800.71 204.76 465.13 577.76 974.20 414.35 1175.55 441.66 1082.11 567.49 956.88 621.05 1118.20 647.13
00007765 00000067 800.80 205.67 466.02 582.55 973.65 413.01 1174.39 441.48 1080.47 564.23 955.57 620.94 1118.59 647.80
00007766 00000068 800.32 208.54 466.11 579.14 973.88 412.12 1172.95 441.26 1079.39 563.91 953.16 615.75 1119.09 643.46
00007767 DELETE   799.66 206.12 466.76 581.18 971.49 411.57 1174.78 441.55 1077.88 565.68 949.83 616.23 1119.87 644.71
00007768 00000070 796.51 214.11 469.80 573.58 971.91 411.70 1172.96 444.48 1077.21 570.42 950.48 617.85 1114.01 648.92
00007769 00000071 795.24 220.34 468.05 563.64 969.54 415.26 1171.21 449.98 1072.17 572.68 947.69 620.83 1106.69 653.50
00007770 DELETE   792.63 230.90 469.69 552.37 967.98 420.05 1166.41 453.67 1068.98 575.37 944.78 624.00 1098.06 655.71
00007771 00000073 790.23 216.12 467.68 570.17 963.83 418.84 1164.29 451.54 1066.84 572.48 942.95 625.30 1098.60 656.13
00007772 00000074 789.24 207.01 464.97 577.26 960.18 417.08 1162.66 449.55 1061.92 568.07 939.86 625.37 1096.40 655.85
00007773 00000075 784.01 225.40 465.80 564.64 954.39 417.59 1151.94 449.39 1055.54 569.32 936.36 622.57 1095.65 652.58
00007774 00000076 785.31 223.60 463.06 565.49 951.01 417.09 1150.88 444.70 1053.10 570.45 934.95 623.97 1095.16 650.74
00007775 00000077 782.87 225.74 460.24 567.47 945.57 416.53 1145.16 443.61 1049.23 563.05 935.62 630.38 1092.41 655.78
00007776 00000078 780.07 217.80 461.94 574.38 944.42 416.99 1144.73 442.70 1049.88 560.52 936.37 627.93 1094.93 652.33
00007777 00000079 779.43 218.81 459.36 575.54 941.85 414.88 1144.00 442.30 1046.40 562.60 930.67 626.04 1093.82 652.00
00007778 00000080 777.06 220.49 458.41 576.73 941.13 414.75 1142.01 443.05 1046.18 563.03 926.46 623.24 1093.61 649.99
00007779 00000081 775.41 216.59 459.35 579.30 938.94 413.86 1142.99 440.90 1046.35 561.00 923.80 619.49 1098.39 645.15
00007780 00000082 776.34 208.32 460.15 585.21 941.14 411.39 1143.01 433.97 1051.98 560.87 924.98 611.84 1108.07 634.02
00007781 00000083 777.70 207.46 460.04 582.11 941.66 409.55 1145.71 430.25 1054.33 558.47 924.64 608.42 1112.38 629.10
00007782 00000084 779.45 200.26 461.30 585.65 943.05 406.99 1147.74 426.20 1056.91 554.14 928.06 607.60 1115.06 626.61
00007783 00000085 780.91 192.99 462.83 593.81 943.57 406.68 1149.92 423.38 1059.36 551.88 934.23 613.46 1116.65 629.91
00007784 00000086 783.09 199.50 460.92 583.98 946.78 407.16 1152.60 424.68 1062.68 552.07 939.92 617.60 1112.86 635.19
00007785 00000087 784.65 192.27 459.36 592.43 951.36 410.48 1152.82 430.68 1064.72 552.31 940.49 618.58 1111.42 638.10
00007786 00000088 783.67 203.39 461.44 583.86 956.33 415.79 1154.25 440.97 1066.61 555.72 941.32 617.77 1106.74 642.07
00007787 00000089 783.81 203.89 461.54 588.44 956.49 414.77 1152.34 439.02 1066.85 559.92 940.59 614.82 1111.74 638.11
00007788 00000090 785.51 202.86 460.13 585.90 957.90 413.67 1155.12 436.99 1069.71 561.20 942.98 611.15 1118.12 633.73
00007789 00000091 785.85 207.80 461.70 579.61 958.20 414.41 1155.74 438.86 1069.20 562.15 942.02 609.42 1118.02 633.15
00007790 DELETE   785.11 210.54 463.99 575.70 959.58 412.15 1157.88 436.90 1071.01 562.67 940.15 607.31 1117.22 631.67
00007791 00000093 784.52 208.73 464.71 575.36 961.02 410.50 1159.34 436.28 1073.05 557.88 938.36 602.44 1117.95 627.38
00007792 00000094 785.27 203.20 463.85 578.74 961.01 408.17 1159.10 432.47 1073.04 554.53 939.51 601.79 1118.33 625.18
00007793 00000095 786.36 201.03 461.27 580.22 960.93 407.15 1160.40 429.78 1074.75 554.29 938.21 599.59 1121.29 621.65
00007794 00000096 785.75 204.07 462.83 573.56 960.07 404.32 1159.90 427.56 1073.31 552.76 936.73 595.70 1121.05 618.36
00007795 00000097 784.52 210.32 465.36 565.89 958.25 400.91 1161.36 426.64 1071.13 552.29 936.97 596.10 1118.83 620.93
00007796 00000098 783.76 200.19 464.48 574.81 956.02 400.14 1160.15 423.82 1069.69 546.09 939.57 603.26 1114.30 625.83
00007797 00000099 782.11 200.35 465.31 571.50 951.61 396.22 1157.72 417.34 1067.00 543.09 943.25 608.63 1112.16 628.67
00007798 00000100 779.53 216.10 470.23 556.42 946.41 393.33 1154.52 414.39 1060.99 542.87 941.88 606.42 1109.49 625.70
00007799 00000101 777.73 207.29 469.12 564.53 942.91 392.23 1148.75 410.17 1058.69 537.30 940.30 602.32 1109.31 618.97
00007800 00000102 775.74 208.22 470.31 565.46 938.08 392.31 1146.43 408.24 1055.76 537.56 938.15 599.72 1112.54 614.56
00007801 00000103 774.00 211.73 470.08 559.74 935.75 392.63 1145.14 408.16 1054.50 537.44 933.78 596.24 1114.28 610.76
00007802 00000104 772.00 209.37 467.63 561.84 933.04 393.25 1141.71 406.86 1052.59 538.55 930.90 595.24 1113.31 608.33
00007803 00000105 770.46 205.18 466.22 564.50 931.96 393.47 1140.36 405.42 1052.21 540.29 930.70 593.76 1113.80 605.54
00007804 DELETE   769.57 209.90 461.57 560.82 929.88 395.85 1137.55 406.71 1051.19 541.84 930.15 593.93 1113.72 604.84
00007805 00000107 771.00 201.73 450.89 569.86 920.53 400.50 1128.08 403.19 1047.09 537.28 928.14 598.88 1121.21 599.11
00007806 00000108 766.21 209.99 449.62 559.32 912.69 406.70 1121.65 403.62 1042.14 537.21 927.34 601.67 1121.57 597.04
00007807 00000109 762.40 208.68 440.50 563.31 903.28 411.19 1113.90 400.07 1037.15 536.97 926.40 607.43 1124.33 595.82
00007808 DELETE   757.77 183.51 444.36 587.19 893.57 421.84 1102.86 399.95 1024.58 545.36 924.50 615.66 1119.08 597.67
00007809 00000111 751.71 208.54 437.03 575.68 876.26 428.97 1081.55 403.39 1006.41 544.42 918.73 622.51 1114.74 597.97
00007810 DELETE   739.75 224.29 439.03 568.00 863.36 433.52 1067.33 399.96 996.97 551.35 912.78 632.17 1107.43 601.93
00007811 00000113 730.91 247.90 438.31 542.48 848.61 440.87 1060.41 404.54 985.33 560.76 904.61 639.73 1103.66 607.46
00007812 00000114 723.39 201.62 441.12 586.20 841.89 460.22 1040.55 412.21 974.25 558.71 911.59 650.32 1087.80 609.42
00007813 DELETE   711.51 243.61 449.27 555.79 830.43 464.92 1034.90 405.94 975.15 567.74 905.75 664.10 1089.58 611.31
00007814 00000116 706.37 240.54 451.25 558.17 825.40 462.64 1030.52 403.63 971.44 572.05 903.11 668.72 1082.69 615.65
00007815 00000117 705.87 236.31 446.59 561.17 823.65 459.81 1029.40 402.70 968.64 567.07 901.77 667.54 1081.96 615.81
00007816 00000118 707.24 233.75 441.60 559.86 824.44 453.54 1030.00 401.46 967.34 563.38 899.45 663.48 1077.51 615.74
00007817 00000119 709.77 237.93 440.49 549.44 828.24 449.09 1035.55 396.58 972.69 560.04 901.26 658.86 1079.23 611.18
00007818 DELETE   712.00 228.97 442.50 557.97 831.73 446.44 1038.39 394.86 975.37 556.14 902.44 654.99 1082.89 607.38
00007819 00000121 722.96 206.79 440.71 574.14 843.55 440.85 1043.62 400.70 975.98 551.36 911.28 642.48 1085.27 608.04
00007820 00000122 727.85 216.30 443.78 566.20 853.87 435.22 1055.43 401.77 986.64 550.39 919.01 642.76 1088.92 613.71
00007821 00000123 737.59 191.85 444.61 591.02 862.90 431.13 1062.73 399.16 993.76 550.86 927.17 640.78 1092.44 613.43
00007822 00000124 751.72 221.14 432.67 566.11 871.30 419.53 1075.38 393.05 1003.39 539.38 930.04 638.48 1104.28 613.13
00007823 DELETE   757.99 219.49 431.47 563.56 880.82 418.24 1084.78 394.50 1009.32 536.46 934.12 630.35 1109.73 607.12
00007824 00000126 761.71 219.95 433.52 562.89 889.47 420.32 1092.52 395.74 1018.15 536.12 935.37 625.96 1118.26 602.50
00007825 00000127 760.39 216.49 437.61 564.31 896.40 417.86 1102.47 399.42 1027.21 541.28 935.53 622.02 1122.04 603.59
00007826 00000128 765.39 216.29 439.68 564.87 902.15 419.58 1107.83 398.94 1032.98 542.85 939.20 622.73 1126.73 602.51
00007827 DELETE   772.64 208.37 434.27 567.41 905.10 419.61 1110.97 399.41 1033.92 544.20 939.10 619.16 1129.49 599.39
00007828 00000130 772.79 206.54 439.62 570.63 907.51 418.26 1112.40 399.18 1035.77 542.09 942.67 620.44 1128.90 601.37
00007829 00000131 776.22 220.31 436.97 550.94 915.30 422.99 1117.25 409.15 1042.28 537.03 946.41 621.55 1124.57 607.62
00007830 00000132 777.14 216.46 435.38 549.86 916.99 418.31 1118.31 405.23 1043.41 536.32 948.84 617.98 1124.52 604.59
00007831 00000133 775.69 208.04 437.00 560.21 916.79 414.52 1118.99 402.72 1042.50 536.32 948.02 618.37 1123.27 605.98
00007832 00000134 775.66 211.44 436.78 556.04 916.07 411.63 1116.91 401.61 1040.23 536.02 946.39 615.50 1120.28 604.39
00007833 DELETE   773.27 213.31 438.03 550.60 913.96 409.74 1113.50 400.73 1037.17 532.77 943.62 611.48 1117.27 601.06
00007834 DELETE   771.27 208.15 440.81 555.74 912.80 405.68 1115.35 397.50 1038.02 531.84 941.64 609.27 1117.77 599.42
00007835 00000137 767.99 200.15 442.31 562.35 910.63 401.75 1113.29 395.27 1034.76 526.30 939.45 606.67 1112.74 598.05
00007836 00000138 767.21 197.15 442.05 564.30 911.10 396.90 1111.66 394.26 1031.40 521.91 938.64 604.12 1105.45 598.78
00007837 DELETE   762.71 185.03 444.20 570.17 905.19 400.57 1108.83 392.97 1031.43 523.45 936.64 605.61 1105.34 598.82
00007838 00000140 759.04 168.47 445.47 591.08 903.06 388.14 1109.05 382.49 1031.72 515.33 936.82 606.37 1103.09 600.29
00007839 00000141 757.13 154.57 446.58 607.09 899.72 381.46 1108.47 377.01 1031.40 513.14 931.00 603.28 1103.84 597.85
00007840 00000142 756.48 152.14 445.06 613.52 899.51 383.03 1107.45 380.39 1028.70 513.83 923.52 601.02 1103.12 597.40
00007841 00000143 754.05 158.58 449.34 608.65 898.25 382.85 1106.53 382.79 1025.21 517.56 913.54 598.59 1099.25 598.15
00007842 00000144 751.60 168.60 453.64 599.37 898.81 384.68 1107.02 386.86 1022.57 522.51 908.03 596.09 1097.61 598.05
00007843 00000145 750.72 178.82 455.74 586.58 900.06 385.76 1108.93 390.80 1023.56 526.38 907.01 593.73 1098.24 598.36
00007844 00000146 752.17 183.98 452.81 582.17 902.70 387.22 1112.01 392.55 1027.46 530.49 908.94 595.31 1100.74 600.54
00007845 00000147 753.26 187.08 453.42 578.05 906.69 388.86 1115.31 393.48 1032.55 532.61 912.11 596.41 1100.19 601.34
00007846 00000148 755.41 175.97 450.87 588.90 909.05 390.45 1118.04 393.00 1035.90 531.08 915.83 598.15 1103.96 600.91
00007847 00000149 756.25 174.03 454.08 590.31 910.92 388.12 1121.57 391.04 1038.68 530.34 918.30 598.62 1105.94 601.07
00007848 00000150 756.80 169.31 458.82 596.45 916.14 383.27 1124.93 389.65 1043.31 525.49 920.21 595.16 1106.56 599.84
00007849 00000151 758.62 161.34 462.90 603.17 923.09 379.55 1129.92 388.42 1047.41 522.52 923.95 593.09 1107.50 599.44
00007850 00000152 766.88 182.33 460.36 580.55 932.21 373.41 1137.67 390.51 1051.38 522.75 929.42 588.40 1105.56 603.18
00007851 00000153 769.44 181.42 463.57 585.62 935.64 378.46 1142.42 394.46 1055.97 526.18 931.63 592.16 1110.23 606.14
00007852 00000154 770.24 197.60 466.19 568.93 936.77 379.10 1145.56 396.93 1056.23 529.53 931.82 592.88 1107.43 608.84
00007853 00000155 771.75 192.94 465.79 574.68 938.43 379.18 1147.39 397.37 1057.34 530.19 930.48 593.17 1108.67 609.55
00007854 00000156 775.58 170.87 462.39 590.55 941.40 371.58 1147.00 391.70 1057.82 520.13 934.46 586.14 1112.66 603.27
00007855 00000157 776.15 180.09 466.67 582.85 941.43 363.53 1150.16 387.56 1058.02 515.88 930.73 580.73 1113.46 601.53
00007856 00000158 776.94 185.54 469.99 577.22 943.40 355.45 1153.42 383.84 1056.83 514.98 926.34 575.63 1109.71 600.27
00007857 00000159 778.98 192.87 469.12 566.67 946.04 351.59 1155.41 381.09 1058.59 510.99 926.59 571.12 1109.76 596.48
00007858 00000160 782.45 195.02 467.07 565.54 946.72 351.66 1157.33 382.41 1059.44 513.92 924.44 570.85 1112.04 597.42
00007859 00000161 784.88 178.54 464.14 579.33 949.16 358.15 1157.24 385.34 1060.76 512.69 929.17 574.61 1115.66 598.20
00007860 00000162 784.06 181.22 462.90 577.34 948.74 362.23 1156.39 390.20 1059.84 512.15 930.99 577.64 1114.22 601.87
00007861 00000163 780.41 173.89 465.27 585.45 945.85 365.26 1153.12 392.06 1057.87 514.29 928.39 580.09 1112.07 603.11
00007862 00000164 777.41 181.13 466.12 576.83 942.59 363.39 1149.71 390.83 1053.50 511.82 925.55 577.36 1108.45 600.80
00007863 00000165 774.37 192.28 465.91 561.18 938.31 359.73 1147.38 387.80 1049.29 509.86 921.96 571.60 1105.47 595.53
00007864 00000166 770.86 189.61 465.31 563.32 932.79 359.07 1141.65 387.00 1043.05 507.64 917.52 569.44 1100.47 592.97
