Video ID: 	uUPQlxmdM0g
H: 	1080
W: 	1920
FPS: 	25.0

FRAME INDEX X0 Y0 W H [Landmarks (5 Points)]

00013810 00000000 816.08 165.74 383.43 539.58 888.04 384.01 1059.58 386.30 952.12 495.95 907.07 581.98 1042.92 584.28
00013811 00000001 814.94 167.98 379.95 537.80 885.45 383.96 1056.23 385.93 948.93 496.78 904.69 581.41 1040.10 583.70
00013812 00000002 810.79 169.89 381.78 536.56 881.58 383.76 1053.65 384.82 945.73 495.82 902.42 581.86 1037.32 583.24
00013813 00000003 806.27 170.76 382.83 535.93 877.20 383.42 1050.23 384.91 941.34 494.46 898.46 581.63 1032.42 583.43
00013814 00000004 802.36 171.73 382.43 534.16 873.13 383.78 1046.70 386.11 937.31 493.00 893.61 582.77 1027.49 585.47
00013815 00000005 796.35 171.87 383.54 534.02 868.00 385.14 1039.97 389.04 931.97 493.22 887.87 582.41 1021.16 586.40
00013816 00000006 791.67 173.15 382.91 532.13 865.81 391.83 1036.77 397.24 930.91 495.81 884.51 582.92 1018.68 588.30
00013817 DELETE   784.88 176.86 383.86 528.27 862.29 395.21 1032.09 400.97 929.95 495.10 881.84 582.38 1013.28 588.02
00013818 DELETE   782.18 175.95 383.94 529.39 857.81 393.27 1028.64 399.13 926.52 496.41 877.28 583.69 1007.60 589.37
00013819 00000009 780.28 172.55 381.64 535.90 855.40 391.14 1025.74 396.95 924.17 497.94 873.08 584.85 1003.12 590.76
00013820 00000010 777.56 172.67 380.25 535.83 850.71 388.13 1020.94 393.28 919.44 498.51 869.52 584.93 998.57 590.25
00013821 00000011 776.23 171.30 379.00 536.71 848.23 386.86 1018.05 391.22 917.11 497.67 868.28 585.29 995.83 589.89
00013822 00000012 772.83 168.92 381.20 537.04 842.44 385.84 1018.28 384.89 906.79 495.84 868.13 591.33 993.46 591.27
00013823 00000013 770.47 168.25 381.38 537.46 840.97 382.60 1016.71 382.01 906.52 495.45 867.44 589.78 992.78 590.15
00013824 00000014 768.90 167.54 381.23 537.90 839.92 381.05 1015.40 380.96 905.50 494.72 866.60 588.77 991.81 589.60
00013825 00000015 767.17 166.97 382.30 538.42 838.65 380.44 1014.35 379.38 904.98 493.02 866.77 588.55 991.59 588.57
00013826 00000016 766.99 166.19 382.33 539.56 837.77 380.09 1013.53 378.10 904.43 492.51 866.46 588.40 992.13 587.65
00013827 00000017 766.34 164.33 382.54 541.59 837.14 379.10 1012.13 376.72 903.96 492.87 867.57 588.28 992.20 587.24
00013828 00000018 765.24 163.69 383.10 542.62 836.31 379.34 1011.32 376.39 903.68 492.65 867.80 589.18 991.61 587.56
00013829 00000019 764.43 162.60 383.30 544.38 835.77 379.06 1010.59 376.18 903.22 492.46 867.91 589.37 991.95 587.80
00013830 00000020 763.63 162.37 384.10 545.41 835.62 378.88 1010.28 375.57 903.96 492.21 868.83 589.65 991.65 587.72
00013831 00000021 764.39 162.85 382.85 544.59 836.14 378.82 1010.40 375.85 903.99 492.24 869.13 589.77 991.56 588.16
00013832 00000022 765.15 162.26 382.94 545.71 835.62 379.36 1009.96 375.76 903.18 492.56 869.45 590.64 992.17 588.42
00013833 00000023 766.26 163.42 380.48 545.10 837.32 387.32 1009.31 382.56 904.55 492.75 870.79 591.26 992.10 587.81
00013834 00000024 764.67 164.79 381.15 543.33 836.14 389.69 1009.05 384.11 905.69 491.57 869.63 589.92 994.48 585.64
00013835 00000025 764.46 164.03 381.30 544.43 836.47 387.69 1008.65 382.08 906.76 490.44 870.28 587.42 995.18 583.12
00013836 DELETE   764.99 162.78 381.25 546.25 838.39 384.73 1009.73 380.08 909.11 489.56 872.36 585.15 996.78 581.64
00013837 DELETE   765.77 160.52 381.35 550.21 839.15 385.05 1008.61 378.17 909.01 489.65 874.82 586.36 997.13 581.13
00013838 00000028 766.23 158.96 380.86 553.33 840.69 382.45 1009.48 376.27 909.22 487.52 875.25 586.24 995.91 581.83
00013839 00000029 767.66 157.38 380.07 554.83 841.26 380.49 1011.07 374.80 909.12 487.80 874.98 587.76 995.21 583.89
00013840 00000030 768.02 157.45 380.16 554.15 841.07 379.34 1012.15 373.95 908.99 487.93 874.60 588.86 994.19 585.35
00013841 00000031 768.28 157.38 380.73 554.46 841.89 378.80 1013.15 373.92 909.62 487.68 874.89 588.59 994.23 585.54
00013842 00000032 768.83 157.76 380.47 553.92 842.16 378.51 1013.94 373.93 910.03 488.35 875.30 588.52 994.72 585.74
00013843 00000033 769.04 158.28 381.27 553.40 842.95 377.89 1015.57 373.31 910.88 487.62 875.93 588.75 995.27 586.02
00013844 00000034 774.34 164.01 379.30 545.79 846.43 375.68 1014.25 378.85 917.14 486.28 874.31 581.02 993.43 584.27
00013845 00000035 775.12 163.52 379.42 546.44 847.33 374.43 1015.34 378.27 917.64 485.81 874.70 580.46 994.31 584.19
00013846 00000036 776.04 163.04 379.88 547.10 848.27 373.58 1016.69 377.93 918.72 485.44 875.25 579.72 995.99 583.79
00013847 00000037 776.71 162.60 379.99 546.57 849.42 371.91 1017.94 377.58 919.28 484.99 874.81 578.41 996.37 583.44
00013848 00000038 777.04 162.34 381.12 546.37 850.27 371.44 1019.14 377.10 920.95 485.32 876.12 578.23 997.18 583.17
00013849 00000039 777.50 162.05 382.66 546.53 850.91 372.05 1020.45 377.83 922.15 484.78 876.48 577.87 999.40 582.92
00013850 00000040 777.50 162.00 383.68 547.21 852.04 370.98 1021.92 377.46 923.86 484.89 877.12 577.50 1000.55 583.13
00013851 00000041 777.50 161.38 383.90 547.87 852.79 370.55 1022.78 377.27 924.98 484.28 877.84 577.09 1001.46 582.94
00013852 00000042 777.40 161.64 384.45 547.98 852.62 370.25 1022.59 376.88 924.90 483.62 877.43 576.66 1001.56 582.43
00013853 00000043 777.49 160.60 384.02 548.60 852.16 369.91 1022.52 376.39 924.32 482.89 876.92 576.24 1001.06 581.84
00013854 00000044 777.58 160.68 384.01 548.64 852.20 369.07 1022.30 375.36 924.42 482.09 876.90 575.54 1001.31 581.01
00013855 00000045 777.53 160.24 384.77 548.53 852.36 368.42 1022.12 374.82 924.34 480.97 876.35 574.49 1001.23 580.02
00013856 00000046 777.47 159.29 385.28 549.97 852.13 367.43 1022.14 373.68 924.19 479.94 876.18 573.89 1001.18 579.27
00013857 00000047 778.01 158.07 385.15 550.66 852.47 369.01 1021.82 375.49 923.96 479.26 876.48 573.19 1001.91 578.74
00013858 DELETE   777.75 159.13 385.94 549.57 852.37 375.91 1021.63 381.70 923.17 479.63 877.88 572.23 1005.05 577.16
00013859 DELETE   777.35 158.93 385.32 550.95 851.43 376.31 1020.14 380.16 922.11 477.15 878.15 571.47 1006.37 574.93
00013860 00000050 774.16 144.99 385.26 560.94 849.49 377.15 1016.68 372.10 913.81 476.28 878.25 568.76 1011.58 566.32
00013861 DELETE   769.78 139.53 384.32 561.32 844.24 373.57 1007.56 365.41 909.21 472.26 880.17 566.85 1007.53 561.18
00013862 00000052 771.87 139.81 383.51 554.40 839.49 378.76 1007.49 358.42 911.51 463.89 886.95 573.21 1008.05 555.93
00013863 00000053 763.98 139.92 384.19 546.96 830.84 369.25 995.02 352.39 899.13 464.02 877.37 564.37 1003.40 550.62
00013864 00000054 761.25 137.67 388.14 539.18 823.99 366.45 989.34 345.89 892.36 460.11 873.00 560.42 1002.61 543.12
00013865 DELETE   758.43 134.78 388.87 536.24 820.97 365.51 986.74 343.23 889.46 459.31 870.09 557.46 1000.51 538.93
00013866 00000056 756.16 134.82 391.20 537.16 818.50 367.58 981.26 340.52 887.66 459.18 873.36 559.20 999.32 536.52
00013867 00000057 753.22 135.81 391.44 542.05 817.54 369.75 977.79 340.67 888.35 461.83 876.76 562.28 999.54 538.05
00013868 00000058 751.02 139.46 394.26 545.31 817.42 377.40 974.85 345.85 888.71 468.01 879.54 566.75 999.97 540.56
00013869 00000059 747.78 145.91 395.00 542.51 816.39 385.67 973.02 351.75 889.79 475.79 883.22 572.68 1000.27 544.90
00013870 00000060 746.19 153.68 394.37 535.57 814.85 393.00 970.83 355.43 890.15 480.76 885.88 574.56 1003.40 543.78
00013871 00000061 744.15 159.22 397.47 535.87 815.56 399.97 970.64 357.98 894.63 486.72 891.35 579.36 1008.86 545.16
00013872 00000062 743.89 158.75 399.42 539.11 815.53 405.69 972.63 359.82 897.91 491.93 895.39 583.95 1015.21 546.77
00013873 00000063 743.44 161.89 400.51 539.19 817.24 408.31 974.88 360.77 901.91 494.52 898.62 586.51 1019.27 548.04
00013874 00000064 744.53 165.38 401.96 540.16 820.42 410.36 977.45 363.02 905.28 497.72 900.52 588.45 1021.44 550.34
00013875 00000065 746.16 169.72 403.67 538.69 823.75 411.73 980.81 364.21 909.76 500.75 905.15 591.33 1025.32 553.01
00013876 00000066 749.25 173.60 405.14 532.25 826.81 412.74 986.56 364.89 914.27 504.67 908.19 593.04 1029.85 554.46
00013877 00000067 750.80 175.03 407.55 528.82 829.18 414.22 992.25 364.42 918.46 505.65 911.18 594.96 1035.11 554.70
00013878 00000068 751.27 175.58 408.36 530.76 829.79 414.44 993.34 364.29 919.78 506.05 912.67 594.65 1039.05 553.92
00013879 00000069 750.81 173.64 410.72 537.58 829.89 415.07 995.18 363.93 920.89 506.46 914.34 597.80 1041.67 556.28
00013880 00000070 751.98 174.85 410.55 535.40 831.38 416.04 998.20 365.97 922.37 508.08 914.84 598.25 1043.07 557.48
00013881 00000071 752.34 174.63 411.17 537.02 832.19 416.40 999.67 366.26 923.49 509.98 916.02 598.63 1045.34 557.68
00013882 00000072 752.46 175.47 411.93 536.63 832.67 416.85 1001.38 366.80 924.43 510.96 916.75 599.83 1046.11 558.89
00013883 00000073 752.72 176.58 412.64 535.47 833.33 417.23 1002.38 367.35 925.32 511.37 916.78 600.03 1046.58 559.17
00013884 00000074 753.19 178.34 414.55 538.55 834.58 415.48 999.30 369.72 929.77 510.28 915.95 604.97 1042.17 568.50
00013885 00000075 753.01 178.76 414.31 542.05 834.82 413.21 997.23 370.05 927.53 510.26 917.65 606.51 1036.17 572.39
00013886 00000076 753.37 178.04 413.78 547.47 834.92 413.20 996.30 370.18 926.61 509.92 918.26 608.69 1035.52 574.65
00013887 00000077 753.10 177.98 413.81 547.41 835.52 414.73 996.76 372.14 927.48 510.85 917.19 606.07 1038.48 571.94
00013888 00000078 751.90 182.38 414.41 536.42 834.96 416.73 998.13 374.48 927.40 513.20 911.96 601.09 1040.67 566.85
00013889 00000079 751.85 184.91 413.88 531.44 834.79 417.88 996.98 375.92 926.66 514.71 911.59 599.92 1039.95 565.89
00013890 00000080 751.07 184.02 415.02 531.43 834.06 418.17 996.21 375.34 926.67 514.76 911.31 600.09 1040.33 565.36
00013891 00000081 750.24 183.76 415.56 532.51 833.61 418.46 994.46 374.61 926.05 514.90 912.48 600.04 1040.35 564.42
00013892 00000082 748.59 183.59 416.53 532.90 833.53 417.90 993.62 374.06 926.15 514.44 913.02 600.65 1037.36 565.22
00013893 00000083 749.00 182.66 417.38 532.91 835.09 417.21 993.96 374.38 927.23 515.04 916.33 602.99 1034.79 568.71
00013894 00000084 747.94 180.75 419.10 536.07 835.98 420.15 994.07 373.39 930.09 516.85 920.92 607.73 1036.36 570.67
00013895 00000085 748.36 178.46 417.95 537.98 838.19 421.08 995.38 373.28 933.43 517.70 925.32 609.77 1038.70 572.19
00013896 00000086 750.62 175.44 412.87 536.70 837.20 422.07 1001.12 368.32 932.53 519.51 927.94 604.99 1049.62 561.41
00013897 00000087 750.08 174.73 411.27 533.53 838.76 420.49 1004.11 366.63 937.23 518.74 928.91 602.32 1052.32 558.63
00013898 00000088 750.80 175.29 408.74 529.06 839.35 419.88 1006.64 365.94 939.65 517.52 928.74 600.20 1054.69 556.18
00013899 00000089 750.93 177.44 408.52 526.35 839.03 419.37 1008.24 367.69 938.72 518.35 926.34 599.85 1053.05 557.67
00013900 00000090 749.08 181.67 413.38 530.08 840.66 418.71 1003.71 376.55 939.18 519.72 917.80 603.11 1042.27 569.58
00013901 00000091 748.23 180.51 413.05 538.55 837.47 416.46 1003.20 378.84 933.71 521.91 913.08 605.84 1037.00 575.78
00013902 00000092 747.37 180.54 409.41 542.22 835.24 415.16 1002.87 383.00 928.32 522.90 906.30 605.70 1031.60 579.32
00013903 00000093 748.28 185.54 405.51 537.68 832.70 414.73 1000.57 386.82 921.82 525.14 897.86 605.36 1024.26 582.29
00013904 00000094 748.35 186.64 398.21 535.23 827.41 414.59 996.70 389.67 914.87 525.27 889.80 605.86 1015.23 585.48
00013905 00000095 738.97 190.06 403.05 529.84 823.92 419.83 987.83 388.60 912.23 533.16 891.37 614.97 1013.24 588.86
00013906 00000096 738.33 190.94 403.28 527.60 822.06 419.35 986.26 388.67 910.26 532.95 889.53 614.28 1012.03 588.64
00013907 00000097 737.46 190.71 403.83 526.41 821.33 419.24 984.95 388.48 909.77 533.19 889.41 613.35 1011.96 587.54
00013908 00000098 735.87 188.93 405.88 527.87 819.96 419.54 983.77 387.09 909.66 532.65 890.25 613.24 1014.01 585.76
00013909 00000099 733.83 188.52 406.40 528.32 819.48 420.26 981.45 386.52 909.91 531.63 891.48 613.10 1013.99 584.49
00013910 00000100 731.24 189.17 407.77 526.89 818.31 419.55 981.42 385.46 909.65 530.91 891.27 613.13 1014.13 584.01
00013911 00000101 730.11 188.09 408.26 527.39 818.35 419.13 980.57 385.02 909.49 530.15 891.77 612.62 1013.78 583.42
00013912 00000102 729.85 187.62 408.94 526.52 817.96 419.45 980.58 383.36 910.51 529.72 892.82 612.14 1016.42 581.26
00013913 00000103 729.78 188.68 409.59 523.01 819.71 417.55 981.11 379.88 912.70 528.60 896.79 611.57 1017.08 579.44
00013914 00000104 728.65 187.66 410.63 522.45 819.63 417.56 980.86 377.61 913.43 528.55 899.04 611.78 1018.82 577.64
00013915 00000105 726.82 190.21 410.21 521.63 819.39 420.01 980.17 377.33 914.80 530.89 900.70 613.33 1020.63 576.80
00013916 00000106 724.87 193.33 411.52 520.46 818.28 424.04 978.96 379.99 913.79 534.19 901.57 615.23 1021.54 577.44
00013917 00000107 723.67 196.86 413.18 521.63 817.63 427.16 978.28 382.36 913.12 536.40 900.60 616.37 1022.57 578.01
00013918 00000108 724.60 197.07 410.26 524.04 816.25 426.99 973.75 385.32 908.37 535.49 895.95 614.24 1017.90 578.61
00013919 00000109 724.32 193.71 408.49 527.39 813.36 424.22 970.59 387.71 900.70 532.56 889.68 613.91 1010.05 582.66
CROP_BBOX: 548 0 1375 843
