Video ID: 	Lp9H-0EKCvs
H: 	1080
W: 	1920
FPS: 	23.976023976023978

FRAME INDEX X0 Y0 W H [Landmarks (5 Points)]

00021436 00000000 784.77 159.94 430.42 702.38 885.48 520.68 1090.94 510.89 994.65 656.62 908.91 709.56 1092.04 700.33
00021437 00000001 790.15 152.43 434.50 701.70 893.72 511.80 1101.50 503.10 1003.53 647.91 916.59 701.57 1102.71 693.15
00021438 00000002 802.82 147.63 431.56 700.72 899.57 505.68 1105.89 494.67 1008.25 635.73 925.77 696.67 1111.06 686.35
00021439 00000003 810.08 149.48 433.87 691.91 909.94 496.99 1116.77 484.93 1019.45 624.40 936.20 688.29 1121.22 677.39
00021440 DELETE   822.91 143.93 433.94 693.22 923.87 489.97 1128.00 478.16 1030.53 618.53 950.60 685.24 1129.01 674.38
00021441 00000005 826.15 133.64 436.68 706.26 930.79 486.63 1133.14 474.46 1035.84 614.62 957.99 682.26 1138.08 670.64
00021442 00000006 831.34 133.64 435.68 701.11 937.55 484.91 1141.84 474.85 1042.55 612.96 962.43 679.16 1144.91 669.32
00021443 00000007 832.47 130.59 439.53 697.43 943.24 479.92 1149.46 471.22 1049.51 608.32 966.07 675.04 1149.46 666.51
00021444 00000008 837.09 127.08 439.54 697.78 949.95 474.64 1155.34 467.79 1055.37 599.54 971.73 671.77 1152.72 664.50
00021445 00000009 854.15 112.36 434.02 716.90 959.01 469.05 1167.47 463.63 1068.63 599.51 978.61 669.53 1163.76 664.08
00021446 00000010 859.82 109.83 432.38 715.29 968.19 463.13 1174.12 458.44 1077.92 594.17 986.53 663.34 1170.65 658.40
00021447 00000011 867.15 113.55 430.63 706.81 976.83 459.01 1180.16 452.63 1084.16 587.11 998.42 659.04 1177.00 652.61
00021448 00000012 873.46 112.17 433.63 705.25 987.45 458.74 1186.69 449.61 1094.14 581.85 1009.51 656.27 1184.31 647.65
00021449 00000013 878.56 115.23 435.52 701.31 995.42 460.41 1200.84 452.08 1109.47 587.82 1014.64 655.96 1198.43 648.18
00021450 00000014 887.19 126.46 434.85 689.69 1006.39 470.54 1209.88 461.32 1119.59 595.42 1028.27 661.31 1208.40 652.76
00021451 00000015 894.55 129.83 434.87 682.83 1012.42 471.70 1215.60 463.57 1123.96 594.17 1033.33 660.00 1213.84 652.04
00021452 00000016 899.44 126.50 432.63 682.24 1016.95 465.23 1220.16 457.85 1128.69 587.18 1038.65 656.30 1218.96 648.87
00021453 00000017 901.84 122.82 432.67 686.57 1022.86 459.48 1224.49 453.29 1134.91 579.36 1043.98 655.49 1219.80 649.05
00021454 00000018 904.86 118.61 433.69 697.35 1029.73 456.66 1228.78 452.78 1141.39 578.91 1049.95 656.67 1223.09 651.79
00021455 00000019 905.51 119.39 440.44 713.63 1037.47 455.93 1235.98 454.20 1150.21 582.30 1057.61 663.40 1231.22 660.19
00021456 00000020 925.94 109.51 428.37 726.56 1043.86 457.57 1244.09 458.13 1155.54 588.09 1058.90 670.59 1233.61 670.57
00021457 00000021 927.96 109.91 429.81 729.45 1045.83 460.36 1248.25 461.75 1158.00 591.08 1061.46 674.32 1236.17 674.95
00021458 00000022 929.40 110.80 431.30 734.10 1045.91 464.90 1253.10 468.81 1157.49 599.06 1061.12 677.99 1238.18 680.54
00021459 00000023 931.25 119.48 431.46 725.12 1046.90 474.85 1256.72 474.58 1159.76 605.91 1060.58 682.05 1239.56 681.32
00021460 00000024 933.19 124.81 430.43 716.60 1047.50 484.25 1259.10 480.51 1161.10 611.03 1061.18 683.94 1243.86 680.33
00021461 00000025 933.73 125.09 431.03 713.55 1048.26 484.63 1260.14 479.63 1161.97 610.73 1063.02 683.48 1245.10 678.77
00021462 00000026 934.93 118.32 430.03 715.97 1048.69 476.37 1262.21 472.46 1163.49 605.34 1063.50 677.72 1247.04 673.81
00021463 00000027 934.67 116.91 431.42 712.12 1048.46 469.58 1260.87 465.76 1162.50 595.78 1062.50 667.29 1249.95 663.20
00021464 00000028 939.04 108.98 430.86 715.17 1052.78 462.03 1262.72 458.09 1165.93 585.42 1067.82 661.96 1252.78 657.56
00021465 00000029 939.29 109.81 432.87 715.42 1057.59 453.72 1257.82 450.15 1162.92 573.86 1075.85 658.39 1242.39 654.85
00021466 00000030 938.11 103.57 431.76 721.00 1054.21 443.45 1254.22 441.97 1159.27 565.02 1073.05 654.86 1236.33 653.29
00021467 00000031 940.22 99.87 428.26 722.27 1052.34 437.14 1252.46 437.08 1158.32 561.71 1071.39 651.34 1236.53 650.88
00021468 00000032 941.50 99.05 426.42 719.53 1052.14 434.01 1252.23 433.98 1157.82 558.95 1070.67 647.52 1237.95 647.16
00021469 00000033 944.13 100.39 424.35 718.74 1054.17 433.58 1253.53 433.96 1160.77 559.33 1074.81 648.82 1243.46 648.40
00021470 00000034 943.71 91.85 428.26 719.64 1060.19 428.41 1260.73 434.14 1167.75 558.77 1072.79 645.20 1248.34 649.24
00021471 00000035 948.21 104.26 426.15 710.85 1060.90 436.67 1259.32 435.47 1168.70 561.42 1081.23 648.23 1250.17 646.41
00021472 00000036 948.86 105.04 426.92 707.71 1061.50 438.28 1259.89 435.75 1169.66 561.29 1082.41 648.20 1251.07 645.34
00021473 00000037 948.04 106.63 427.30 706.75 1061.32 438.37 1260.02 435.97 1169.82 561.47 1082.31 648.64 1251.11 645.85
00021474 00000038 949.05 107.63 427.21 706.99 1061.62 439.30 1260.20 436.30 1169.93 561.38 1082.71 648.92 1252.67 645.54
00021475 00000039 947.98 100.43 429.90 709.06 1062.31 433.96 1264.79 436.07 1172.02 561.30 1078.85 647.75 1256.25 648.82
00021476 00000040 949.43 100.14 429.27 710.81 1063.74 435.18 1264.97 437.43 1172.71 561.28 1080.79 648.77 1256.04 649.96
00021477 00000041 950.53 103.67 429.69 707.44 1065.04 437.22 1266.42 438.58 1173.95 562.52 1083.03 650.43 1256.77 650.97
00021478 00000042 951.35 106.32 428.92 708.86 1066.29 442.04 1266.37 443.13 1175.12 565.21 1084.60 655.22 1255.24 655.71
00021479 00000043 951.11 111.81 430.09 708.84 1066.47 446.20 1267.55 449.18 1175.33 568.72 1081.86 658.62 1253.97 660.81
00021480 00000044 952.42 119.91 429.28 706.38 1067.82 451.33 1267.13 454.42 1175.49 574.16 1083.01 663.40 1253.60 665.74
00021481 00000045 953.33 126.81 429.49 703.62 1069.68 457.66 1269.79 461.72 1175.66 581.50 1081.77 666.34 1253.26 669.33
00021482 00000046 956.49 127.68 426.51 706.47 1069.82 463.85 1272.91 467.19 1177.35 587.98 1084.62 673.55 1257.50 675.64
00021483 DELETE   958.12 137.67 427.50 704.98 1070.94 470.78 1274.75 472.49 1178.29 599.95 1087.24 683.81 1259.34 684.76
00021484 00000048 960.39 146.63 429.73 709.73 1074.45 483.44 1276.70 481.16 1181.44 613.03 1092.21 695.17 1263.70 692.69
00021485 DELETE   965.92 154.21 428.00 715.97 1079.11 494.53 1278.19 494.27 1183.93 623.96 1094.13 703.66 1265.69 702.28
00021486 DELETE   961.44 148.75 434.69 721.51 1077.23 502.21 1281.64 504.75 1188.24 635.45 1095.97 715.69 1270.99 716.19
00021487 00000051 966.57 160.03 430.37 714.45 1085.55 510.25 1280.49 508.20 1189.09 634.62 1101.22 713.80 1266.45 710.51
00021488 DELETE   968.61 155.98 429.38 707.84 1085.73 501.20 1282.40 499.31 1190.13 625.97 1100.12 702.87 1269.83 699.88
00021489 00000053 968.81 148.13 429.66 697.67 1082.79 488.19 1284.52 486.31 1189.30 614.80 1098.55 691.73 1272.19 689.08
00021490 00000054 963.75 136.94 431.00 693.90 1080.59 475.48 1283.85 473.61 1189.91 601.58 1097.40 678.67 1270.50 676.20
00021491 00000055 961.54 133.86 429.46 682.09 1078.71 464.20 1280.64 463.33 1188.52 588.11 1096.10 664.49 1268.69 662.94
00021492 DELETE   955.62 111.49 434.45 696.16 1071.39 444.36 1273.91 441.86 1182.67 566.41 1091.73 653.13 1264.87 650.57
00021493 00000057 956.48 104.74 427.34 688.56 1064.88 425.80 1260.05 422.70 1168.01 544.33 1090.41 637.64 1251.73 634.30
00021494 00000058 948.99 86.58 428.19 680.37 1051.64 404.43 1252.44 399.22 1158.57 523.93 1082.20 617.34 1246.83 612.32
00021495 00000059 944.30 77.16 429.17 674.68 1047.81 385.92 1244.78 378.56 1152.56 501.23 1073.27 594.78 1245.07 588.30
00021496 DELETE   930.05 76.04 437.17 653.61 1033.73 370.29 1229.70 358.23 1130.73 481.40 1065.43 580.83 1230.65 569.33
00021497 DELETE   928.37 68.78 434.40 639.06 1028.78 349.49 1222.84 341.06 1122.80 453.69 1056.76 559.00 1221.83 550.34
00021498 DELETE   921.67 59.46 436.79 632.14 1021.40 335.47 1214.88 325.94 1115.77 433.98 1051.26 542.19 1218.61 533.12
00021499 00000063 923.92 55.36 433.54 630.96 1020.76 322.72 1209.34 312.33 1110.34 420.04 1048.24 531.29 1214.08 521.42
00021500 00000064 924.45 52.42 434.00 628.13 1019.27 313.45 1209.22 302.34 1108.18 412.08 1047.64 526.40 1210.07 515.89
00021501 00000065 923.01 52.58 433.56 628.89 1017.62 309.55 1206.29 297.83 1105.06 405.61 1046.00 523.91 1207.73 512.98
00021502 00000066 923.65 53.62 431.35 630.03 1016.66 307.95 1205.20 296.13 1102.14 403.03 1044.23 525.59 1203.75 514.47
00021503 00000067 923.68 54.15 430.48 628.93 1016.31 307.71 1204.63 295.52 1101.16 402.23 1044.04 525.39 1202.62 514.04
00021504 00000068 924.63 54.08 429.73 627.64 1016.50 307.48 1204.66 295.13 1101.21 401.78 1044.42 525.41 1202.28 513.97
00021505 00000069 924.55 54.75 430.16 625.40 1016.74 307.07 1205.43 295.00 1101.83 402.08 1045.07 525.03 1202.61 513.93
00021506 00000070 925.02 53.52 431.19 627.75 1017.43 308.03 1207.49 295.67 1103.13 403.66 1046.57 526.83 1204.63 515.43
00021507 00000071 925.20 54.55 431.01 628.12 1018.24 309.77 1208.16 297.81 1104.27 405.75 1046.81 528.52 1205.06 517.54
00021508 00000072 925.63 54.84 431.02 630.44 1019.04 311.05 1209.29 298.44 1106.15 408.63 1048.61 531.99 1205.47 520.53
00021509 00000073 926.50 55.23 430.19 632.01 1020.48 311.65 1210.40 299.51 1107.39 409.95 1049.64 533.15 1205.62 521.94
00021510 00000074 927.33 54.63 430.08 635.33 1021.75 311.38 1211.18 299.22 1107.88 411.16 1050.41 534.52 1205.88 523.22
00021511 00000075 927.15 54.75 430.20 636.08 1021.26 312.17 1211.85 299.77 1108.01 411.39 1049.89 535.35 1207.08 523.96
00021512 00000076 927.32 54.69 431.29 633.98 1021.27 313.13 1211.47 300.29 1108.50 412.19 1051.32 532.64 1210.33 520.66
00021513 00000077 927.99 54.85 431.68 629.02 1020.45 314.22 1213.03 303.42 1108.54 412.88 1047.30 526.07 1215.42 515.86
00021514 00000078 927.95 54.03 433.52 630.20 1021.63 314.78 1212.69 303.82 1109.67 413.40 1048.45 523.98 1216.45 513.47
00021515 00000079 928.75 54.23 432.45 632.17 1021.80 314.16 1213.54 303.83 1109.40 413.40 1047.55 526.12 1214.91 516.27
00021516 00000080 929.80 52.19 429.32 637.17 1021.29 313.13 1213.88 301.27 1108.12 410.90 1049.16 532.62 1210.80 521.92
00021517 00000081 931.56 52.66 425.50 631.76 1021.70 312.41 1215.00 300.62 1108.40 409.64 1049.34 531.48 1210.46 521.18
00021518 00000082 931.48 53.87 425.61 632.20 1023.37 311.56 1216.66 300.28 1110.66 409.72 1050.74 530.32 1212.61 520.21
00021519 00000083 930.50 56.92 425.99 638.72 1025.97 310.85 1215.49 298.34 1111.51 410.57 1052.96 535.28 1209.69 524.08
00021520 00000084 930.50 56.38 427.66 638.84 1024.74 314.21 1215.48 301.88 1110.76 413.28 1051.39 537.04 1211.72 526.03
00021521 00000085 932.08 56.88 427.82 639.30 1024.88 318.54 1216.15 305.65 1111.07 416.47 1052.49 539.51 1214.09 528.24
00021522 00000086 934.26 59.78 426.74 639.53 1025.94 321.83 1217.43 308.07 1111.26 421.86 1054.02 542.44 1216.79 530.25
00021523 00000087 934.21 58.45 428.07 642.37 1027.58 324.60 1217.22 313.14 1112.86 427.17 1055.01 543.04 1216.82 532.62
00021524 00000088 934.91 61.83 430.06 635.54 1030.04 328.76 1220.09 319.30 1116.23 429.95 1057.44 542.93 1218.97 533.88
00021525 00000089 936.55 57.64 430.34 640.67 1033.09 332.55 1224.94 325.65 1119.94 436.08 1058.23 544.91 1221.81 538.11
00021526 00000090 939.06 59.99 429.55 649.56 1036.95 333.20 1227.04 327.03 1121.49 436.21 1061.29 549.66 1222.86 543.13
00021527 00000091 946.01 60.29 439.92 657.13 1038.26 331.55 1225.10 321.88 1113.45 437.62 1061.38 551.36 1215.71 543.69
00021528 00000092 946.81 60.22 441.82 658.00 1041.53 331.55 1229.30 322.93 1118.78 438.71 1065.08 551.61 1221.81 544.68
00021529 00000093 947.93 60.98 443.40 655.69 1043.74 331.02 1233.28 323.07 1121.67 438.99 1068.75 551.05 1226.11 544.53
00021530 00000094 949.90 60.73 444.21 653.45 1045.04 330.92 1235.40 322.98 1123.35 438.43 1070.66 550.15 1228.34 543.59
00021531 00000095 951.39 59.96 443.59 652.83 1046.16 331.09 1237.31 323.29 1124.96 439.10 1071.49 549.73 1230.07 543.27
00021532 00000096 952.26 59.63 444.47 652.98 1047.38 331.13 1238.87 323.47 1127.08 440.22 1072.86 550.07 1232.22 543.76
00021533 00000097 953.92 60.60 444.36 652.09 1049.19 331.25 1241.15 324.41 1128.91 440.99 1074.04 550.11 1233.91 544.55
00021534 00000098 955.97 61.48 443.57 651.26 1050.65 331.50 1242.79 324.97 1130.22 441.56 1075.75 550.14 1235.60 544.80
00021535 00000099 957.88 62.19 441.64 650.88 1051.61 333.30 1244.02 326.85 1131.40 443.06 1075.69 550.57 1236.72 545.35
00021536 00000100 957.06 63.09 443.10 649.31 1050.68 335.12 1243.44 328.38 1130.57 443.78 1074.74 550.77 1237.67 545.29
00021537 00000101 956.15 63.79 441.03 648.58 1044.25 337.38 1236.74 330.16 1119.48 442.99 1065.89 551.83 1228.77 546.17
00021538 00000102 951.85 64.16 440.16 650.42 1036.55 338.65 1225.15 331.95 1103.75 442.32 1055.07 553.28 1214.87 548.18
00021539 00000103 950.55 67.01 438.87 650.07 1028.85 341.21 1213.19 334.90 1087.41 444.02 1046.26 555.71 1203.63 550.91
00021540 00000104 949.70 68.88 440.04 651.55 1024.75 343.38 1206.13 336.96 1078.05 445.73 1040.56 558.08 1195.32 553.45
00021541 00000105 950.43 69.90 439.82 652.76 1024.54 344.49 1204.86 338.86 1075.42 447.13 1038.84 559.56 1192.43 555.68
00021542 00000106 953.63 72.33 438.15 651.22 1027.09 346.76 1210.16 341.34 1079.79 448.35 1042.31 560.92 1197.71 557.27
00021543 00000107 962.51 77.59 434.46 646.81 1039.68 344.71 1226.56 341.27 1096.80 447.99 1052.86 560.02 1209.35 558.47
00021544 00000108 968.95 86.90 437.72 642.48 1054.76 345.10 1246.01 342.53 1123.50 454.17 1072.60 562.84 1232.34 561.66
00021545 00000109 980.00 106.87 436.47 627.38 1069.76 356.12 1265.43 347.55 1154.41 452.94 1093.10 572.83 1258.41 564.05
00021546 00000110 984.61 109.31 435.95 628.91 1071.18 363.59 1266.86 354.50 1154.56 459.70 1094.16 577.49 1262.95 568.21
00021547 00000111 986.48 114.58 437.89 629.78 1070.27 372.04 1265.52 368.74 1149.33 470.39 1088.24 581.98 1260.40 577.53
00021548 00000112 989.45 113.77 440.73 639.46 1071.74 378.71 1266.81 376.56 1144.95 476.79 1086.72 589.71 1261.65 586.01
00021549 00000113 995.08 121.23 440.15 637.69 1079.66 386.59 1275.41 383.12 1155.56 483.25 1094.39 594.39 1273.05 589.50
00021550 00000114 999.56 121.14 443.33 643.58 1091.83 388.16 1288.56 387.32 1171.65 492.29 1106.70 600.47 1282.75 598.08
00021551 00000115 1011.20 121.40 447.14 651.17 1103.41 392.61 1300.98 390.74 1184.32 504.14 1119.44 605.50 1293.13 603.75
00021552 00000116 1017.56 124.16 443.48 658.40 1111.25 397.54 1305.91 397.66 1186.35 506.61 1124.48 611.72 1290.32 611.95
00021553 00000117 1020.50 126.50 437.00 662.57 1109.72 401.38 1301.48 402.30 1177.24 509.70 1120.69 619.77 1278.07 621.19
00021554 00000118 1015.36 123.40 441.38 671.54 1102.70 404.42 1297.68 407.79 1166.47 516.91 1110.25 624.02 1278.47 627.31
00021555 00000119 1015.15 126.69 439.37 670.55 1099.64 406.44 1292.84 411.50 1160.88 521.29 1105.42 626.30 1272.89 631.10
00021556 00000120 1016.17 132.44 438.59 668.12 1098.07 411.91 1292.48 418.38 1161.52 527.61 1103.14 630.87 1272.16 637.02
00021557 00000121 1020.91 133.60 435.18 669.43 1103.22 414.87 1297.83 421.80 1170.29 533.12 1108.89 633.61 1279.67 640.19
00021558 00000122 1028.90 139.69 434.66 665.46 1116.87 419.01 1312.57 426.11 1190.62 539.69 1125.45 636.94 1294.20 643.78
00021559 00000123 1034.84 146.21 434.62 663.29 1133.95 422.18 1335.23 426.50 1225.50 543.82 1146.28 645.57 1319.39 648.59
00021560 00000124 1041.82 152.77 436.04 658.59 1144.23 430.90 1344.79 432.74 1239.16 548.95 1162.43 651.69 1333.69 652.20
00021561 00000125 1042.94 152.21 436.02 665.68 1143.86 433.65 1345.80 435.58 1238.35 552.27 1160.78 655.92 1335.43 656.37
00021562 00000126 1038.86 152.20 435.24 667.37 1139.15 431.34 1338.58 437.48 1227.69 552.50 1150.51 654.18 1320.58 658.79
00021563 00000127 1035.32 155.50 436.24 673.78 1127.06 431.91 1321.32 443.09 1199.14 556.39 1134.15 656.26 1294.70 667.07
00021564 00000128 1034.50 155.15 431.12 683.55 1120.93 432.41 1312.67 443.72 1183.14 555.12 1127.74 663.37 1282.63 674.24
00021565 00000129 1034.55 156.56 431.28 682.33 1120.47 434.39 1313.84 445.19 1183.54 556.12 1127.96 664.21 1285.15 674.57
00021566 00000130 1037.11 159.23 432.89 677.80 1124.09 436.36 1319.62 446.46 1192.74 557.55 1132.24 664.62 1293.92 674.19
00021567 00000131 1038.92 158.62 435.39 676.44 1128.48 437.02 1324.09 444.93 1200.87 557.99 1138.91 664.77 1303.09 672.30
00021568 00000132 1038.72 158.47 437.10 676.41 1129.49 436.68 1325.59 444.38 1203.69 559.58 1140.80 664.56 1306.03 671.92
00021569 00000133 1038.60 157.83 434.94 675.54 1127.71 437.49 1323.72 445.66 1200.93 558.57 1137.91 663.71 1302.28 671.57
00021570 00000134 1035.97 156.66 433.22 677.51 1123.42 437.44 1319.62 446.98 1195.34 560.33 1132.09 663.33 1296.34 672.36
00021571 00000135 1034.02 155.56 434.68 679.95 1121.05 438.29 1317.41 447.77 1193.79 561.89 1130.79 664.68 1294.41 673.72
00021572 00000136 1034.62 155.82 433.82 679.25 1122.35 439.48 1318.80 447.62 1198.34 563.69 1133.56 665.21 1299.00 672.99
00021573 00000137 1035.95 154.57 435.79 679.42 1128.34 438.07 1324.14 444.75 1208.08 563.91 1140.64 664.06 1307.54 670.54
00021574 00000138 1036.11 153.27 437.93 677.71 1131.06 437.38 1326.69 442.73 1212.77 561.06 1144.00 661.88 1312.38 667.13
00021575 00000139 1034.34 150.75 435.79 677.46 1126.07 434.21 1323.28 440.93 1207.21 558.78 1136.93 657.67 1306.30 664.30
00021576 00000140 1026.89 149.27 436.36 678.20 1123.15 428.90 1319.26 438.86 1199.94 554.85 1131.60 652.38 1296.42 661.80
00021577 00000141 1025.40 146.20 436.82 676.11 1120.55 427.24 1317.52 437.88 1197.14 553.28 1127.42 649.10 1294.67 659.16
00021578 00000142 1025.37 145.25 438.25 678.10 1119.63 430.85 1316.80 440.38 1196.97 557.46 1128.45 651.70 1295.94 660.77
00021579 00000143 1026.27 150.60 437.16 677.05 1120.01 435.24 1316.32 443.39 1198.57 560.65 1131.33 657.06 1296.57 664.94
00021580 00000144 1026.36 151.83 435.21 678.69 1118.10 436.82 1314.18 444.61 1196.21 562.00 1131.05 662.89 1291.50 670.64
00021581 00000145 1022.96 149.56 436.15 678.11 1115.01 435.06 1312.21 443.53 1192.32 561.36 1127.46 661.23 1288.10 669.48
00021582 00000146 1019.42 148.57 436.53 678.27 1112.40 432.78 1309.92 442.08 1189.05 559.98 1123.62 658.61 1284.11 667.58
00021583 00000147 1020.15 145.28 435.79 683.90 1112.73 431.32 1309.35 441.31 1188.56 560.41 1123.18 658.27 1283.94 667.87
00021584 00000148 1021.90 145.52 434.11 684.37 1113.04 434.94 1310.77 444.01 1191.44 564.62 1124.62 660.73 1288.11 669.44
00021585 00000149 1020.07 146.64 436.58 687.39 1113.35 438.35 1311.57 445.55 1195.33 571.08 1126.61 664.31 1293.39 671.24
00021586 00000150 1022.77 145.47 437.13 692.67 1116.05 439.16 1314.78 446.77 1198.38 573.34 1129.12 666.09 1295.94 673.41
00021587 00000151 1024.82 145.31 435.38 692.53 1119.45 436.28 1316.88 446.29 1199.35 568.91 1130.16 663.48 1294.37 673.01
00021588 00000152 1026.52 143.03 432.80 691.51 1121.24 429.72 1319.54 442.91 1199.07 562.70 1128.70 659.51 1291.14 671.94
00021589 00000153 1026.93 143.45 432.11 688.00 1124.18 425.73 1322.36 441.19 1202.98 560.77 1129.29 655.34 1292.49 669.68
00021590 00000154 1030.41 143.76 431.92 688.33 1127.24 428.33 1324.73 443.58 1206.26 562.50 1133.21 657.66 1294.94 671.97
00021591 00000155 1029.65 147.99 436.10 684.15 1129.32 434.02 1326.23 445.62 1212.24 566.12 1138.84 662.19 1301.95 673.14
00021592 00000156 1033.92 144.25 430.12 690.47 1141.98 436.76 1336.93 448.12 1231.26 564.50 1147.89 663.04 1312.30 672.66
00021593 00000157 1034.30 146.74 433.29 690.29 1147.16 438.14 1343.32 449.91 1239.67 566.88 1152.14 663.93 1319.29 673.81
00021594 00000158 1034.55 143.02 434.88 695.16 1150.77 437.46 1350.90 448.65 1248.91 566.86 1156.44 664.08 1327.46 673.12
00021595 00000159 1033.48 140.79 436.36 693.51 1151.15 436.19 1353.86 445.78 1253.64 564.46 1157.80 660.90 1332.66 668.52
00021596 00000160 1033.77 138.97 434.66 692.22 1150.28 432.39 1351.72 441.70 1252.19 559.59 1157.42 656.86 1332.27 664.23
00021597 00000161 1032.67 135.76 428.79 696.18 1146.32 426.46 1341.93 438.07 1242.73 555.43 1153.04 655.60 1320.77 665.22
00021598 00000162 1026.84 138.00 432.34 705.90 1138.38 423.34 1336.05 430.88 1235.86 550.11 1151.51 661.71 1312.88 667.13
00021599 00000163 1026.02 133.24 437.51 705.58 1134.28 413.56 1329.84 426.38 1215.16 543.56 1144.18 655.14 1296.64 667.59
