Video ID: 	ATARNwcX8QU
H: 	2160
W: 	3840
FPS: 	25.0

FRAME INDEX X0 Y0 W H [Landmarks (5 Points)]

00056578 00000000 1470.85 472.36 729.84 983.88 1862.61 952.13 2127.28 921.73 2073.92 1132.45 1846.95 1245.58 2042.65 1234.27
00056579 00000001 1473.12 484.29 757.22 996.24 1870.21 967.49 2146.82 941.48 2085.78 1161.17 1843.13 1271.82 2037.27 1263.75
00056580 00000002 1482.94 512.53 764.48 992.24 1883.98 967.06 2150.58 952.58 2084.14 1180.08 1842.20 1288.01 2028.80 1287.69
00056581 00000003 1484.39 490.93 777.62 1022.05 1884.50 961.93 2155.76 952.90 2078.26 1182.66 1837.63 1290.80 2025.14 1294.45
00056582 00000004 1484.66 492.54 775.82 1018.12 1865.96 961.90 2150.57 950.09 2062.49 1180.61 1817.22 1285.49 2024.46 1286.88
00056583 00000005 1472.80 484.03 778.22 1024.17 1841.63 944.59 2133.79 941.59 2034.81 1165.77 1791.10 1271.75 2005.00 1279.40
00056584 00000006 1439.75 489.21 785.97 1016.53 1806.81 925.37 2123.42 920.67 2024.18 1154.44 1762.38 1274.50 2001.35 1277.20
00056585 DELETE   1420.50 484.16 790.51 1009.96 1793.09 922.32 2106.83 920.67 2003.69 1149.27 1746.19 1263.99 1985.39 1268.41
00056586 DELETE   1384.72 475.52 801.35 1013.77 1774.46 913.69 2075.67 909.81 1977.18 1140.77 1735.65 1260.11 1955.82 1258.86
00056587 DELETE   1358.70 462.44 802.74 1012.65 1754.59 895.28 2053.57 891.95 1962.29 1128.67 1719.43 1240.68 1914.33 1244.70
00056588 00000010 1337.47 459.46 792.15 1010.32 1731.61 880.33 2032.93 879.10 1944.96 1114.36 1710.41 1236.55 1909.67 1240.77
00056589 DELETE   1316.33 448.17 790.66 1020.89 1718.29 867.00 2017.47 869.85 1930.37 1105.96 1705.81 1239.66 1899.47 1246.66
00056590 DELETE   1297.90 417.45 776.78 1030.73 1673.77 860.24 1988.80 851.35 1908.19 1090.16 1683.89 1247.32 1879.33 1242.55
00056591 DELETE   1263.19 412.68 794.26 1026.50 1654.08 853.31 1970.41 852.57 1887.27 1078.76 1651.04 1223.03 1850.37 1223.99
00056592 00000014 1250.05 410.24 794.58 1024.51 1642.09 839.56 1955.37 838.75 1870.01 1063.36 1631.58 1209.63 1836.13 1210.93
00056593 00000015 1247.95 403.39 776.63 1019.66 1638.58 838.63 1940.27 839.32 1862.50 1047.78 1627.86 1196.54 1829.15 1199.18
00056594 00000016 1243.89 407.38 762.08 1005.34 1631.64 842.75 1924.27 835.47 1851.01 1039.53 1619.09 1181.01 1824.10 1178.32
00056595 00000017 1232.47 405.68 763.43 997.57 1627.34 835.75 1916.61 830.72 1845.76 1030.92 1613.95 1170.29 1818.73 1168.81
00056596 00000018 1222.63 402.35 765.50 996.50 1623.11 828.36 1911.25 823.06 1841.59 1032.03 1608.64 1168.92 1810.95 1166.72
00056597 00000019 1215.28 400.39 764.65 999.94 1619.22 829.43 1905.73 823.82 1837.83 1035.85 1604.52 1171.68 1805.51 1169.28
00056598 00000020 1204.86 410.86 771.33 991.21 1614.52 839.49 1904.05 827.93 1835.67 1046.74 1608.39 1179.03 1803.90 1171.62
00056599 00000021 1199.25 405.34 774.02 1001.77 1611.15 855.53 1902.42 833.51 1840.97 1058.00 1617.28 1198.12 1806.28 1181.41
00056600 00000022 1201.71 406.85 770.13 1003.92 1605.00 860.19 1906.05 834.39 1845.10 1060.82 1625.42 1207.20 1817.96 1186.84
00056601 00000023 1200.22 406.11 774.75 1011.95 1603.59 860.20 1910.36 834.39 1851.35 1064.51 1628.69 1214.22 1825.37 1193.97
00056602 00000024 1203.06 401.86 770.80 1018.93 1608.05 864.54 1912.43 837.40 1858.16 1068.64 1635.00 1218.59 1830.02 1197.21
00056603 00000025 1202.81 395.07 775.22 1032.22 1610.72 869.00 1912.98 841.23 1859.93 1070.78 1635.04 1221.90 1828.72 1200.46
00056604 00000026 1206.75 405.70 774.14 1025.19 1614.62 870.82 1920.14 843.90 1866.21 1076.16 1635.75 1225.67 1831.20 1205.13
00056605 00000027 1215.89 406.37 771.90 1027.99 1619.20 872.70 1926.04 849.78 1869.91 1077.33 1641.76 1231.01 1835.21 1213.69
00056606 00000028 1221.30 418.87 772.08 1015.09 1622.01 878.66 1930.21 855.92 1872.91 1079.80 1643.58 1232.17 1837.09 1215.39
00056607 00000029 1222.32 425.11 775.21 1015.52 1629.85 875.21 1930.21 854.62 1871.94 1086.07 1638.56 1227.84 1824.90 1213.66
00056608 00000030 1220.80 413.28 774.30 1035.08 1637.38 870.34 1921.90 849.96 1871.91 1081.50 1639.29 1225.35 1820.51 1210.74
00056609 00000031 1237.40 402.36 757.68 1042.54 1648.61 852.80 1927.59 839.62 1880.52 1058.72 1644.66 1208.79 1830.42 1199.59
00056610 00000032 1255.03 389.39 746.39 1043.08 1657.20 832.21 1932.84 824.33 1883.22 1033.37 1654.62 1190.56 1840.96 1186.05
00056611 00000033 1260.82 386.78 740.12 1041.59 1658.54 822.78 1932.59 822.05 1881.68 1021.44 1654.32 1180.77 1842.84 1182.33
00056612 00000034 1258.82 388.73 742.09 1038.66 1656.20 822.07 1932.83 821.81 1878.81 1020.48 1648.12 1177.88 1841.62 1180.23
00056613 00000035 1252.36 390.19 742.38 1039.24 1651.51 825.40 1925.19 824.09 1874.59 1023.02 1640.59 1177.16 1834.22 1179.13
00056614 00000036 1247.86 389.14 737.06 1037.12 1645.87 825.90 1915.91 827.10 1867.81 1017.26 1633.54 1170.79 1827.95 1175.02
00056615 00000037 1248.37 386.36 729.57 1027.71 1642.32 824.65 1909.07 821.16 1868.31 1007.76 1634.96 1160.99 1827.95 1161.91
00056616 00000038 1236.26 367.88 739.74 1041.46 1643.22 816.44 1905.70 811.22 1869.66 998.55 1634.31 1152.15 1825.89 1151.39
00056617 00000039 1228.64 372.22 745.52 1028.65 1641.93 811.14 1906.43 807.36 1871.83 990.58 1631.70 1142.84 1827.06 1143.20
00056618 00000040 1242.59 355.07 732.68 1018.19 1657.63 804.62 1922.25 794.29 1887.84 1000.18 1625.59 1129.13 1829.71 1131.75
00056619 00000041 1236.18 372.70 733.97 1006.15 1643.88 806.93 1906.65 801.94 1869.20 978.87 1641.97 1133.06 1830.95 1131.39
00056620 00000042 1235.04 365.07 731.24 1008.98 1640.59 806.17 1901.79 800.82 1865.54 970.50 1651.29 1133.61 1832.10 1130.31
00056621 00000043 1239.05 326.66 712.84 1021.92 1653.43 797.59 1913.85 780.38 1873.56 973.35 1661.54 1152.47 1843.66 1149.92
00056622 00000044 1241.11 315.06 709.52 1031.79 1657.02 797.06 1914.20 779.70 1876.25 968.13 1669.63 1151.56 1843.29 1148.84
00056623 00000045 1237.80 316.77 713.30 1037.72 1657.11 793.07 1911.52 778.48 1875.31 968.23 1674.93 1156.08 1841.25 1155.10
00056624 00000046 1234.69 313.93 714.46 1035.38 1654.54 792.90 1909.00 778.37 1876.69 963.69 1672.53 1150.17 1842.08 1149.55
00056625 00000047 1242.26 339.08 727.50 1025.82 1658.42 786.78 1920.37 792.80 1896.53 983.04 1650.15 1134.59 1839.86 1147.74
00056626 00000048 1237.76 333.26 728.05 1035.24 1656.43 783.63 1912.06 793.38 1889.73 981.78 1641.80 1131.26 1828.26 1147.63
00056627 00000049 1237.11 333.68 727.81 1048.00 1653.78 784.38 1905.63 791.46 1881.23 983.91 1636.05 1132.36 1817.50 1147.96
00056628 00000050 1233.32 340.93 728.27 1038.97 1649.89 780.97 1899.58 788.51 1877.45 980.39 1631.22 1129.59 1813.16 1145.46
00056629 00000051 1216.92 350.58 740.60 1033.42 1631.80 781.26 1882.50 793.49 1847.61 965.03 1630.03 1126.24 1804.00 1136.85
00056630 00000052 1227.17 322.23 728.27 1038.27 1642.72 782.27 1891.17 787.71 1865.91 981.86 1630.52 1125.30 1806.62 1138.81
00056631 00000053 1213.25 342.91 736.05 1021.72 1627.86 772.35 1874.74 786.41 1837.15 955.12 1632.45 1118.12 1797.29 1128.33
00056632 00000054 1221.12 331.62 719.01 1006.09 1633.88 771.14 1886.19 777.51 1859.68 976.27 1630.53 1117.26 1807.55 1130.57
00056633 00000055 1215.24 330.71 719.16 1003.85 1626.22 766.92 1882.36 773.35 1855.06 972.52 1625.06 1113.12 1806.26 1126.96
00056634 00000056 1209.82 327.66 721.10 1003.16 1621.67 766.45 1880.83 773.67 1852.90 971.02 1621.78 1108.82 1807.28 1123.59
00056635 00000057 1203.79 313.76 723.48 1009.65 1616.35 766.67 1874.47 775.56 1848.02 961.60 1617.02 1100.69 1806.36 1117.07
00056636 00000058 1202.36 325.77 721.44 997.14 1613.51 760.61 1874.17 772.05 1846.29 959.69 1618.17 1099.78 1809.08 1117.85
00056637 00000059 1195.28 316.07 722.91 1004.70 1608.28 756.88 1869.11 772.62 1843.57 953.36 1622.37 1101.06 1807.69 1121.70
00056638 00000060 1192.12 314.11 722.00 1000.56 1608.52 751.97 1869.15 771.24 1843.00 947.32 1623.22 1103.03 1803.16 1125.87
00056639 00000061 1190.40 301.10 724.51 1009.93 1603.63 751.78 1866.53 769.39 1840.91 938.95 1622.24 1098.26 1806.33 1119.52
00056640 00000062 1190.86 306.54 722.44 1005.22 1602.05 750.74 1869.67 768.22 1839.52 937.24 1618.98 1097.19 1808.44 1118.40
00056641 00000063 1185.53 286.63 723.83 1032.21 1602.93 756.69 1853.94 774.98 1831.86 934.03 1608.27 1089.83 1788.90 1112.77
00056642 00000064 1198.11 311.89 718.28 1015.15 1573.70 754.54 1861.67 769.71 1801.65 948.13 1575.62 1116.70 1777.07 1134.41
00056643 00000065 1187.47 326.92 717.52 1015.01 1568.21 758.78 1854.60 778.89 1793.83 952.87 1563.38 1119.85 1766.32 1141.38
00056644 00000066 1163.64 329.85 743.61 1037.81 1551.03 768.26 1838.02 782.21 1778.66 962.19 1539.36 1128.23 1743.56 1144.08
00056645 00000067 1153.14 344.13 751.81 1033.70 1541.46 778.70 1830.16 787.37 1767.62 972.13 1527.05 1134.58 1732.23 1145.49
00056646 00000068 1152.34 355.58 748.82 1016.43 1528.81 789.27 1827.04 794.18 1760.52 981.91 1511.18 1136.33 1732.99 1145.50
00056647 00000069 1145.08 347.76 756.68 1026.36 1519.58 800.85 1822.13 798.84 1753.31 985.31 1505.19 1141.78 1730.94 1145.17
00056648 00000070 1151.45 359.80 748.75 1020.33 1513.69 808.26 1813.99 809.81 1736.41 992.66 1502.20 1150.28 1719.56 1155.47
00056649 00000071 1144.24 380.93 751.17 1019.98 1520.94 820.27 1805.71 816.18 1733.28 1009.49 1508.31 1162.32 1705.21 1162.37
00056650 00000072 1119.03 389.12 773.11 1030.39 1512.27 830.68 1799.68 818.04 1727.18 1033.66 1493.15 1177.65 1689.55 1170.45
00056651 00000073 1117.04 386.65 770.73 1046.56 1497.87 845.69 1786.12 826.89 1713.19 1043.86 1480.55 1192.14 1679.17 1181.15
00056652 00000074 1103.15 400.96 780.06 1039.06 1489.43 857.28 1780.10 825.88 1715.39 1058.84 1477.16 1202.55 1677.55 1181.60
00056653 00000075 1103.60 406.04 779.98 1035.24 1489.47 861.75 1780.69 824.22 1718.33 1066.52 1475.96 1207.86 1676.70 1182.21
00056654 00000076 1109.88 406.09 775.07 1031.78 1488.26 866.39 1783.79 828.89 1717.45 1070.07 1476.13 1210.85 1679.99 1185.38
00056655 00000077 1108.40 409.05 778.54 1022.64 1484.97 874.89 1789.21 834.13 1720.68 1072.31 1475.84 1210.82 1688.81 1183.17
00056656 00000078 1120.37 408.19 782.04 1010.33 1499.40 875.94 1806.99 842.72 1734.42 1076.68 1491.62 1202.22 1719.85 1180.58
00056657 00000079 1132.82 403.10 776.86 1017.49 1505.74 883.75 1811.45 851.13 1738.22 1080.08 1498.00 1205.62 1723.15 1184.62
00056658 00000080 1134.48 408.66 773.60 1018.10 1513.53 893.19 1815.42 859.36 1747.51 1081.85 1504.92 1211.28 1723.10 1189.25
00056659 00000081 1132.61 399.05 784.09 1036.26 1516.48 898.01 1824.48 862.25 1754.65 1086.80 1511.97 1221.71 1728.22 1198.45
00056660 00000082 1145.63 418.55 774.51 1029.46 1527.57 898.99 1827.80 865.55 1758.65 1099.22 1524.16 1234.06 1731.00 1212.83
00056661 00000083 1149.74 429.06 772.71 1016.46 1527.74 899.50 1835.04 869.94 1759.24 1101.98 1520.89 1235.21 1732.15 1217.21
00056662 00000084 1153.27 427.73 770.44 1015.59 1529.23 903.19 1838.41 868.34 1760.83 1101.51 1523.07 1238.80 1733.67 1216.30
00056663 00000085 1152.74 442.74 769.29 997.96 1529.64 904.17 1840.50 868.97 1764.77 1103.92 1526.92 1238.94 1737.68 1216.27
00056664 00000086 1156.67 453.43 765.22 987.92 1529.77 907.21 1840.80 869.23 1763.57 1108.06 1527.95 1241.26 1735.89 1216.63
00056665 00000087 1148.97 450.24 762.43 1000.09 1520.79 917.13 1819.97 869.74 1770.11 1107.54 1506.39 1238.52 1710.40 1210.98
00056666 00000088 1142.98 452.10 768.01 995.41 1520.47 919.78 1818.95 873.81 1771.53 1104.10 1507.04 1235.20 1712.47 1208.40
00056667 00000089 1144.65 450.99 771.90 985.64 1526.42 907.70 1839.79 871.90 1766.72 1103.24 1520.38 1233.34 1736.15 1210.48
00056668 00000090 1153.81 445.95 766.22 990.77 1529.09 905.41 1841.46 869.32 1765.23 1101.80 1520.45 1229.95 1738.64 1206.74
00056669 00000091 1147.40 434.51 774.34 1001.45 1533.00 898.57 1843.09 863.37 1772.69 1097.25 1525.65 1227.84 1740.65 1205.26
00056670 00000092 1154.95 437.32 768.64 1003.30 1541.19 897.93 1845.10 864.40 1774.62 1100.26 1534.00 1234.03 1741.84 1212.25
00056671 00000093 1154.68 439.02 770.43 1008.07 1542.68 898.73 1846.86 863.00 1778.42 1101.83 1539.16 1237.43 1747.32 1214.45
00056672 00000094 1153.25 432.70 775.55 1020.61 1545.37 901.06 1849.66 860.73 1782.32 1104.92 1541.12 1238.51 1754.26 1211.95
00056673 00000095 1153.40 415.32 780.90 1039.27 1549.62 901.93 1857.82 860.78 1790.68 1103.20 1546.93 1239.41 1762.40 1212.14
00056674 00000096 1165.05 429.24 770.69 1025.74 1558.79 905.09 1859.77 869.87 1790.99 1104.84 1552.87 1238.58 1760.93 1216.39
00056675 00000097 1173.99 442.92 763.88 1017.58 1567.39 909.81 1862.43 882.15 1789.74 1113.86 1553.57 1242.19 1756.04 1226.46
00056676 00000098 1188.64 456.57 752.49 1006.44 1567.08 918.13 1867.02 888.81 1788.61 1120.47 1553.81 1244.01 1761.84 1227.03
00056677 00000099 1189.47 463.20 759.49 1000.47 1575.44 921.63 1871.74 888.41 1797.82 1123.11 1559.81 1245.42 1764.89 1225.61
00056678 00000100 1186.33 445.95 767.78 1016.38 1582.62 936.45 1862.39 905.03 1796.53 1131.86 1538.82 1237.23 1751.45 1224.88
00056679 00000101 1187.32 448.63 772.83 1017.84 1584.92 940.36 1868.50 909.15 1798.92 1142.20 1539.13 1244.30 1751.28 1232.38
00056680 00000102 1186.24 466.36 780.99 1002.51 1585.52 942.79 1875.86 915.82 1800.29 1153.65 1539.88 1250.45 1751.81 1241.67
00056681 00000103 1194.87 465.93 780.42 1006.74 1590.43 954.08 1875.74 928.85 1800.83 1159.58 1540.52 1259.99 1744.16 1252.40
00056682 00000104 1201.16 494.58 772.91 981.61 1595.97 957.27 1879.10 938.25 1805.26 1168.82 1545.07 1267.80 1745.55 1265.07
00056683 00000105 1190.51 515.24 788.66 974.55 1611.64 945.50 1874.88 930.94 1805.18 1174.84 1562.09 1281.89 1746.74 1270.43
00056684 00000106 1199.40 524.37 789.34 972.20 1624.01 937.84 1886.31 928.14 1812.52 1173.96 1571.63 1280.54 1750.91 1273.13
00056685 00000107 1199.09 509.84 802.12 987.60 1633.27 929.46 1893.04 923.51 1816.60 1168.59 1576.59 1274.36 1751.70 1269.96
00056686 00000108 1199.96 512.28 803.59 989.89 1642.18 919.64 1893.77 920.30 1815.06 1156.77 1579.32 1268.81 1745.55 1269.24
00056687 00000109 1196.84 501.96 807.70 1004.58 1633.96 914.28 1887.67 921.46 1809.44 1149.40 1562.80 1262.96 1739.53 1269.36
00056688 00000110 1212.34 506.38 794.42 992.65 1627.94 917.49 1894.40 920.17 1812.67 1153.68 1556.09 1257.17 1752.73 1261.93
00056689 00000111 1213.00 514.54 791.41 978.00 1625.72 921.76 1899.21 919.29 1817.24 1152.59 1560.74 1251.72 1767.09 1252.73
00056690 00000112 1208.28 508.13 793.32 980.71 1627.73 922.41 1898.60 917.66 1819.78 1151.56 1566.51 1250.82 1768.46 1249.68
00056691 00000113 1204.34 515.80 794.31 971.92 1626.88 924.13 1897.05 913.48 1820.59 1152.53 1574.58 1255.81 1769.14 1248.66
00056692 00000114 1204.26 509.18 790.01 980.75 1631.10 921.43 1893.71 910.78 1821.56 1157.35 1581.67 1266.72 1760.34 1258.49
00056693 00000115 1199.84 506.62 787.74 981.52 1623.68 922.52 1883.87 919.97 1814.06 1160.53 1566.76 1270.61 1745.49 1268.28
00056694 00000116 1188.67 494.43 793.14 993.57 1619.84 926.24 1875.98 922.31 1810.51 1166.39 1558.09 1273.91 1735.57 1270.54
00056695 00000117 1181.22 491.18 798.38 996.44 1607.25 925.40 1868.72 920.53 1800.46 1162.23 1548.72 1272.87 1734.17 1268.77
00056696 00000118 1194.21 475.58 789.29 1014.42 1598.08 943.77 1878.01 929.25 1803.17 1161.40 1535.21 1260.70 1740.45 1262.56
00056697 00000119 1169.03 490.54 809.36 1005.56 1596.46 932.62 1866.24 918.74 1795.55 1167.93 1538.64 1271.04 1739.39 1260.17
00056698 00000120 1172.07 491.87 805.34 999.05 1597.05 933.92 1866.64 920.71 1792.97 1169.27 1538.85 1273.95 1734.02 1263.02
00056699 00000121 1181.72 468.66 794.66 1005.94 1587.87 941.24 1870.99 926.64 1789.23 1156.10 1526.57 1252.83 1730.70 1254.47
00056700 00000122 1175.65 484.92 794.29 992.37 1586.24 924.26 1879.55 904.36 1796.25 1139.84 1542.94 1256.02 1738.76 1248.61
00056701 00000123 1172.63 495.88 786.47 976.49 1583.56 920.64 1873.93 900.73 1793.65 1138.84 1541.44 1253.17 1736.05 1245.81
00056702 00000124 1165.58 486.65 793.72 982.12 1576.24 919.21 1870.59 900.40 1789.09 1133.47 1540.36 1251.59 1735.62 1244.52
00056703 00000125 1159.60 476.41 792.15 993.12 1569.01 915.52 1860.73 897.93 1777.70 1131.80 1531.14 1252.48 1724.29 1246.35
00056704 00000126 1160.85 471.26 783.31 995.94 1563.05 914.26 1855.49 896.40 1773.92 1131.28 1526.78 1251.78 1721.24 1245.41
00056705 00000127 1159.35 459.38 771.90 1006.63 1552.02 918.93 1846.78 894.95 1767.50 1128.55 1521.09 1255.67 1719.59 1244.15
00056706 00000128 1148.97 473.70 776.57 988.68 1542.56 919.80 1834.42 891.04 1757.62 1130.29 1512.72 1252.93 1709.69 1237.91
00056707 00000129 1123.38 466.77 781.05 1013.94 1517.06 908.44 1807.68 885.30 1744.91 1125.83 1484.91 1251.37 1703.31 1239.27
00056708 00000130 1127.98 448.97 781.96 1012.22 1504.23 923.37 1804.87 887.98 1724.58 1127.88 1482.46 1243.07 1693.02 1223.80
00056709 DELETE   1105.69 444.16 765.11 1016.12 1481.82 922.38 1773.39 882.63 1706.75 1118.23 1465.58 1243.12 1660.45 1217.43
00056710 00000132 1099.09 445.07 757.79 1013.79 1470.95 918.35 1762.76 880.82 1694.98 1116.92 1464.81 1241.10 1659.03 1216.21
00056711 00000133 1094.21 448.63 755.22 1009.19 1467.39 916.75 1759.00 880.63 1688.64 1121.25 1460.21 1241.25 1657.04 1216.95
00056712 00000134 1085.30 449.62 759.64 1010.46 1456.95 914.66 1748.11 880.29 1676.18 1127.61 1451.61 1240.24 1649.98 1217.11
00056713 00000135 1068.65 441.01 758.12 1024.82 1442.36 917.14 1743.90 877.24 1668.07 1136.24 1426.27 1258.59 1649.55 1238.52
00056714 00000136 1071.33 443.76 767.50 1031.04 1448.39 921.13 1743.78 883.69 1674.71 1132.18 1445.66 1246.15 1650.00 1221.90
00056715 00000137 1065.14 424.11 760.87 1048.96 1441.89 929.27 1745.73 881.86 1669.83 1142.09 1432.14 1260.52 1663.01 1234.35
00056716 00000138 1076.02 432.44 750.46 1043.03 1450.09 933.03 1749.29 884.68 1674.48 1142.62 1442.45 1264.37 1670.46 1237.32
00056717 00000139 1082.86 436.23 746.58 1037.87 1455.60 931.47 1754.50 884.89 1678.79 1142.47 1450.13 1262.55 1677.23 1236.85
00056718 00000140 1088.76 436.69 746.84 1036.58 1460.87 926.92 1758.56 884.59 1683.57 1137.49 1451.26 1256.20 1680.32 1233.92
00056719 00000141 1092.77 418.31 751.16 1056.16 1463.37 929.37 1762.91 886.88 1687.10 1132.87 1453.05 1254.83 1683.66 1231.76
00056720 00000142 1095.75 428.78 745.93 1044.41 1465.70 931.41 1765.90 888.47 1687.10 1138.58 1453.82 1258.79 1683.13 1235.41
00056721 00000143 1097.10 433.34 747.58 1037.78 1464.11 937.62 1765.62 890.32 1686.98 1145.19 1454.59 1263.79 1683.97 1237.04
00056722 00000144 1102.08 456.14 754.77 1015.54 1468.09 940.45 1758.32 900.85 1689.98 1140.30 1467.62 1255.79 1664.57 1229.96
00056723 00000145 1105.12 462.47 755.16 1008.76 1468.01 945.14 1760.90 902.62 1692.37 1141.40 1467.24 1258.84 1664.02 1231.52
00056724 00000146 1103.81 463.87 759.92 1008.72 1468.84 946.45 1766.24 903.17 1696.68 1143.81 1467.54 1263.46 1664.72 1235.99
00056725 00000147 1106.94 474.46 758.79 997.52 1472.18 948.93 1768.23 904.53 1700.29 1145.49 1470.30 1265.83 1664.99 1237.61
00056726 00000148 1109.11 476.62 759.36 993.61 1468.92 947.22 1770.18 905.08 1696.86 1145.32 1467.21 1264.87 1665.93 1238.45
00056727 00000149 1104.00 471.98 767.84 999.62 1467.92 946.32 1771.91 905.55 1698.83 1143.02 1461.66 1262.20 1664.30 1237.28
00056728 00000150 1113.13 459.90 761.24 1010.33 1469.55 944.38 1773.28 904.68 1698.03 1138.63 1462.36 1259.51 1665.94 1234.99
00056729 00000151 1110.84 452.95 763.84 1016.83 1470.61 938.08 1777.29 897.40 1702.90 1135.66 1472.12 1262.63 1674.24 1236.75
00056730 00000152 1111.30 447.70 759.46 1018.76 1472.61 933.97 1777.14 891.71 1702.59 1131.22 1485.30 1267.22 1678.25 1239.16
00056731 00000153 1112.62 436.65 760.06 1028.24 1473.91 927.14 1779.49 888.76 1703.37 1124.99 1482.97 1260.76 1679.26 1235.23
00056732 00000154 1114.74 427.17 763.85 1027.66 1478.44 919.57 1783.18 886.97 1705.95 1115.73 1485.85 1250.87 1682.14 1229.55
00056733 00000155 1115.69 414.54 768.74 1032.98 1479.25 908.33 1787.01 875.64 1710.07 1100.93 1484.95 1241.75 1686.27 1219.99
00056734 00000156 1114.10 404.43 775.64 1040.10 1478.18 895.15 1785.62 861.45 1711.78 1084.38 1475.71 1231.38 1685.96 1209.94
00056735 00000157 1113.83 406.35 777.16 1029.61 1481.07 878.94 1791.54 848.07 1713.85 1074.97 1482.02 1223.06 1690.70 1202.07
