Video ID: 	7tkNX1R-dpg
H: 	2160
W: 	3840
FPS: 	25.0

FRAME INDEX X0 Y0 W H [Landmarks (5 Points)]

00025144 00000000 1450.84 361.01 470.96 690.44 1632.36 630.88 1842.25 624.90 1780.35 768.29 1647.69 879.35 1828.35 874.32
00025145 DELETE   1466.06 353.35 477.96 691.66 1657.74 624.85 1867.90 617.72 1805.31 761.00 1680.12 876.68 1851.81 870.51
00025146 DELETE   1483.33 340.83 477.01 697.17 1666.82 620.11 1881.71 614.85 1813.17 753.74 1686.58 877.19 1857.51 870.70
00025147 00000003 1488.09 347.55 479.21 688.76 1671.95 614.76 1886.10 615.89 1813.83 751.86 1688.40 871.26 1855.00 869.83
00025148 DELETE   1492.21 349.16 482.08 682.92 1677.19 607.69 1892.22 617.46 1816.90 748.98 1689.86 864.25 1852.11 869.78
00025149 00000005 1509.70 337.87 476.85 695.15 1700.93 610.28 1916.20 625.79 1841.81 755.09 1712.68 866.26 1874.61 876.07
00025150 00000006 1519.17 341.91 476.94 698.03 1711.18 619.01 1924.60 635.54 1847.66 762.46 1724.55 872.58 1884.07 883.01
00025151 00000007 1522.10 352.80 481.39 690.36 1708.40 627.86 1923.25 645.86 1838.46 775.89 1723.45 885.59 1880.01 896.37
00025152 00000008 1521.84 368.26 482.86 683.88 1701.83 633.20 1916.04 657.06 1827.02 789.95 1710.03 896.33 1867.19 911.86
00025153 DELETE   1519.25 374.22 486.59 684.52 1695.17 634.49 1911.83 661.25 1819.63 793.58 1701.47 899.55 1858.56 917.47
00025154 00000010 1519.82 373.66 485.47 682.41 1691.49 635.59 1909.69 662.33 1816.11 796.24 1698.49 900.48 1856.23 918.32
00025155 00000011 1513.44 374.90 482.48 680.54 1680.17 636.25 1899.49 664.11 1805.38 795.40 1681.22 897.48 1845.13 917.04
00025156 00000012 1501.18 365.40 482.47 688.15 1667.08 629.95 1883.60 661.05 1786.56 786.79 1658.14 889.09 1825.27 912.03
00025157 00000013 1490.41 371.64 483.76 680.38 1656.17 625.58 1871.67 660.13 1770.84 787.71 1638.99 883.53 1809.28 908.87
00025158 00000014 1482.64 373.62 486.17 678.53 1648.70 622.42 1862.91 654.38 1762.63 783.38 1630.44 877.20 1802.54 900.71
00025159 00000015 1473.52 361.57 482.09 685.83 1638.57 616.81 1854.14 647.03 1754.87 772.75 1630.16 870.28 1799.86 894.59
00025160 00000016 1465.93 353.77 479.20 686.62 1624.22 615.94 1845.73 647.35 1742.23 774.96 1617.40 869.43 1790.84 894.42
00025161 00000017 1461.68 361.70 479.42 673.05 1616.01 609.79 1834.98 639.80 1731.91 763.72 1610.65 862.21 1782.03 885.54
00025162 00000018 1453.48 360.27 481.62 672.04 1605.61 612.19 1823.34 637.70 1721.64 757.22 1606.03 859.86 1775.66 879.59
00025163 00000019 1448.68 360.61 481.21 665.27 1600.41 611.17 1817.92 635.67 1718.26 753.70 1606.29 859.17 1770.26 877.28
00025164 00000020 1444.42 364.18 480.68 662.92 1596.85 611.60 1813.19 635.71 1714.67 752.70 1605.66 862.67 1764.67 879.76
00025165 00000021 1442.66 367.74 479.00 656.76 1594.14 611.54 1810.86 635.71 1711.97 753.62 1603.16 862.41 1763.03 879.41
00025166 00000022 1440.57 368.26 480.41 659.06 1591.82 611.14 1808.58 635.51 1709.68 754.60 1600.88 863.90 1760.12 880.98
00025167 00000023 1439.07 371.13 481.24 656.02 1590.20 612.10 1807.69 636.12 1708.79 755.23 1599.13 863.86 1759.26 880.70
00025168 00000024 1438.78 371.34 479.76 655.33 1589.41 611.41 1806.31 634.59 1708.69 754.37 1598.66 863.11 1759.37 879.22
00025169 00000025 1438.85 373.26 479.28 649.35 1588.80 611.73 1806.16 633.28 1708.59 753.44 1599.62 862.59 1760.81 877.16
00025170 00000026 1439.04 370.82 478.61 651.96 1588.92 611.44 1806.48 632.89 1709.03 752.67 1600.29 861.96 1761.99 876.48
00025171 00000027 1439.12 370.17 478.59 652.21 1588.79 611.42 1806.56 633.02 1709.11 752.29 1600.40 862.18 1762.22 876.84
00025172 00000028 1439.33 371.07 478.81 650.03 1588.81 611.53 1806.56 633.02 1709.09 751.81 1600.68 862.64 1762.16 877.14
00025173 00000029 1440.02 371.19 478.71 649.34 1589.48 611.17 1807.40 632.88 1709.95 751.44 1601.10 862.30 1762.80 876.99
00025174 00000030 1441.79 366.31 477.64 656.99 1590.25 611.89 1808.54 633.04 1711.35 752.29 1602.38 862.33 1764.77 876.86
00025175 00000031 1441.88 366.58 478.46 655.79 1590.87 611.73 1809.15 633.13 1711.60 752.33 1602.56 862.18 1764.43 876.95
00025176 00000032 1442.52 366.51 478.44 655.22 1590.91 611.51 1809.70 633.36 1711.75 752.24 1601.90 861.80 1764.85 877.00
00025177 00000033 1442.84 367.44 478.25 653.85 1591.07 611.26 1809.99 633.18 1711.86 752.42 1602.05 861.47 1765.25 876.69
00025178 00000034 1442.82 367.31 478.48 654.52 1591.17 611.29 1810.01 633.20 1711.79 751.85 1601.79 861.78 1765.47 877.02
00025179 00000035 1442.28 366.93 477.60 655.83 1590.27 611.70 1809.00 633.84 1711.31 750.75 1600.64 861.14 1764.67 876.69
00025180 00000036 1442.34 366.06 476.76 656.14 1589.90 611.46 1808.64 633.72 1711.23 750.33 1600.62 860.78 1764.71 876.40
00025181 00000037 1441.22 368.35 477.89 653.68 1589.62 611.31 1808.50 633.46 1710.65 750.02 1600.44 860.89 1764.22 876.35
00025182 00000038 1440.15 369.20 479.12 652.00 1588.93 611.47 1807.64 633.35 1709.45 750.32 1600.15 861.77 1763.26 876.82
00025183 00000039 1440.08 366.24 477.78 656.12 1587.55 612.43 1806.38 633.96 1708.65 750.22 1598.48 862.23 1763.05 877.17
00025184 00000040 1437.35 368.42 478.30 654.70 1585.26 611.39 1803.08 632.74 1705.40 750.04 1595.88 862.45 1760.55 877.29
00025185 00000041 1436.85 363.82 477.27 659.50 1582.70 612.26 1801.67 632.18 1703.59 751.82 1594.07 863.86 1759.98 877.75
00025186 00000042 1435.22 362.52 477.57 659.83 1581.15 611.45 1800.22 631.78 1701.58 750.85 1592.71 863.51 1758.00 877.87
00025187 00000043 1434.21 360.93 477.54 662.35 1579.86 609.90 1798.63 630.48 1699.89 751.10 1591.39 863.51 1756.30 878.01
00025188 00000044 1433.69 359.06 477.16 664.79 1577.80 610.11 1797.71 630.82 1698.39 753.07 1589.38 864.19 1754.48 878.88
00025189 00000045 1428.71 364.47 480.55 657.02 1574.05 606.97 1795.66 628.73 1694.68 752.26 1585.40 864.75 1751.00 880.25
00025190 00000046 1428.43 361.79 478.84 661.18 1571.55 606.77 1793.84 628.33 1691.72 753.61 1582.20 863.85 1749.18 879.34
00025191 00000047 1425.59 365.08 480.88 656.39 1567.99 605.46 1790.52 626.79 1685.70 752.12 1578.11 861.69 1745.54 877.23
00025192 00000048 1421.50 370.91 482.48 650.21 1563.60 605.01 1787.03 626.15 1679.93 752.29 1573.19 860.87 1741.19 876.29
00025193 00000049 1420.68 372.15 483.03 648.66 1562.32 605.03 1786.04 626.33 1677.73 752.28 1572.23 861.54 1738.97 877.15
00025194 00000050 1426.17 362.81 479.43 660.11 1566.51 604.56 1791.02 621.51 1687.23 747.90 1578.39 860.48 1752.01 872.63
00025195 00000051 1427.71 363.39 477.09 653.85 1566.11 602.38 1789.50 616.73 1685.35 748.04 1578.24 857.04 1753.57 866.99
00025196 00000052 1428.46 358.32 476.83 659.31 1566.71 599.27 1789.62 614.52 1685.82 743.83 1577.74 856.55 1753.08 867.39
00025197 00000053 1427.34 354.71 482.08 664.64 1571.31 599.31 1790.82 615.11 1689.29 739.70 1585.37 853.88 1751.20 864.98
00025198 00000054 1428.22 353.07 481.47 663.41 1572.51 598.34 1790.29 613.71 1691.78 738.68 1588.79 856.42 1750.01 866.82
00025199 00000055 1419.84 355.31 482.93 653.15 1554.77 600.69 1776.95 612.73 1663.60 740.60 1568.07 848.92 1736.94 857.91
00025200 00000056 1418.92 358.68 481.51 648.76 1544.48 601.39 1770.45 614.79 1653.41 742.44 1560.00 850.50 1730.49 860.25
00025201 00000057 1417.71 361.03 482.29 654.72 1547.04 604.29 1770.05 614.96 1658.06 745.24 1566.77 857.53 1734.14 864.37
00025202 00000058 1418.61 360.47 482.69 666.21 1554.98 603.02 1776.13 611.70 1670.93 742.29 1574.06 863.43 1743.54 868.84
00025203 00000059 1418.94 355.85 482.47 662.46 1553.71 601.78 1778.46 609.58 1672.31 737.80 1573.48 861.86 1746.68 866.64
00025204 00000060 1416.01 351.68 472.03 644.12 1539.48 592.27 1756.96 600.88 1648.04 721.59 1562.94 847.79 1723.37 853.03
00025205 00000061 1406.61 342.87 475.11 643.44 1526.40 587.46 1751.68 598.19 1635.73 712.27 1543.01 850.53 1713.02 858.73
00025206 00000062 1404.87 346.63 469.27 621.40 1528.43 591.15 1742.83 593.52 1639.54 718.80 1552.08 851.10 1720.32 851.69
00025207 00000063 1406.27 343.65 463.72 620.41 1531.70 591.35 1749.06 590.67 1644.06 714.25 1567.11 835.88 1724.12 833.78
00025208 00000064 1397.29 341.94 476.69 651.83 1520.52 580.99 1738.20 594.08 1613.48 708.91 1529.82 822.27 1679.73 832.95
00025209 00000065 1392.90 328.91 460.36 637.83 1515.01 572.59 1738.70 586.37 1625.36 691.79 1526.76 813.04 1684.76 824.29
00025210 00000066 1405.29 324.84 468.34 649.67 1526.63 570.86 1741.17 582.73 1629.97 685.71 1541.00 808.18 1699.05 817.08
00025211 00000067 1414.95 337.09 482.95 627.15 1541.67 560.07 1766.98 574.03 1655.21 687.59 1554.36 804.36 1704.21 816.77
00025212 00000068 1433.56 329.19 476.83 636.05 1567.27 567.71 1787.22 569.53 1691.36 685.92 1605.80 817.89 1761.73 817.93
00025213 00000069 1448.54 332.79 474.83 647.90 1578.93 568.67 1806.20 579.29 1695.33 690.75 1594.11 808.29 1775.34 816.97
00025214 00000070 1462.52 329.15 478.05 666.97 1599.00 574.93 1825.27 590.54 1716.85 700.97 1615.47 823.21 1786.89 835.45
00025215 00000071 1466.87 329.63 475.52 670.27 1603.20 576.42 1827.39 595.22 1719.27 706.45 1613.97 825.29 1787.20 840.41
00025216 00000072 1470.38 336.94 477.57 663.42 1604.24 579.00 1829.08 599.17 1718.11 711.12 1610.61 826.18 1786.09 843.01
00025217 00000073 1471.49 333.03 479.26 673.48 1607.06 579.61 1828.46 597.16 1720.12 713.58 1615.69 829.11 1787.04 843.48
00025218 00000074 1473.98 335.02 479.94 670.76 1608.79 580.85 1832.09 596.72 1724.82 714.15 1624.28 834.14 1789.98 846.39
00025219 00000075 1475.10 343.20 475.80 658.40 1606.99 582.30 1830.81 599.47 1720.97 715.44 1617.30 835.11 1790.30 848.86
00025220 00000076 1471.93 341.69 476.40 660.71 1604.41 582.53 1826.63 602.57 1715.36 717.97 1608.44 834.73 1784.55 851.20
00025221 00000077 1467.55 349.01 476.87 656.37 1602.49 583.67 1823.29 603.37 1712.40 719.73 1603.49 837.35 1782.34 853.52
00025222 00000078 1465.16 348.10 476.79 656.02 1600.14 584.07 1822.34 605.18 1710.73 719.08 1600.40 835.87 1781.64 853.24
00025223 00000079 1462.30 344.91 476.99 660.68 1599.54 581.41 1821.81 603.30 1711.78 716.72 1596.94 832.86 1780.78 851.20
00025224 00000080 1454.97 330.78 482.77 682.02 1593.25 574.20 1819.54 594.51 1708.04 704.99 1593.20 826.84 1777.21 844.05
00025225 00000081 1450.51 325.64 484.05 683.91 1589.63 572.31 1817.39 591.81 1705.73 700.15 1593.32 824.31 1774.34 840.49
00025226 00000082 1449.08 334.43 481.73 668.33 1586.62 572.46 1813.09 590.73 1702.58 697.73 1590.54 821.09 1770.76 836.10
00025227 00000083 1447.37 335.17 480.46 656.97 1583.62 570.02 1811.30 588.25 1698.99 695.11 1585.82 813.41 1771.55 828.73
00025228 00000084 1448.26 332.81 476.26 650.00 1583.49 568.63 1811.58 585.06 1700.01 690.32 1585.47 807.87 1776.04 822.03
00025229 00000085 1450.91 317.58 476.53 653.20 1595.92 567.31 1817.00 579.56 1718.45 678.21 1602.18 800.18 1786.11 810.21
00025230 00000086 1456.11 313.39 475.17 652.67 1610.60 562.20 1827.51 575.61 1735.89 674.41 1616.30 796.35 1798.06 806.65
00025231 00000087 1458.68 308.24 475.45 653.01 1617.99 556.82 1834.31 570.13 1746.78 670.40 1627.09 794.66 1806.46 803.90
00025232 00000088 1460.33 308.69 472.94 645.24 1620.96 551.45 1835.23 563.01 1750.81 666.22 1633.04 792.27 1808.31 799.42
00025233 00000089 1460.70 306.93 471.47 641.86 1620.03 548.44 1833.84 557.50 1752.63 664.02 1633.85 788.77 1810.78 793.95
00025234 00000090 1460.37 304.71 470.69 642.55 1619.24 545.38 1833.39 554.18 1751.81 656.79 1633.99 784.26 1811.12 789.27
00025235 00000091 1462.05 304.33 468.44 643.79 1621.54 544.62 1833.68 553.41 1753.76 654.61 1637.52 783.64 1811.71 788.52
00025236 00000092 1462.74 304.94 468.07 642.88 1620.98 544.49 1833.58 552.46 1752.87 655.11 1636.83 783.30 1812.34 787.65
00025237 00000093 1460.38 304.03 471.01 643.50 1618.20 544.27 1833.33 552.29 1749.31 652.91 1634.96 782.91 1810.89 787.13
00025238 00000094 1458.12 304.29 470.46 643.64 1614.28 545.87 1828.65 553.39 1743.97 651.97 1630.07 780.54 1806.83 784.61
00025239 00000095 1452.78 312.01 472.60 631.33 1597.24 553.61 1811.27 556.66 1721.08 656.07 1617.71 783.31 1791.90 783.99
00025240 00000096 1447.11 319.34 473.54 626.56 1586.30 557.59 1803.73 562.28 1706.59 660.98 1609.63 787.97 1777.55 789.53
00025241 00000097 1441.49 330.05 471.98 628.20 1574.33 564.76 1794.04 566.75 1693.62 668.75 1599.40 799.58 1771.07 799.08
00025242 00000098 1437.69 326.94 472.73 643.81 1560.81 571.71 1785.85 571.01 1680.93 687.30 1587.89 812.58 1757.91 811.75
00025243 00000099 1431.59 335.21 471.91 646.17 1552.28 581.13 1771.81 578.50 1665.66 703.40 1577.09 823.77 1746.29 821.14
00025244 00000100 1420.92 354.81 477.54 647.64 1538.78 596.24 1752.90 601.33 1638.82 729.94 1558.34 840.73 1719.22 844.27
00025245 00000101 1415.13 359.67 482.35 653.44 1530.87 603.74 1742.64 609.45 1626.56 737.27 1552.23 853.26 1710.51 856.55
00025246 00000102 1412.28 355.25 475.85 653.70 1523.05 601.84 1734.26 608.35 1616.56 732.80 1542.50 851.09 1699.78 855.36
00025247 00000103 1408.07 348.36 472.16 657.53 1515.21 590.15 1731.01 594.01 1607.83 720.09 1532.74 843.39 1698.68 846.36
00025248 00000104 1403.42 343.32 470.39 655.18 1509.78 584.64 1725.97 585.83 1604.96 708.52 1530.95 831.82 1700.27 832.41
00025249 00000105 1410.86 333.40 475.57 655.31 1517.11 578.16 1742.03 581.26 1619.56 696.07 1540.28 821.19 1707.32 824.38
00025250 00000106 1420.91 330.24 474.89 663.37 1529.02 576.46 1754.04 580.43 1634.64 698.86 1549.93 821.95 1722.63 826.16
00025251 00000107 1431.41 323.92 476.26 663.64 1547.48 573.43 1770.75 577.86 1653.70 696.42 1562.23 820.89 1737.92 824.95
00025252 00000108 1440.45 324.07 477.85 662.51 1563.75 568.97 1788.65 576.75 1673.81 689.33 1578.69 815.31 1753.45 821.76
00025253 00000109 1448.73 334.08 480.06 651.37 1576.12 566.34 1803.95 576.38 1687.66 680.84 1592.77 808.75 1764.40 817.16
00025254 00000110 1453.30 330.95 479.88 644.07 1581.33 562.23 1811.38 573.97 1694.91 675.46 1594.99 801.80 1771.04 812.24
CROP_BBOX: 1183 0 2358 1248
