Video ID: 	7fcqhU-23TA
H: 	1080
W: 	1920
FPS: 	23.976023976023978

FRAME INDEX X0 Y0 W H [Landmarks (5 Points)]

00027309 00000000 742.52 155.70 348.21 499.83 826.74 343.37 984.72 360.82 885.17 449.28 822.70 519.80 950.46 537.64
00027310 00000001 741.54 154.05 345.72 500.82 823.96 345.56 983.78 361.65 883.50 450.23 822.85 522.29 950.79 538.92
00027311 00000002 741.67 156.44 338.46 497.63 816.48 351.74 976.72 360.49 878.58 454.24 822.65 530.97 947.89 539.15
00027312 00000003 741.81 162.22 333.99 483.37 814.77 354.41 968.64 367.33 871.13 459.23 818.29 528.77 937.58 539.26
00027313 00000004 743.65 168.19 332.50 492.97 807.88 359.59 954.46 377.00 849.10 466.41 805.47 535.36 918.69 548.91
00027314 00000005 738.24 170.07 333.99 499.67 798.32 363.99 942.25 380.32 836.09 472.81 796.09 547.62 902.36 560.34
00027315 00000006 733.78 171.48 335.41 503.38 791.43 367.55 935.37 382.99 825.15 472.72 786.20 553.44 894.03 565.60
00027316 00000007 735.30 174.19 336.01 504.96 791.21 369.74 937.00 384.69 824.96 476.01 788.07 556.61 899.91 568.10
00027317 00000008 739.87 175.54 338.96 504.50 799.16 371.94 949.27 388.58 839.20 481.99 797.03 558.14 912.52 570.73
00027318 00000009 753.25 180.17 339.26 503.27 814.53 376.26 965.07 392.78 854.22 487.23 808.03 557.81 932.75 574.41
00027319 00000010 755.27 178.29 345.82 501.63 822.36 376.07 978.77 391.99 868.60 487.95 817.71 556.59 946.56 572.58
00027320 00000011 755.55 175.08 348.49 503.33 824.95 375.45 984.05 390.78 876.99 488.17 824.07 559.48 953.41 574.60
00027321 00000012 755.41 174.16 347.88 505.14 824.27 379.03 981.79 392.28 876.33 488.40 825.41 561.12 954.07 574.51
00027322 DELETE   755.37 176.48 346.54 503.09 825.73 384.28 979.37 395.39 878.49 489.89 827.55 561.20 955.05 572.72
00027323 DELETE   755.06 176.72 347.08 502.26 823.45 383.65 981.07 393.08 877.12 490.09 826.73 563.63 957.33 573.92
00027324 00000015 755.45 175.73 348.95 504.12 827.25 381.46 984.18 392.08 882.68 490.20 831.13 563.26 959.43 574.51
00027325 00000016 755.84 173.64 348.96 505.21 830.40 376.68 987.11 388.60 887.91 486.57 834.48 561.21 959.77 573.61
00027326 00000017 757.15 168.99 349.95 508.87 832.39 372.67 990.82 383.99 893.27 484.25 836.45 558.92 962.73 570.42
00027327 00000018 757.89 165.26 348.31 509.53 834.32 368.80 993.84 379.23 899.16 481.20 840.19 557.13 966.46 567.63
00027328 00000019 760.35 162.07 344.83 511.47 838.84 366.66 997.01 375.85 905.92 477.31 844.85 554.90 970.70 564.19
00027329 00000020 762.64 159.40 343.67 513.83 840.34 364.23 999.92 373.15 908.63 472.56 847.34 552.84 975.06 561.52
00027330 00000021 765.16 161.73 341.75 512.58 844.17 363.21 1004.35 372.43 913.20 470.51 850.63 553.00 978.26 561.99
00027331 00000022 768.76 161.83 341.02 514.19 852.19 362.14 1009.96 372.75 924.37 470.32 859.59 552.32 982.81 562.40
00027332 00000023 773.22 164.45 341.11 518.08 862.39 362.00 1017.06 375.85 936.33 469.41 867.58 551.73 990.01 564.47
00027333 00000024 780.39 166.39 336.82 519.23 870.28 361.27 1021.13 374.63 944.40 467.71 876.51 551.25 996.69 563.43
00027334 00000025 784.01 166.77 335.67 516.91 875.65 360.49 1026.75 372.30 952.27 464.39 883.56 550.18 1003.82 560.86
00027335 00000026 773.44 174.83 343.85 507.33 877.83 359.81 1032.13 372.62 956.58 462.38 884.94 542.27 1010.36 553.19
00027336 00000027 775.18 175.30 345.00 507.00 882.56 357.91 1037.48 371.41 961.78 464.03 889.11 540.57 1015.27 551.74
00027337 00000028 777.35 175.54 344.32 504.10 884.54 358.78 1039.84 371.37 963.84 464.67 891.55 540.50 1016.68 551.25
00027338 00000029 778.87 175.29 343.72 503.39 885.75 358.89 1040.96 371.22 965.38 464.15 892.20 540.02 1017.35 550.70
00027339 00000030 778.81 175.06 344.71 503.96 886.00 358.55 1041.89 371.61 965.90 463.54 892.17 539.35 1017.59 550.58
00027340 00000031 779.03 174.50 345.22 503.25 886.31 358.48 1042.36 371.70 966.12 463.45 892.39 539.14 1017.52 550.52
00027341 00000032 779.36 174.84 345.32 502.21 886.11 359.23 1042.65 372.93 965.13 463.29 890.90 539.08 1016.94 550.93
00027342 00000033 779.81 173.58 345.71 503.61 886.56 359.89 1043.91 373.98 966.06 462.99 890.46 539.74 1018.38 551.99
00027343 00000034 780.02 174.46 345.48 501.62 886.62 360.61 1042.61 374.59 965.44 463.30 889.81 538.00 1017.33 550.11
00027344 00000035 778.97 175.60 347.40 496.62 887.08 360.94 1041.27 375.63 964.23 460.58 891.03 535.98 1013.12 548.80
00027345 00000036 777.42 175.08 348.54 496.00 886.05 361.08 1039.51 375.76 962.78 459.69 890.42 536.44 1010.46 549.37
00027346 00000037 775.58 174.16 349.93 504.60 884.64 357.74 1039.28 374.10 959.92 458.62 886.82 538.16 1008.66 552.48
00027347 00000038 770.44 168.75 353.28 517.64 883.33 354.36 1036.85 366.48 962.59 454.67 895.42 544.37 1007.38 555.09
00027348 00000039 769.33 164.14 352.41 513.00 885.56 355.64 1035.68 365.04 964.67 450.06 898.81 539.14 1006.97 547.99
00027349 00000040 771.63 154.94 347.36 524.78 876.89 352.06 1030.08 357.01 960.23 448.27 894.26 545.68 1011.24 550.88
00027350 00000041 763.55 156.91 347.67 515.73 860.32 357.99 1016.32 365.56 939.79 456.12 875.58 538.49 1001.81 546.28
00027351 00000042 759.77 154.80 340.31 516.45 842.49 354.74 1003.25 359.11 924.39 456.36 856.47 541.60 984.86 547.06
00027352 00000043 751.25 159.84 342.49 508.85 830.93 352.97 991.39 357.27 908.19 453.14 840.85 536.21 972.20 542.53
00027353 00000044 748.87 159.94 343.87 514.40 827.41 353.64 986.46 357.99 903.47 456.10 839.03 539.01 967.24 545.42
00027354 00000045 747.75 158.09 345.12 516.68 825.67 355.93 985.64 358.95 902.86 459.67 838.20 541.92 968.29 547.08
00027355 00000046 746.57 156.00 346.13 517.15 823.56 357.20 982.21 361.97 898.37 463.80 836.19 544.04 961.99 550.23
00027356 00000047 743.56 162.20 344.36 511.77 819.20 357.26 976.84 363.02 889.33 466.01 829.95 545.58 950.37 552.49
00027357 00000048 738.40 163.73 344.64 514.05 812.75 358.11 967.98 364.55 876.89 462.94 825.13 547.87 937.11 555.18
00027358 00000049 731.31 159.70 345.99 522.32 806.98 356.05 958.08 362.82 869.21 458.16 823.27 551.31 925.20 558.37
00027359 00000050 726.97 162.03 348.73 526.02 805.09 354.14 954.15 359.96 868.25 457.97 823.23 551.15 926.36 557.23
00027360 00000051 726.04 158.19 350.46 526.67 804.66 353.12 957.20 356.97 871.58 454.02 823.63 547.78 931.47 552.24
00027361 00000052 717.13 142.32 356.04 535.31 804.96 351.88 960.42 359.29 870.93 456.49 819.74 542.03 938.08 550.62
00027362 00000053 711.95 142.10 361.58 532.70 799.30 350.85 956.38 360.11 863.52 456.82 811.59 538.68 933.62 548.29
00027363 00000054 710.75 143.12 361.14 537.46 793.97 352.45 950.84 362.37 855.26 460.95 805.49 544.13 926.29 553.98
00027364 00000055 709.42 146.42 363.38 539.69 794.41 355.35 952.15 366.17 858.10 466.13 807.38 550.02 926.49 560.64
00027365 00000056 716.36 154.68 364.28 539.08 798.06 355.91 956.53 364.01 868.75 463.50 816.71 554.09 928.43 561.78
00027366 00000057 718.99 152.93 365.04 542.79 801.63 357.14 962.49 362.55 874.51 463.70 822.66 558.11 935.04 563.82
00027367 DELETE   718.46 152.38 368.12 544.19 802.80 364.71 959.67 372.70 871.46 459.75 819.79 554.68 934.40 562.72
00027368 DELETE   719.66 145.47 370.99 550.36 804.12 365.82 965.55 374.45 873.64 460.34 817.54 555.17 942.83 563.79
00027369 DELETE   721.75 144.45 373.46 547.91 805.72 361.42 971.28 366.27 878.55 459.91 819.70 554.33 946.96 559.98
00027370 00000061 721.86 143.05 374.85 549.56 805.70 357.67 972.65 361.31 880.25 461.74 821.12 555.19 947.74 559.77
00027371 00000062 721.72 141.84 375.97 553.20 804.54 356.22 971.59 362.00 876.84 460.77 819.00 555.05 945.13 561.45
00027372 00000063 722.96 141.67 375.48 554.14 804.30 355.32 971.35 360.79 874.29 458.74 818.73 555.43 943.80 561.64
00027373 00000064 726.93 142.53 374.05 546.61 807.14 353.82 973.65 359.47 876.84 459.19 818.88 550.15 946.06 556.47
00027374 00000065 730.92 142.39 373.20 546.17 811.44 351.85 978.73 355.89 883.20 454.67 823.92 548.04 953.80 553.16
00027375 00000066 735.53 140.52 369.07 545.82 811.50 352.56 981.90 353.73 884.72 454.69 827.17 554.14 957.50 557.18
00027376 00000067 739.35 141.21 367.19 544.61 813.17 348.46 981.41 352.33 879.69 449.85 823.84 549.57 953.25 555.38
00027377 00000068 744.43 139.29 366.75 541.13 818.63 345.63 988.24 352.33 882.77 443.64 823.23 541.64 959.49 549.61
00027378 00000069 743.68 137.95 366.15 530.09 825.01 344.43 990.59 351.81 887.96 443.21 829.61 530.29 964.26 539.83
00027379 00000070 750.52 140.94 364.18 525.20 833.48 345.51 998.11 348.06 901.00 442.03 845.05 532.20 979.08 537.09
00027380 00000071 756.78 145.70 362.04 528.30 836.54 345.10 999.98 343.88 906.25 438.18 855.07 541.19 975.28 541.61
00027381 00000072 755.59 143.86 362.50 521.35 842.09 346.52 999.59 348.23 907.51 442.66 856.25 535.04 978.41 539.34
00027382 00000073 759.76 150.84 355.22 513.28 848.73 344.51 1001.06 347.86 914.09 429.33 859.49 529.65 970.43 533.96
00027383 00000074 765.18 150.00 352.63 504.44 853.06 344.71 1003.85 346.99 917.45 425.75 865.00 526.99 974.48 530.35
00027384 00000075 767.61 148.68 352.63 500.82 858.84 343.03 1007.72 345.43 923.84 422.10 870.32 522.80 980.41 526.09
00027385 00000076 769.21 147.91 351.31 496.36 860.48 340.70 1011.10 343.15 928.98 420.99 872.14 519.76 987.14 522.89
00027386 00000077 772.10 147.49 349.45 495.88 864.25 340.48 1012.29 343.07 931.52 421.18 876.09 518.14 988.77 521.39
00027387 00000078 774.18 147.08 350.42 499.04 867.98 342.59 1014.90 345.57 935.55 425.70 879.30 519.36 992.58 522.98
00027388 00000079 773.65 149.39 353.86 500.31 872.49 346.02 1018.44 347.40 943.67 427.29 887.21 520.15 999.68 522.34
00027389 00000080 772.39 152.74 356.81 505.09 874.66 349.66 1021.28 350.25 948.49 432.10 892.30 524.67 1004.33 526.03
00027390 00000081 770.46 153.14 359.83 518.56 872.73 348.79 1022.96 348.40 944.91 430.66 891.76 536.31 1000.40 536.94
00027391 00000082 766.97 152.35 360.92 516.40 870.68 346.38 1020.89 347.30 940.58 424.46 886.84 537.62 993.20 539.73
00027392 00000083 767.23 149.86 360.60 509.76 871.80 343.75 1021.25 345.71 942.84 420.83 886.97 530.39 993.42 533.44
00027393 00000084 768.33 147.50 361.49 511.04 872.53 342.16 1024.26 344.05 945.06 418.30 888.52 526.39 998.86 529.25
00027394 00000085 770.74 149.06 360.03 512.79 873.92 346.14 1025.24 347.54 947.54 425.85 890.75 529.45 1003.52 531.75
00027395 00000086 773.25 150.94 356.20 511.60 874.12 348.59 1024.88 350.85 948.01 433.32 886.95 527.33 1006.97 530.26
00027396 00000087 775.23 153.49 353.60 509.40 874.40 348.56 1026.20 351.31 948.74 436.13 883.62 523.63 1011.42 526.84
00027397 00000088 776.13 153.78 352.94 511.66 875.07 348.75 1026.82 351.24 950.03 437.60 883.52 522.63 1014.69 525.30
00027398 00000089 775.23 155.64 353.82 515.59 872.53 353.91 1024.92 355.16 947.81 444.24 880.45 525.55 1016.37 526.57
00027399 00000090 771.50 159.01 354.93 521.64 868.62 360.73 1024.29 361.50 947.90 456.65 879.76 533.28 1020.67 533.05
00027400 00000091 772.80 164.86 356.57 530.94 860.21 376.13 1021.31 371.01 950.95 478.21 882.85 554.69 1029.95 550.80
00027401 00000092 764.83 182.51 364.03 532.65 860.07 396.97 1021.73 389.04 953.17 510.72 882.04 572.41 1034.44 567.20
00027402 00000093 760.31 198.21 363.57 527.01 853.55 411.87 1021.10 402.64 943.87 528.18 876.17 589.46 1029.02 583.76
00027403 00000094 761.45 201.04 363.19 529.30 856.46 416.03 1023.13 408.61 946.80 535.93 876.17 594.26 1027.72 589.99
00027404 00000095 761.97 199.00 364.49 529.55 859.97 413.60 1025.28 407.00 951.63 530.32 878.70 591.36 1028.20 587.82
00027405 00000096 759.26 190.52 365.00 529.03 856.57 404.98 1021.68 398.74 946.89 524.36 873.80 583.31 1024.55 580.47
00027406 00000097 753.12 181.46 366.29 532.22 851.95 396.60 1015.98 395.57 939.24 516.72 864.51 575.43 1013.16 576.40
00027407 00000098 754.15 173.98 362.47 535.56 851.77 385.88 1013.31 389.85 935.47 503.09 860.32 565.63 1007.99 570.14
00027408 00000099 754.32 163.28 360.19 544.15 850.60 377.45 1012.81 382.76 936.24 492.13 858.10 559.74 1009.14 564.84
00027409 00000100 749.61 158.73 362.72 546.09 846.73 372.17 1008.47 378.01 932.43 481.72 855.86 557.08 1003.28 562.35
00027410 00000101 746.44 157.55 363.95 547.75 842.01 368.91 1003.88 373.49 927.01 479.69 854.63 558.89 996.17 562.93
00027411 00000102 744.72 151.95 366.15 553.24 839.18 367.91 1004.63 369.80 926.93 477.45 855.86 564.17 995.55 565.85
00027412 00000103 744.44 149.24 365.50 551.67 837.83 364.22 1003.52 366.54 926.15 472.99 854.25 561.59 992.16 563.93
00027413 00000104 744.50 146.77 363.93 554.22 834.03 361.38 1001.24 364.50 920.26 470.36 849.65 561.44 985.73 564.57
00027414 00000105 744.45 146.67 364.13 558.42 834.31 360.68 1000.53 362.21 919.18 469.21 852.65 566.00 982.16 567.92
00027415 00000106 745.74 147.50 364.24 555.98 837.45 360.33 1002.95 362.64 922.73 468.48 855.68 564.42 985.56 566.78
00027416 00000107 746.20 146.37 366.78 553.70 840.52 360.23 1004.64 362.63 926.80 468.64 859.32 562.11 987.42 564.47
00027417 00000108 747.69 145.05 365.66 551.88 839.49 360.55 1005.61 363.09 925.82 468.23 857.60 561.87 988.15 564.40
00027418 00000109 747.99 144.89 365.74 551.52 838.71 360.60 1005.80 362.75 924.63 468.83 857.33 562.46 988.15 564.65
00027419 00000110 748.73 142.32 365.74 551.41 838.16 360.06 1007.50 362.07 925.21 467.22 857.61 561.36 991.65 563.43
00027420 00000111 750.49 144.09 366.04 547.40 840.23 356.57 1006.96 361.14 925.80 466.16 857.29 553.96 992.33 557.90
00027421 00000112 754.28 144.19 363.73 546.95 842.62 355.32 1007.73 359.72 927.03 467.59 859.88 553.48 992.21 557.22
00027422 00000113 756.70 146.32 361.57 547.33 844.62 355.70 1007.15 360.39 925.52 467.16 861.55 553.60 990.34 557.62
00027423 00000114 759.23 147.77 360.59 552.42 850.25 357.70 1009.10 360.61 931.92 466.30 871.21 562.24 990.31 565.40
00027424 00000115 762.01 149.78 360.02 558.76 852.04 359.40 1011.72 361.03 932.79 464.94 870.41 563.91 997.92 566.01
00027425 00000116 761.93 147.80 361.48 551.75 851.82 359.02 1011.27 360.72 934.56 464.23 872.00 559.81 997.74 561.78
00027426 00000117 764.84 145.17 357.56 540.72 851.33 359.57 1013.27 360.54 937.70 462.75 872.31 555.10 1001.38 556.36
00027427 00000118 765.43 145.63 356.05 533.38 850.61 358.31 1013.94 359.39 937.31 460.01 870.59 549.42 1001.99 550.98
00027428 00000119 765.97 145.75 355.75 535.46 852.04 357.69 1013.74 358.61 938.19 458.66 872.48 549.40 1003.08 550.51
00027429 DELETE   767.41 145.84 353.32 541.58 855.58 360.64 1011.65 361.27 939.75 456.64 877.35 550.99 1004.81 552.24
00027430 DELETE   761.39 149.99 359.01 538.09 856.81 364.74 1016.51 363.62 935.98 457.56 874.26 548.20 1009.05 548.33
00027431 DELETE   768.60 147.49 351.99 536.16 856.00 363.10 1016.06 360.98 942.86 453.76 877.50 551.33 1010.27 550.46
00027432 00000123 763.36 149.48 357.46 526.19 855.62 363.08 1017.03 361.44 937.08 458.09 876.14 543.64 1010.57 543.25
00027433 00000124 762.89 152.11 355.87 515.06 860.51 363.87 1016.51 359.99 941.52 451.60 879.32 539.88 1008.94 537.26
00027434 00000125 762.48 152.83 356.20 510.89 859.67 362.27 1014.74 357.37 939.80 447.79 879.61 538.59 1006.77 535.20
00027435 00000126 762.16 153.52 356.41 509.10 861.05 360.20 1015.32 356.05 941.16 446.84 881.16 536.66 1006.91 533.69
00027436 00000127 762.45 153.74 353.67 504.98 860.40 358.46 1012.10 354.47 937.78 445.20 878.11 532.45 1002.53 530.02
00027437 00000128 763.15 155.72 351.25 501.77 861.46 357.31 1011.03 353.89 937.48 443.24 878.75 530.17 1000.08 528.43
00027438 00000129 762.03 153.55 355.04 504.89 854.15 356.01 1011.84 353.08 932.96 446.99 875.53 531.14 1004.29 530.31
00027439 00000130 762.19 153.97 353.61 503.32 853.34 356.62 1010.41 353.18 931.62 448.34 874.90 531.17 1003.01 529.96
00027440 00000131 761.92 154.46 353.35 502.01 853.15 356.85 1009.36 353.53 930.60 448.55 874.67 531.03 1001.36 529.90
00027441 00000132 762.53 155.28 351.77 501.19 853.22 357.06 1008.96 353.53 930.76 449.12 874.61 530.46 1001.84 529.05
00027442 00000133 762.46 155.43 351.06 500.57 853.14 357.44 1007.07 353.53 930.09 449.76 875.29 530.77 999.95 529.04
00027443 00000134 761.80 155.52 351.86 501.96 853.54 358.02 1007.77 354.02 931.94 452.06 877.72 533.32 1001.07 531.40
00027444 00000135 761.47 154.40 351.22 501.57 852.97 358.28 1008.80 353.56 932.05 451.42 879.30 535.37 1001.44 532.90
00027445 00000136 761.85 152.57 350.53 506.91 851.78 357.65 1009.45 353.31 930.69 452.98 879.71 540.99 998.01 539.10
00027446 00000137 761.60 152.55 350.19 515.08 851.66 356.60 1009.48 354.27 929.70 452.90 877.06 543.89 996.01 543.83
00027447 00000138 761.12 153.49 349.40 522.08 852.78 357.31 1006.77 356.76 929.38 453.53 877.18 548.41 991.90 549.96
00027448 00000139 765.31 150.60 342.78 529.17 848.44 355.38 1005.88 356.40 928.83 458.73 871.30 553.31 987.42 555.85
00027449 00000140 764.35 151.19 343.31 531.02 847.56 357.58 1005.76 360.77 927.59 464.00 866.86 554.78 987.16 558.93
00027450 00000141 763.77 153.87 342.52 532.60 846.14 360.06 1005.44 362.86 925.36 463.09 862.27 555.54 989.38 559.50
00027451 00000142 762.50 155.47 344.21 543.42 846.03 360.34 1003.55 360.97 925.37 462.32 861.20 556.45 993.02 558.77
00027452 00000143 759.01 156.26 347.08 536.72 842.70 360.49 1000.88 359.89 923.63 461.76 860.49 553.79 992.13 554.80
00027453 00000144 756.51 154.32 346.35 523.40 839.44 362.97 999.24 362.06 924.03 464.46 861.56 553.73 987.87 554.06
00027454 00000145 756.30 157.19 347.16 522.39 842.07 366.35 1000.07 367.55 926.58 470.51 862.06 554.43 989.80 556.00
00027455 00000146 755.78 157.83 346.85 519.68 842.11 365.21 1000.25 367.54 926.42 472.67 861.27 554.39 987.75 556.92
00027456 00000147 756.17 156.10 346.00 519.47 838.67 364.01 995.76 363.85 921.20 468.02 860.40 553.41 983.23 554.26
00027457 00000148 756.55 154.74 344.59 521.61 837.26 360.10 995.50 361.62 918.53 462.74 855.53 548.65 983.19 551.17
00027458 00000149 755.94 154.73 344.12 522.27 836.01 358.78 994.68 359.13 917.20 461.91 855.60 548.25 982.78 549.98
00027459 00000150 755.43 156.65 344.36 520.42 835.80 358.20 993.70 358.69 915.96 460.14 854.14 545.61 981.28 547.45
00027460 00000151 756.92 159.76 342.46 524.97 837.64 358.88 993.56 359.08 915.09 461.08 855.64 549.22 979.93 550.93
00027461 00000152 755.78 158.78 345.99 535.53 839.27 362.88 993.00 358.22 919.96 464.23 862.77 554.76 989.18 551.90
00027462 00000153 757.49 158.91 346.30 535.65 842.86 361.43 995.84 357.69 924.79 461.43 865.98 553.33 992.60 551.31
00027463 00000154 759.20 157.28 344.11 526.34 844.54 358.79 998.55 355.46 928.28 458.37 869.54 553.26 988.87 552.28
00027464 00000155 761.75 152.47 342.13 519.33 843.98 357.99 1002.03 355.37 930.48 458.53 870.94 550.52 991.67 550.12
00027465 00000156 758.39 158.31 348.78 507.50 847.41 361.40 1007.33 357.67 928.99 459.74 875.69 545.25 999.24 543.75
00027466 00000157 760.23 157.97 349.32 507.79 848.75 360.99 1008.63 357.19 930.02 457.26 876.17 544.10 1000.23 542.54
00027467 00000158 760.68 157.67 349.96 506.96 850.25 360.99 1010.08 356.91 931.43 454.46 877.39 543.27 1001.18 541.50
00027468 00000159 760.92 157.37 351.03 504.54 852.19 359.87 1012.28 356.30 933.61 453.46 878.86 541.04 1002.47 539.54
00027469 00000160 762.72 157.62 350.71 503.24 853.73 359.16 1013.01 355.76 934.90 451.37 879.85 539.56 1003.15 538.24
00027470 00000161 764.40 156.67 350.36 506.25 854.96 359.14 1014.84 356.48 936.35 450.85 880.23 539.95 1004.94 539.31
00027471 00000162 766.36 156.51 349.82 507.76 857.12 359.02 1016.45 356.27 939.38 451.14 882.40 540.78 1006.45 540.00
00027472 00000163 767.60 156.05 350.68 510.20 859.41 359.27 1018.26 356.44 942.70 451.40 885.03 541.65 1008.97 540.65
00027473 00000164 768.45 157.05 350.03 509.39 860.35 359.56 1019.21 355.79 943.84 450.62 886.38 542.21 1010.08 540.45
00027474 00000165 766.87 159.96 350.95 507.28 870.27 360.96 1018.89 358.94 949.38 445.10 892.21 537.93 1008.04 536.97
00027475 00000166 767.75 160.22 351.06 507.50 870.75 360.51 1020.08 358.54 950.25 445.52 892.79 538.43 1009.08 537.46
00027476 00000167 768.38 160.71 350.74 507.25 871.25 360.32 1020.59 358.75 951.05 445.87 893.36 538.34 1009.09 537.77
00027477 00000168 767.99 160.22 351.34 507.78 871.18 360.44 1020.87 358.48 951.50 446.82 894.28 539.22 1009.62 538.24
