Video ID: 	jcbEYDRSLqo
H: 	1080
W: 	1920
FPS: 	29.97002997002997

FRAME INDEX X0 Y0 W H [Landmarks (5 Points)]

00009128 00000000 766.53 177.64 338.30 507.65 857.99 411.63 1004.92 390.83 953.46 495.48 907.21 583.66 1021.48 567.45
00009129 00000001 766.38 175.81 338.30 511.73 857.42 412.75 1004.27 391.93 953.00 496.56 907.19 584.88 1021.77 568.50
00009130 00000002 766.10 176.64 339.24 512.42 857.70 413.40 1005.70 393.18 953.25 497.23 907.03 586.42 1022.36 570.50
00009131 00000003 767.29 176.21 338.51 515.32 858.36 414.09 1007.98 395.02 953.79 498.03 906.93 588.23 1023.79 573.12
00009132 00000004 767.46 177.33 337.60 515.59 858.80 414.31 1009.44 395.61 954.25 497.23 905.60 587.90 1024.20 573.25
00009133 00000005 767.44 179.10 338.23 513.62 858.86 414.58 1009.71 395.44 954.72 496.64 906.37 588.11 1025.32 573.09
00009134 00000006 768.63 177.98 337.87 515.38 859.76 415.78 1010.85 395.51 956.85 498.47 908.60 589.78 1028.10 573.76
00009135 00000007 769.06 179.98 337.64 514.98 861.95 418.38 1010.87 397.65 958.88 499.69 909.97 590.71 1028.43 574.54
00009136 00000008 771.35 180.99 336.21 516.43 863.76 419.48 1012.25 398.46 960.37 499.64 909.82 590.21 1030.21 574.00
00009137 00000009 772.42 180.70 336.04 515.69 865.63 418.80 1017.20 400.24 962.70 498.93 909.96 590.39 1031.83 576.33
00009138 00000010 772.91 181.14 335.44 514.36 867.46 418.28 1018.76 400.76 964.81 498.97 910.12 589.24 1031.79 575.81
00009139 00000011 774.40 180.76 334.52 515.32 868.52 417.20 1019.06 398.51 966.43 496.69 911.63 587.79 1033.67 573.51
00009140 00000012 775.24 181.80 334.91 512.38 869.86 414.95 1019.41 396.29 968.03 494.40 913.41 585.66 1034.28 571.36
00009141 00000013 775.99 179.83 334.26 511.07 872.13 415.66 1022.22 397.34 971.37 493.88 915.14 585.43 1035.68 571.37
00009142 00000014 777.41 179.69 333.22 510.54 874.26 418.68 1025.78 400.39 973.46 495.32 915.81 586.16 1038.90 572.04
00009143 00000015 779.30 179.28 333.02 510.92 877.21 420.77 1027.05 403.88 976.34 494.99 916.26 584.91 1039.52 572.09
00009144 00000016 781.82 179.13 330.27 509.50 882.65 422.13 1031.57 403.62 983.36 492.01 918.45 580.09 1046.00 566.33
00009145 DELETE   777.10 185.34 332.41 500.08 894.51 416.80 1036.36 394.92 994.37 493.86 921.00 568.96 1050.50 551.54
00009146 DELETE   778.31 187.03 333.95 496.99 895.87 417.14 1040.69 392.12 1000.99 489.71 921.80 562.49 1055.78 541.55
00009147 00000019 781.81 187.35 333.18 499.65 900.46 417.41 1043.74 390.90 1005.65 488.69 925.46 559.37 1058.04 537.11
00009148 00000020 785.34 188.11 331.01 500.57 906.60 416.92 1047.20 389.80 1012.11 489.18 927.54 557.11 1060.60 534.36
00009149 00000021 789.03 188.71 329.86 499.22 910.89 417.32 1050.31 389.54 1016.82 491.41 929.31 557.37 1062.80 534.22
00009150 00000022 789.85 188.11 329.89 500.95 912.01 416.51 1052.27 390.66 1018.31 491.91 928.42 558.03 1063.45 536.50
00009151 00000023 790.72 190.39 329.74 499.98 913.66 416.66 1053.07 390.29 1020.79 492.07 930.76 558.89 1065.15 536.86
00009152 00000024 791.15 190.54 330.36 499.76 915.38 416.00 1054.19 389.73 1022.32 491.96 933.35 559.00 1066.11 537.07
00009153 00000025 791.52 190.35 330.52 500.67 916.58 416.26 1055.36 389.80 1024.39 491.85 935.59 559.42 1067.55 537.39
00009154 00000026 791.31 191.17 331.57 500.41 918.28 415.48 1056.66 389.88 1026.12 491.30 936.97 559.90 1068.10 538.65
00009155 00000027 792.24 190.39 331.09 501.60 919.88 415.59 1057.06 390.42 1027.73 492.07 938.55 560.41 1068.62 539.70
00009156 00000028 793.45 188.65 330.88 502.95 921.53 415.30 1059.02 390.14 1029.75 491.91 939.36 560.55 1069.80 540.00
00009157 00000029 793.96 187.21 331.07 504.38 923.00 415.44 1060.49 389.72 1031.49 492.57 941.27 560.65 1071.54 539.68
00009158 00000030 794.86 186.96 330.85 504.32 923.90 414.42 1061.91 389.88 1032.57 493.21 941.12 560.99 1072.23 541.03
00009159 00000031 795.77 187.57 330.30 504.73 925.00 415.08 1063.46 391.14 1034.12 494.23 940.94 561.46 1073.19 542.02
00009160 00000032 798.00 186.49 327.51 506.32 923.77 414.39 1063.46 391.96 1031.93 494.08 938.68 559.47 1071.12 543.73
00009161 00000033 798.13 187.60 328.60 504.95 925.04 414.70 1064.64 392.37 1033.84 493.63 939.81 560.15 1071.75 544.55
00009162 00000034 798.04 185.53 328.82 505.59 926.88 413.80 1066.20 392.66 1036.00 492.19 941.32 559.84 1072.73 545.20
00009163 00000035 797.96 187.23 328.01 503.26 925.94 412.59 1063.42 389.70 1035.20 490.44 942.65 559.01 1071.75 542.78
00009164 00000036 794.23 187.03 330.83 502.72 928.92 408.41 1064.11 385.57 1041.83 485.38 946.04 558.79 1074.79 540.21
00009165 00000037 793.45 183.97 329.52 502.38 926.97 406.89 1062.44 382.89 1039.76 479.10 947.42 556.32 1075.60 536.48
00009166 00000038 793.68 180.18 326.56 500.01 923.03 403.46 1056.12 380.98 1033.68 471.51 948.97 555.05 1073.15 538.33
00009167 00000039 789.73 178.13 326.59 495.67 919.41 401.10 1052.44 377.99 1029.08 472.06 951.31 556.97 1071.26 539.63
00009168 00000040 785.73 175.80 326.51 494.58 916.03 399.64 1049.85 375.63 1026.71 471.27 950.12 558.30 1068.84 540.18
00009169 00000041 784.52 171.84 325.38 494.86 915.28 399.64 1047.87 374.29 1024.54 470.81 952.34 557.74 1067.92 538.43
00009170 00000042 783.85 171.92 324.91 489.53 914.28 399.30 1046.10 372.87 1023.10 469.85 954.58 558.43 1066.89 538.15
00009171 00000043 783.02 171.54 325.06 490.21 914.33 399.04 1045.59 372.60 1022.99 469.65 955.28 558.65 1066.76 538.40
00009172 00000044 781.84 172.43 326.36 492.13 915.26 397.80 1044.98 372.58 1023.27 467.58 957.22 558.62 1066.24 539.40
00009173 00000045 781.02 173.72 327.49 492.88 914.64 396.36 1043.89 371.72 1022.80 465.89 958.44 559.61 1066.17 540.72
00009174 00000046 779.94 174.74 328.72 494.79 913.77 396.02 1042.97 371.34 1022.39 465.86 958.68 560.83 1066.19 541.97
00009175 00000047 779.09 175.79 328.56 496.81 913.32 396.47 1043.06 372.54 1022.87 466.78 956.26 561.09 1065.75 542.88
00009176 00000048 779.63 174.90 328.17 499.42 912.93 397.91 1042.75 374.01 1021.94 469.05 954.51 562.21 1064.83 544.20
00009177 00000049 779.80 174.91 327.70 502.09 911.76 399.61 1043.14 374.72 1021.78 472.41 950.60 562.32 1064.98 543.42
00009178 00000050 780.65 173.23 324.17 494.06 911.99 400.20 1044.27 374.34 1020.97 473.23 951.52 561.96 1063.83 542.10
00009179 00000051 779.59 172.42 325.42 496.45 910.68 400.25 1044.55 373.70 1021.20 473.57 949.85 561.79 1065.34 541.42
00009180 00000052 779.56 172.77 325.16 488.76 910.68 399.59 1043.82 371.68 1021.39 471.27 953.09 561.18 1066.19 539.64
00009181 00000053 778.48 172.93 325.82 489.04 912.41 398.90 1042.24 371.74 1021.43 470.48 957.64 560.70 1064.99 539.87
00009182 00000054 778.31 173.03 325.83 488.97 913.24 399.29 1042.02 372.06 1021.41 471.76 960.89 561.81 1064.51 541.03
00009183 00000055 777.81 174.01 325.39 492.63 913.77 399.64 1042.09 373.26 1021.20 474.58 960.39 564.09 1063.27 543.89
00009184 00000056 777.53 174.81 326.37 495.16 914.80 401.33 1043.51 375.58 1022.14 476.97 960.43 565.87 1064.08 546.26
00009185 00000057 780.24 177.44 326.24 499.02 914.12 402.00 1048.53 375.17 1020.11 476.91 962.04 564.97 1064.01 543.44
00009186 00000058 778.43 176.93 328.95 497.70 913.74 403.71 1044.94 377.94 1020.73 479.93 955.25 567.77 1064.16 548.09
00009187 00000059 779.40 176.34 328.11 498.64 913.40 403.89 1045.41 378.43 1020.35 481.28 952.81 567.50 1063.44 547.96
00009188 00000060 780.89 176.04 326.64 501.39 913.54 403.87 1045.93 379.03 1020.77 481.74 950.79 566.63 1063.60 547.52
00009189 00000061 781.03 176.84 327.00 499.96 914.22 403.72 1046.30 379.15 1021.36 481.20 951.96 566.31 1063.69 547.42
00009190 00000062 780.43 176.38 326.67 495.82 915.92 403.25 1045.05 377.67 1022.77 478.99 958.68 566.12 1064.79 546.67
00009191 00000063 780.94 176.38 325.43 491.40 916.03 403.71 1044.94 376.39 1023.54 477.82 960.53 564.77 1065.86 544.00
00009192 00000064 781.29 176.76 325.32 489.35 915.93 402.61 1044.72 375.86 1023.25 477.20 960.41 563.53 1065.56 543.08
00009193 00000065 781.54 175.77 325.76 492.74 915.43 402.49 1045.18 376.48 1022.91 477.12 957.59 563.19 1065.37 543.40
00009194 00000066 780.98 176.30 326.62 492.86 914.83 402.14 1044.89 376.95 1022.09 476.23 956.31 563.35 1064.82 544.16
00009195 00000067 780.54 176.95 327.14 493.15 913.82 402.03 1044.81 377.27 1021.88 476.56 953.96 563.31 1064.50 544.37
00009196 00000068 779.74 175.90 327.39 494.91 913.01 402.85 1044.84 377.56 1021.08 477.57 952.99 564.45 1064.26 545.14
00009197 00000069 779.73 176.29 327.19 495.10 912.17 403.54 1044.15 377.59 1020.83 478.33 951.71 564.26 1064.01 544.43
00009198 00000070 779.13 175.54 326.93 496.40 911.98 404.15 1044.22 377.90 1020.79 480.17 951.21 565.27 1063.60 545.18
00009199 00000071 778.97 178.54 327.07 494.89 911.74 405.75 1045.09 379.16 1021.36 481.67 950.69 566.12 1063.92 545.76
00009200 00000072 778.77 179.32 327.69 494.00 912.12 405.76 1045.78 379.44 1021.39 482.37 951.87 567.04 1064.39 546.74
00009201 00000073 779.07 179.20 327.20 494.46 912.64 406.58 1046.30 379.67 1022.58 482.35 952.21 567.23 1064.89 546.67
00009202 00000074 780.83 179.42 326.50 493.10 914.64 407.04 1047.13 379.47 1024.83 482.25 955.05 566.76 1066.39 545.85
00009203 00000075 781.61 178.58 326.60 492.77 916.53 407.02 1047.04 377.54 1026.84 482.16 959.76 566.55 1068.59 544.35
00009204 00000076 783.88 179.13 325.48 489.37 918.52 406.12 1047.89 376.40 1028.53 480.62 963.42 565.93 1070.63 543.58
00009205 00000077 786.36 177.77 325.75 493.16 921.48 405.87 1049.51 375.94 1031.63 478.18 967.49 565.68 1073.42 543.36
00009206 00000078 787.95 177.45 325.45 493.52 925.37 406.62 1053.31 377.14 1035.68 478.63 969.64 566.30 1075.27 544.56
00009207 00000079 789.23 178.99 324.22 491.42 927.34 407.17 1055.41 378.36 1037.84 478.53 970.71 566.37 1075.93 545.29
00009208 00000080 787.68 177.72 325.45 494.87 928.06 407.42 1056.09 379.45 1038.54 479.17 969.62 566.88 1075.15 546.62
00009209 00000081 787.53 178.17 325.44 495.36 927.63 407.88 1056.20 379.27 1038.70 479.67 969.79 567.52 1075.55 546.70
00009210 00000082 786.90 179.42 325.80 494.88 927.62 409.11 1055.74 380.40 1038.55 480.62 969.21 567.59 1074.82 546.86
00009211 00000083 786.90 181.10 325.58 495.35 927.71 409.39 1055.77 381.18 1038.38 481.47 969.39 569.04 1074.32 548.63
00009212 00000084 787.01 181.95 325.68 494.66 927.89 411.23 1055.46 381.70 1038.56 483.36 970.34 569.91 1075.00 548.53
00009213 00000085 786.07 182.95 326.50 493.16 927.73 411.79 1055.76 382.93 1038.05 485.25 969.79 571.79 1073.97 550.77
00009214 00000086 786.71 183.29 324.78 496.01 928.16 411.66 1056.50 384.29 1038.76 485.76 969.94 574.60 1074.13 554.68
00009215 00000087 786.81 183.70 324.46 494.32 928.29 412.44 1056.74 384.40 1038.93 486.18 971.01 575.56 1074.66 555.18
00009216 00000088 787.06 182.66 324.33 495.48 927.72 413.51 1056.43 384.85 1038.51 486.63 971.02 576.20 1075.05 555.43
00009217 00000089 787.80 182.87 323.92 495.48 927.36 413.88 1056.61 385.12 1037.90 487.12 970.28 575.86 1075.38 554.94
00009218 00000090 788.37 182.54 323.69 495.26 927.34 414.53 1057.46 385.44 1038.55 487.77 969.85 575.76 1076.31 554.64
00009219 00000091 788.69 184.70 323.77 492.88 927.72 414.94 1057.05 385.40 1038.62 488.23 969.83 575.10 1076.17 553.63
00009220 00000092 788.93 185.35 323.60 492.52 928.86 415.41 1057.62 385.60 1039.19 488.57 971.26 575.27 1076.78 553.59
00009221 00000093 789.61 183.39 323.60 494.31 929.77 415.41 1058.64 386.08 1040.58 489.32 970.89 575.48 1076.64 554.35
00009222 00000094 790.85 184.46 323.72 494.89 931.48 416.11 1060.35 387.00 1042.45 489.43 972.65 576.12 1078.36 555.12
00009223 00000095 792.80 184.16 323.30 496.02 935.29 416.34 1062.37 387.64 1045.61 488.69 976.85 576.60 1079.69 555.87
00009224 00000096 794.52 184.63 322.86 495.74 937.68 415.71 1065.02 387.80 1048.51 489.03 977.59 575.66 1080.84 555.33
00009225 00000097 795.64 183.39 323.55 495.88 939.95 415.84 1068.30 388.04 1052.18 488.76 979.80 576.04 1083.29 555.79
00009226 00000098 797.61 180.95 324.19 498.73 943.01 414.88 1071.34 387.66 1056.76 487.25 981.17 575.08 1085.49 555.33
00009227 00000099 800.91 179.49 322.22 500.24 946.60 413.06 1074.14 386.76 1060.89 486.61 982.32 573.71 1086.23 554.63
00009228 00000100 799.80 174.78 323.21 504.87 949.46 413.54 1075.70 385.61 1063.77 490.20 983.83 574.36 1086.35 555.45
00009229 00000101 799.99 176.56 324.76 507.28 952.07 412.64 1077.43 384.23 1067.59 489.96 985.59 574.37 1087.88 555.00
00009230 00000102 801.82 174.23 324.83 509.78 954.83 413.44 1078.96 384.27 1071.21 488.58 987.58 572.99 1089.80 553.05
00009231 00000103 805.49 175.88 323.17 507.91 957.00 409.98 1080.43 383.64 1073.36 482.78 991.39 571.71 1091.37 552.63
00009232 00000104 804.93 177.71 324.69 506.38 957.38 409.76 1081.72 384.18 1073.40 482.69 991.75 572.56 1091.71 553.99
00009233 00000105 803.20 174.78 325.74 508.71 954.91 411.08 1081.04 383.46 1070.93 488.97 987.54 573.07 1090.50 553.97
00009234 00000106 801.77 173.78 325.57 508.44 952.84 409.70 1079.24 383.89 1067.84 487.35 984.48 570.47 1088.41 552.74
00009235 00000107 799.05 175.33 326.44 506.79 950.11 406.18 1076.63 383.99 1062.41 486.56 979.60 568.64 1084.61 553.38
00009236 00000108 799.15 180.89 322.70 498.87 944.57 410.39 1073.00 386.54 1057.06 483.14 976.52 570.28 1082.47 553.04
00009237 00000109 793.84 179.30 322.14 501.60 941.23 412.49 1068.64 388.54 1049.47 483.56 972.59 571.35 1077.41 554.50
00009238 DELETE   790.39 179.50 319.99 500.14 932.64 412.73 1062.08 388.06 1040.37 484.20 964.21 571.01 1071.50 553.74
00009239 DELETE   785.28 185.18 320.48 494.57 921.60 411.33 1053.13 385.15 1029.18 485.66 956.70 571.35 1066.04 552.20
00009240 DELETE   780.13 185.56 323.45 493.07 910.01 409.06 1047.50 384.53 1018.87 488.18 943.64 570.70 1060.75 551.81
00009241 00000113 772.79 180.66 325.96 495.05 899.10 408.66 1041.42 384.90 1004.35 482.53 936.46 566.19 1049.61 547.31
00009242 00000114 772.67 174.38 329.43 504.73 882.46 410.20 1030.66 385.59 992.30 481.19 920.17 572.06 1046.58 553.83
00009243 00000115 768.88 174.30 330.26 509.64 872.88 412.81 1020.25 386.55 982.35 484.45 916.00 575.09 1042.31 555.14
00009244 00000116 765.73 175.53 332.20 511.75 866.42 414.66 1013.72 388.99 973.76 486.39 910.76 576.04 1037.77 556.38
00009245 00000117 762.66 175.60 333.96 511.82 861.99 413.12 1008.43 387.68 967.76 484.79 907.03 575.29 1032.19 555.66
00009246 00000118 759.36 175.19 335.03 511.14 856.93 410.00 1002.03 385.87 959.67 485.32 903.39 573.53 1026.04 554.71
00009247 00000119 756.11 174.89 335.84 510.98 850.74 405.85 995.24 384.88 950.15 484.81 897.77 572.12 1018.52 555.47
00009248 00000120 751.99 178.56 338.77 508.19 846.87 407.20 990.32 385.70 943.13 487.23 892.44 572.63 1012.65 555.70
00009249 00000121 747.62 182.60 340.71 507.43 843.42 405.80 986.26 385.60 938.08 490.23 889.77 574.91 1007.07 558.90
00009250 00000122 745.35 183.24 338.54 507.89 840.70 407.79 981.72 386.75 934.29 490.90 886.64 575.75 1003.10 559.39
00009251 00000123 744.10 185.11 337.24 505.27 838.93 408.64 978.59 389.23 929.62 494.06 884.00 577.19 997.81 562.21
00009252 00000124 741.63 186.94 335.21 504.52 836.04 411.25 974.38 390.37 926.52 494.84 882.72 578.95 995.78 562.90
00009253 00000125 739.49 187.08 332.66 505.60 834.33 412.86 970.68 391.68 923.90 495.96 881.81 580.90 992.35 564.88
00009254 00000126 736.38 188.86 333.48 503.62 833.14 412.78 968.95 392.41 922.19 495.91 879.78 580.12 989.71 564.79
00009255 00000127 735.66 190.17 332.74 504.62 832.89 413.48 967.75 392.74 921.84 496.59 879.64 580.99 989.06 565.26
00009256 00000128 734.29 191.46 332.86 502.91 831.92 412.54 967.76 392.28 921.28 496.60 878.11 580.23 988.31 564.88
00009257 00000129 734.22 191.58 333.21 502.59 832.46 411.22 967.79 391.83 921.08 495.95 877.21 578.53 987.60 563.94
00009258 00000130 734.68 190.96 333.06 503.07 831.84 410.87 967.79 391.69 920.66 495.42 876.98 578.13 988.03 563.66
00009259 00000131 734.09 185.33 333.07 505.08 837.12 412.80 972.55 390.85 925.39 496.08 870.82 576.43 989.55 558.72
00009260 00000132 734.54 182.99 332.32 508.41 837.14 412.00 973.98 390.10 926.52 495.66 869.98 576.90 991.66 559.13
CROP_BBOX: 563 0 1299 802
