Video ID: 	-b4AdJXKftk
H: 	1080
W: 	1920
FPS: 	25.0

FRAME INDEX X0 Y0 W H [Landmarks (5 Points)]

00009491 00000000 665.42 206.62 391.50 546.56 777.38 509.72 930.17 459.07 888.30 581.61 860.28 651.43 981.91 609.96
00009492 00000001 662.27 204.46 390.19 549.13 773.19 509.25 923.09 457.61 883.25 579.46 856.59 651.66 975.54 609.80
00009493 DELETE   660.70 206.18 385.45 548.21 769.28 510.30 918.42 455.24 879.73 578.98 852.36 649.49 975.00 604.57
00009494 DELETE   651.20 209.26 386.33 541.11 763.32 511.42 911.05 454.19 873.75 584.74 849.43 654.40 967.85 605.01
00009495 00000004 649.56 208.45 383.81 540.36 760.35 511.29 906.05 451.96 870.24 581.76 846.69 651.88 966.26 600.54
00009496 00000005 641.25 208.29 388.55 540.52 757.47 507.92 901.09 452.09 865.80 579.93 842.83 646.70 961.53 598.04
00009497 DELETE   636.71 209.37 390.07 536.79 755.09 508.37 897.73 452.32 862.89 579.36 840.36 645.55 958.04 596.83
00009498 00000007 634.14 207.52 391.73 538.00 754.39 511.19 895.75 454.69 861.89 579.31 840.34 644.62 958.68 595.38
00009499 00000008 635.79 209.85 391.04 535.84 755.41 514.03 895.99 456.09 863.27 581.13 842.12 645.11 960.99 594.63
00009500 00000009 636.76 212.46 390.65 533.58 756.50 515.79 897.76 456.67 865.62 582.15 843.11 645.50 963.87 593.98
00009501 00000010 637.43 212.49 390.94 533.47 758.81 514.51 900.18 456.45 868.46 583.35 845.79 646.12 964.72 595.55
00009502 00000011 639.92 210.39 388.90 534.83 759.61 513.92 902.22 454.74 870.67 580.94 843.16 644.77 965.11 593.32
00009503 00000012 639.75 210.26 389.75 535.81 758.90 512.93 902.52 454.24 869.40 579.06 838.92 644.07 962.88 593.03
00009504 00000013 642.33 208.74 386.59 537.76 758.63 510.64 902.21 452.50 867.96 578.37 838.19 642.78 962.76 592.21
00009505 00000014 642.84 207.53 387.22 540.22 759.54 509.87 903.31 451.93 869.02 578.74 839.47 643.69 962.76 593.46
00009506 00000015 644.24 204.25 385.76 542.14 761.07 509.66 905.03 450.50 871.24 578.21 840.64 644.12 963.29 593.04
00009507 00000016 643.64 203.12 386.63 542.86 762.58 508.92 905.69 449.47 872.84 576.83 840.32 642.17 962.50 591.14
00009508 00000017 643.27 204.12 387.64 541.62 762.34 507.94 906.39 448.06 873.07 576.77 840.47 641.95 962.73 590.60
00009509 00000018 643.11 203.99 388.34 541.32 763.41 507.26 907.41 447.85 874.57 576.66 844.68 645.90 962.54 594.93
00009510 00000019 644.31 201.36 388.68 543.54 764.16 505.54 907.57 447.11 873.81 575.70 847.72 648.02 961.61 598.31
00009511 00000020 646.14 202.09 388.62 541.82 764.18 504.17 910.03 446.27 873.98 575.47 850.89 652.38 962.06 603.47
00009512 00000021 649.68 202.21 385.57 541.13 766.10 507.77 911.01 449.28 875.34 577.39 852.99 654.42 964.67 604.96
00009513 00000022 653.53 205.13 393.65 549.29 771.86 507.63 924.14 450.63 886.68 579.13 857.09 651.42 980.41 605.08
00009514 00000023 659.44 201.94 393.26 551.77 777.30 514.45 930.23 455.06 892.86 583.48 865.08 655.49 990.10 606.93
00009515 00000024 664.39 213.14 396.93 544.94 785.07 517.17 939.72 460.06 900.88 587.22 872.34 657.68 998.73 610.63
00009516 00000025 666.95 218.16 399.88 538.43 792.99 517.73 948.57 464.88 909.04 590.59 879.80 658.59 1002.63 614.96
00009517 00000026 672.45 214.53 395.04 541.80 798.31 518.71 953.73 464.65 916.05 589.29 882.61 659.36 1007.59 614.03
00009518 00000027 674.09 216.25 396.63 540.64 800.66 518.23 955.65 465.38 916.86 587.53 881.10 656.89 1008.47 612.29
00009519 00000028 673.55 215.32 398.94 537.55 800.96 517.74 955.56 462.86 917.85 584.78 882.00 654.24 1009.32 608.10
00009520 00000029 674.77 215.38 399.55 536.97 801.12 516.38 955.43 460.86 917.76 584.08 883.25 652.66 1011.59 605.92
00009521 00000030 674.80 215.31 399.74 537.94 801.59 515.24 956.11 460.05 918.42 583.90 883.37 652.41 1011.96 605.96
00009522 00000031 676.71 217.31 397.83 533.88 803.54 515.57 958.43 460.77 920.00 583.54 884.42 652.18 1012.36 606.12
00009523 00000032 679.43 214.28 395.47 536.51 806.93 514.02 960.19 460.30 923.00 582.05 887.23 651.31 1014.28 605.97
00009524 00000033 683.00 211.35 394.39 541.25 809.65 512.05 961.55 459.30 923.95 579.96 888.26 650.97 1015.29 606.18
00009525 00000034 686.02 208.08 393.04 544.35 813.22 512.12 965.12 460.13 927.58 578.84 888.31 649.84 1016.55 605.65
00009526 00000035 690.32 204.64 392.77 548.93 822.50 510.70 970.99 459.41 936.91 573.87 895.58 646.94 1021.79 603.00
00009527 00000036 697.44 199.64 390.08 551.47 830.85 510.82 975.98 454.77 948.07 572.29 907.88 648.82 1030.09 600.59
00009528 DELETE   705.70 201.07 387.42 552.28 835.94 509.52 983.54 452.02 953.78 575.59 910.48 650.18 1034.59 600.83
00009529 00000038 708.39 207.92 392.38 550.67 841.70 507.56 990.47 451.85 960.11 576.19 913.35 654.04 1035.61 606.53
00009530 00000039 712.46 203.44 393.74 553.50 846.53 509.62 996.89 450.02 966.57 575.43 918.78 654.96 1041.41 604.61
00009531 00000040 717.78 203.41 392.41 552.14 848.73 507.84 1000.36 447.77 969.40 574.45 920.73 654.60 1044.18 603.89
00009532 00000041 726.77 201.86 386.80 553.15 850.75 506.32 1004.54 443.32 972.81 573.87 922.49 654.37 1048.73 601.19
00009533 00000042 730.74 197.94 386.72 549.91 855.76 507.00 1010.63 440.06 979.94 570.65 927.54 649.04 1056.12 593.38
00009534 00000043 734.42 196.57 384.73 551.77 857.57 505.14 1012.93 437.50 982.26 569.22 929.08 647.92 1058.81 591.86
00009535 00000044 741.05 190.55 384.91 551.41 872.80 487.65 1023.74 440.56 991.37 558.02 942.72 629.44 1070.35 590.85
00009536 00000045 743.00 192.81 386.15 547.35 876.28 482.96 1026.09 436.88 994.33 554.74 948.60 629.04 1071.49 591.20
00009537 00000046 743.30 193.95 386.51 544.04 877.40 481.60 1026.55 436.82 994.01 553.27 947.27 626.33 1069.93 589.52
00009538 00000047 744.02 195.74 387.91 543.09 878.71 481.18 1027.51 437.62 994.59 553.29 946.25 624.42 1070.27 588.59
00009539 00000048 743.65 197.46 387.72 542.86 879.03 480.12 1026.64 437.45 993.78 553.03 944.17 622.34 1068.78 587.18
00009540 00000049 742.38 195.70 390.19 543.68 878.99 479.57 1025.62 437.25 992.49 553.23 942.33 620.51 1067.54 585.48
00009541 00000050 744.97 190.94 388.30 552.10 879.06 474.90 1025.84 434.20 990.84 550.66 938.81 620.57 1065.43 587.06
00009542 00000051 744.14 200.87 380.41 549.30 865.33 483.11 1021.55 431.07 982.66 561.26 918.28 639.51 1047.88 596.63
00009543 DELETE   746.55 206.20 378.19 541.12 861.96 472.93 1018.07 429.59 972.52 561.52 909.88 633.21 1039.87 597.89
00009544 00000053 754.80 193.47 377.36 546.75 871.00 452.28 1024.12 433.68 969.66 554.37 912.97 612.06 1044.99 597.07
00009545 00000054 760.50 198.95 375.09 538.68 873.74 446.94 1030.27 434.62 969.67 553.91 907.94 610.03 1042.51 600.19
00009546 00000055 762.65 202.30 376.34 536.74 877.44 444.79 1035.63 436.91 971.89 554.95 909.23 609.98 1042.84 603.73
00009547 00000056 765.00 202.29 379.21 539.28 880.90 444.80 1038.34 440.03 972.29 553.60 910.11 608.49 1044.21 604.62
00009548 00000057 767.93 201.77 380.76 538.51 885.22 441.82 1041.44 438.42 975.33 552.32 913.48 608.21 1044.54 605.72
00009549 00000058 773.86 200.38 376.39 537.44 889.96 439.17 1045.48 437.24 979.01 550.95 915.67 607.90 1043.88 607.06
00009550 00000059 778.43 205.24 374.18 531.32 894.52 436.33 1050.08 436.09 981.43 550.37 916.24 607.97 1042.53 608.83
00009551 00000060 780.58 202.17 374.88 536.31 898.16 435.88 1052.39 437.22 983.84 549.99 919.60 609.42 1043.51 611.56
00009552 00000061 782.79 203.40 374.76 535.63 900.02 438.05 1054.54 438.00 986.13 551.67 922.78 612.79 1045.43 613.89
00009553 00000062 785.51 208.67 374.25 531.42 903.39 440.07 1056.98 439.76 988.40 554.74 926.53 615.38 1046.70 616.23
00009554 00000063 789.13 206.74 374.45 537.13 907.62 443.10 1060.33 441.25 994.02 556.52 931.47 619.83 1050.81 619.31
00009555 00000064 791.44 206.70 373.95 538.74 910.37 443.83 1062.36 440.45 998.06 557.96 935.61 622.00 1054.49 620.10
00009556 00000065 793.12 202.51 375.51 547.50 912.28 445.39 1066.14 439.40 1003.09 558.92 939.18 624.93 1061.48 620.48
00009557 00000066 793.90 201.73 375.77 549.17 913.16 446.08 1068.95 439.60 1005.18 559.39 941.07 625.93 1064.87 620.89
00009558 00000067 795.12 201.61 375.98 549.65 915.53 447.21 1070.43 440.63 1006.82 559.99 942.00 626.22 1065.38 621.22
00009559 00000068 798.31 203.08 375.41 547.88 917.32 448.11 1072.71 441.81 1008.65 559.43 942.72 626.04 1067.10 621.29
00009560 00000069 799.68 210.13 375.03 545.80 919.90 449.51 1074.27 444.24 1010.43 561.08 942.55 626.75 1067.49 622.90
00009561 00000070 800.69 207.88 374.60 546.34 920.64 450.39 1075.29 444.66 1011.35 560.86 942.89 626.02 1068.30 621.88
00009562 00000071 801.15 206.91 374.60 549.02 922.17 450.46 1076.38 443.57 1013.84 560.95 944.00 626.98 1069.46 621.90
00009563 00000072 802.05 202.33 374.76 554.93 922.73 449.96 1076.63 442.59 1014.96 559.90 944.77 627.09 1071.44 621.52
00009564 00000073 802.62 199.38 374.12 557.91 922.88 448.97 1077.06 441.01 1015.98 559.28 945.23 627.19 1072.32 621.17
00009565 00000074 802.94 198.43 373.80 555.31 922.83 449.33 1077.36 440.39 1016.61 557.97 946.31 625.51 1073.89 618.60
00009566 00000075 802.70 196.93 374.22 556.04 922.98 448.56 1077.22 439.45 1016.67 557.04 946.44 624.73 1073.85 617.72
00009567 00000076 802.57 197.25 374.18 555.89 922.90 448.23 1076.81 438.66 1016.49 557.43 947.12 625.17 1073.88 617.74
00009568 00000077 802.79 197.26 374.56 557.22 923.78 448.28 1077.37 438.68 1017.26 557.72 947.55 626.13 1074.02 618.67
00009569 00000078 803.54 197.67 374.01 558.73 924.14 448.52 1077.69 439.02 1017.94 558.12 947.94 627.27 1074.47 619.89
00009570 00000079 803.59 198.44 374.19 556.99 924.20 448.71 1077.73 438.86 1017.96 558.28 948.36 627.08 1074.20 619.48
00009571 00000080 803.27 199.80 374.30 552.70 923.62 447.98 1078.08 437.91 1018.04 557.17 947.92 625.31 1074.53 617.60
00009572 00000081 804.91 198.94 374.68 556.97 926.57 447.44 1078.84 437.71 1020.56 557.12 949.33 625.21 1075.84 617.67
00009573 00000082 805.30 199.74 374.09 556.04 927.11 447.56 1079.31 438.32 1020.70 557.04 949.48 625.29 1075.45 618.17
00009574 00000083 804.36 200.74 374.34 548.00 926.52 446.54 1080.61 436.63 1021.12 555.71 948.81 619.82 1077.41 612.42
00009575 00000084 805.03 203.11 374.03 546.49 927.32 444.23 1079.89 434.71 1021.21 555.06 950.02 619.42 1077.07 612.29
00009576 00000085 806.51 202.12 373.26 548.89 926.78 443.69 1080.25 434.51 1020.47 554.15 952.29 623.97 1076.28 617.02
00009577 00000086 805.60 198.46 374.29 549.26 924.98 444.37 1080.18 433.20 1020.29 554.31 953.40 624.70 1077.57 616.16
00009578 00000087 807.17 200.84 375.31 547.73 926.65 443.34 1081.59 432.88 1021.10 553.77 955.72 625.31 1078.56 617.37
00009579 00000088 813.12 207.17 373.60 545.08 931.77 442.52 1084.94 434.14 1025.26 554.33 959.40 626.36 1081.18 620.20
00009580 00000089 822.67 209.12 371.01 545.48 939.95 443.74 1092.46 435.93 1033.04 554.22 961.62 622.77 1088.46 617.48
00009581 00000090 827.88 203.56 376.90 546.43 947.47 437.62 1104.97 440.63 1039.01 553.09 962.22 608.70 1099.25 612.33
00009582 00000091 829.68 202.23 381.22 547.93 950.92 437.46 1109.11 440.49 1041.64 552.28 965.63 606.79 1103.92 610.08
00009583 00000092 831.57 198.73 382.13 552.00 951.33 435.61 1114.28 441.60 1043.12 550.34 967.78 611.02 1103.81 616.79
00009584 00000093 833.50 201.35 380.67 541.75 952.08 436.85 1117.83 441.80 1044.77 552.22 972.03 612.58 1105.65 617.24
00009585 00000094 834.57 210.61 381.66 535.18 955.06 439.60 1120.58 445.94 1046.97 555.78 973.13 612.29 1107.65 618.26
00009586 00000095 838.96 216.82 380.34 538.97 959.78 448.13 1123.36 454.23 1050.78 567.07 974.01 618.91 1108.06 625.35
00009587 00000096 842.36 229.76 381.37 531.50 963.86 458.06 1128.65 464.14 1054.89 578.37 976.51 626.80 1108.71 633.65
00009588 00000097 848.07 235.61 379.44 530.68 968.08 468.96 1131.74 471.88 1059.13 585.86 983.04 638.41 1110.37 642.96
00009589 00000098 852.79 227.16 379.85 545.12 971.59 472.28 1134.44 474.15 1062.31 588.73 988.05 643.08 1117.03 646.13
00009590 00000099 854.19 221.98 380.00 554.45 976.31 474.66 1137.63 470.81 1069.95 590.35 992.06 641.44 1125.49 639.34
00009591 00000100 855.10 224.19 380.15 553.13 978.29 471.96 1138.95 467.61 1072.71 590.78 991.87 636.86 1129.27 634.51
00009592 00000101 855.89 221.87 379.80 553.05 977.59 471.14 1139.23 466.51 1072.68 590.00 991.62 635.83 1129.61 633.27
00009593 00000102 855.09 222.84 380.51 552.46 977.73 470.07 1138.59 467.58 1071.25 589.99 991.21 636.37 1126.95 635.63
00009594 00000103 855.04 223.39 380.71 550.57 976.57 468.64 1137.98 469.04 1068.40 589.85 992.13 640.27 1122.41 641.98
00009595 00000104 855.86 219.50 380.26 548.35 974.75 469.97 1141.12 469.86 1069.04 588.64 997.41 646.33 1124.77 647.36
00009596 00000105 853.27 218.29 380.79 547.60 972.98 469.89 1139.20 468.70 1068.23 586.24 996.08 643.70 1124.44 643.65
00009597 00000106 849.96 221.30 379.36 547.12 970.87 468.43 1134.32 466.37 1066.40 585.39 990.66 638.79 1122.09 638.25
00009598 00000107 848.83 226.11 376.23 541.43 969.28 467.16 1130.48 466.48 1062.91 585.75 985.54 633.01 1118.08 633.83
00009599 00000108 845.81 228.15 378.12 537.39 968.34 465.95 1129.63 464.37 1063.10 584.98 984.59 630.95 1116.83 631.06
00009600 00000109 845.83 227.35 377.80 537.26 967.66 463.87 1128.03 462.32 1062.09 583.82 984.65 629.13 1116.70 629.24
00009601 00000110 845.06 228.41 378.99 536.55 967.80 462.86 1127.63 461.95 1061.53 583.91 984.76 628.76 1115.82 629.46
00009602 00000111 844.66 228.79 378.84 534.82 967.26 462.59 1127.66 461.81 1061.03 583.57 984.53 628.83 1115.01 629.64
00009603 00000112 843.28 230.34 379.70 532.90 966.56 462.72 1128.63 461.64 1061.60 584.38 985.37 630.24 1115.54 630.78
00009604 00000113 842.07 231.24 379.98 531.01 965.59 462.76 1128.60 461.94 1060.96 584.08 985.23 631.05 1115.04 631.74
CROP_BBOX: 461 0 1408 1001
