Video ID: 	dRfQGp5Y85U
H: 	1080
W: 	1920
FPS: 	23.976026221881842

FRAME INDEX X0 Y0 W H [Landmarks (5 Points)]

00001330 00000000 760.69 124.19 377.01 483.94 818.80 305.18 987.08 293.08 853.58 360.20 829.50 481.14 968.01 472.90
00001331 00000001 772.64 124.92 367.70 499.55 827.09 306.39 990.35 299.97 854.49 370.66 838.61 496.15 964.83 492.16
00001332 00000002 771.77 134.97 368.21 501.83 827.02 310.37 993.95 307.03 862.55 380.72 840.87 510.39 965.27 508.42
00001333 00000003 775.24 132.72 365.25 515.50 830.30 320.56 998.47 318.37 864.42 398.37 847.74 523.44 971.15 521.85
00001334 DELETE   784.40 144.78 356.52 507.70 836.32 328.92 998.54 326.53 872.47 413.17 856.56 531.82 976.04 529.33
00001335 DELETE   789.52 151.59 356.43 527.67 838.78 360.82 1002.02 355.29 873.52 444.81 864.92 555.97 984.60 549.48
00001336 00000006 787.67 158.79 360.07 527.77 840.46 363.71 1003.27 365.42 877.26 455.82 860.83 557.18 985.62 556.16
00001337 00000007 786.09 160.25 362.93 527.35 840.17 363.52 1006.52 368.66 879.58 459.30 858.57 557.06 987.53 558.65
00001338 00000008 784.77 161.01 362.89 520.04 838.25 359.76 1006.28 365.52 879.34 456.00 856.65 553.87 984.80 556.58
00001339 00000009 788.01 156.42 355.56 505.88 842.12 353.72 1008.70 356.23 879.48 436.02 856.05 539.04 980.89 539.83
00001340 00000010 793.02 145.52 353.72 509.01 849.15 343.49 1010.15 344.92 879.75 421.21 857.18 530.87 979.80 531.13
00001341 00000011 792.10 136.71 357.53 505.61 851.26 343.78 1017.29 341.50 884.24 410.36 855.13 525.90 984.14 523.90
00001342 00000012 784.20 129.05 363.25 506.04 850.88 338.21 1019.83 338.62 887.38 403.30 855.27 518.71 985.77 519.02
00001343 00000013 791.07 125.12 358.61 517.22 849.91 343.08 1017.85 339.82 883.25 409.37 854.67 525.88 985.91 523.21
00001344 00000014 789.97 139.53 358.26 509.95 845.06 343.46 1009.97 341.27 878.98 419.90 855.54 532.79 979.57 530.09
00001345 00000015 786.43 144.44 361.30 514.55 837.73 344.41 1005.14 342.45 876.62 433.38 858.88 542.90 981.52 540.31
00001346 00000016 784.65 155.49 361.17 514.95 836.60 348.92 1000.46 354.07 876.04 445.64 857.04 546.07 979.98 548.83
00001347 00000017 771.73 161.70 363.33 517.99 824.62 351.88 983.03 355.14 859.89 451.11 844.44 546.83 964.06 550.56
00001348 00000018 768.13 158.02 361.93 523.83 821.02 349.10 978.87 354.24 853.09 447.55 838.02 546.67 955.50 552.41
00001349 00000019 765.29 164.94 355.93 515.28 815.72 345.97 977.34 349.86 850.17 441.24 831.45 547.64 945.57 549.15
00001350 00000020 765.74 146.84 356.15 535.78 813.77 340.96 970.21 335.41 848.74 432.27 828.23 544.17 951.87 542.82
00001351 00000021 755.33 152.75 356.86 537.72 810.72 348.05 976.35 352.52 843.74 430.33 821.49 548.48 935.85 550.49
00001352 00000022 762.13 148.75 352.93 542.09 813.14 351.41 974.08 346.79 847.62 428.38 817.64 548.36 944.82 549.09
00001353 00000023 760.86 156.55 353.85 537.73 812.84 354.33 974.14 349.37 848.46 428.84 816.22 551.93 945.73 552.31
00001354 00000024 759.89 154.81 357.06 543.85 811.49 358.95 974.48 354.80 848.69 434.05 816.73 555.98 949.85 556.29
00001355 00000025 759.78 160.12 361.51 549.31 810.86 375.37 972.75 368.69 853.58 454.53 822.39 567.16 964.02 563.12
00001356 00000026 762.31 163.23 359.38 548.21 813.05 383.61 973.25 374.80 855.94 464.60 824.33 570.03 971.71 563.68
00001357 00000027 759.71 165.16 361.92 545.12 813.95 389.59 975.69 381.60 861.38 474.60 828.10 571.79 979.13 565.76
00001358 00000028 757.97 165.99 366.13 543.09 814.85 392.11 979.34 386.87 865.24 477.73 827.80 570.58 982.15 566.89
00001359 00000029 758.36 167.23 367.25 539.49 817.23 395.27 984.54 395.52 870.67 487.34 826.87 569.71 986.17 569.89
00001360 00000030 758.12 170.60 369.86 536.48 819.28 397.76 987.74 400.45 873.48 490.98 828.46 571.77 986.65 573.85
00001361 00000031 761.18 174.17 365.64 540.09 814.96 395.25 997.66 405.20 876.19 499.90 827.13 585.93 982.63 593.97
00001362 00000032 772.08 183.93 359.55 534.05 827.72 404.65 1001.68 417.58 882.26 513.07 837.85 589.66 989.14 599.33
00001363 00000033 780.10 199.71 364.09 528.20 834.85 405.97 1006.50 422.39 884.66 527.40 845.69 594.99 993.43 607.39
00001364 00000034 778.71 210.59 372.41 523.13 834.67 403.17 1009.28 420.94 889.05 531.75 849.63 598.75 996.07 612.54
00001365 00000035 785.88 220.20 371.49 520.24 838.50 407.93 1010.93 421.43 893.63 537.11 862.18 611.33 996.35 621.15
00001366 00000036 791.87 226.33 365.14 539.59 843.54 410.94 1015.05 424.95 895.88 547.14 878.79 633.98 991.19 643.79
00001367 00000037 793.31 232.25 370.59 541.52 850.98 425.68 1017.55 435.19 903.52 555.88 889.37 648.92 990.11 655.33
00001368 00000038 794.46 232.49 369.89 542.43 856.82 428.87 1013.47 439.24 907.40 561.71 888.28 652.16 989.69 661.20
00001369 00000039 799.25 241.07 368.08 532.44 853.44 427.81 1019.11 442.50 899.96 561.36 889.90 653.04 988.35 663.07
00001370 00000040 798.01 240.15 368.58 539.26 861.99 432.44 1016.06 444.71 907.02 567.22 892.07 658.87 988.51 669.55
00001371 00000041 804.93 239.58 366.28 542.48 863.25 432.50 1027.82 447.82 910.12 568.79 890.03 655.32 1004.03 668.73
00001372 00000042 809.14 241.37 364.35 542.54 867.03 437.93 1029.23 450.69 913.29 569.45 893.20 652.57 1011.39 663.82
00001373 00000043 815.12 247.97 362.22 541.35 871.54 446.28 1031.50 455.34 913.08 575.21 897.62 656.89 1022.57 664.85
00001374 00000044 815.48 241.47 365.80 557.04 869.92 449.94 1029.48 458.90 909.61 580.71 897.90 660.11 1031.00 667.54
00001375 00000045 815.28 244.44 368.82 547.34 872.17 452.87 1033.57 462.16 915.81 582.32 899.72 656.50 1035.56 663.92
00001376 00000046 816.95 243.44 370.78 542.69 874.48 452.58 1035.99 463.63 918.66 582.77 900.24 653.91 1036.35 662.37
00001377 00000047 817.86 247.36 369.91 536.83 878.99 452.73 1038.74 462.69 925.07 582.75 904.94 657.15 1031.20 665.20
00001378 00000048 819.12 249.07 369.19 536.04 880.99 451.39 1038.68 460.85 926.17 583.27 906.32 661.20 1024.84 669.34
00001379 00000049 821.22 246.33 367.39 540.90 881.82 450.34 1039.07 460.35 925.65 581.66 902.97 663.30 1020.57 672.31
00001380 00000050 821.95 241.79 367.20 547.11 882.45 450.87 1038.20 461.66 924.62 581.46 901.55 662.97 1020.35 672.60
00001381 00000051 821.92 243.51 367.07 544.18 882.76 451.05 1039.27 461.49 925.15 579.71 900.04 661.35 1020.47 671.03
00001382 00000052 820.04 244.49 369.41 541.62 881.02 448.94 1041.37 459.45 924.95 577.34 898.42 660.41 1020.48 670.05
00001383 00000053 817.01 240.06 368.16 543.76 877.54 445.81 1040.84 456.18 924.20 573.00 895.86 655.53 1020.11 665.19
00001384 00000054 817.72 242.51 366.25 541.18 877.37 447.33 1038.23 456.91 923.13 570.98 896.28 654.19 1021.66 663.06
00001385 00000055 820.04 238.65 362.46 546.45 877.84 450.50 1038.35 458.47 923.20 569.45 894.11 650.86 1025.78 658.10
00001386 00000056 823.50 238.29 358.64 548.58 880.03 456.29 1037.75 464.20 922.96 568.92 895.21 648.40 1031.86 655.36
00001387 00000057 829.47 241.30 348.55 543.37 882.02 457.60 1038.70 469.23 922.45 565.79 891.39 641.90 1033.82 652.02
00001388 00000058 828.85 238.82 347.41 544.15 881.62 457.10 1040.51 468.40 924.19 562.93 889.54 639.99 1035.15 649.99
00001389 00000059 827.45 242.10 343.72 539.12 881.61 455.19 1040.79 466.82 925.03 561.57 887.50 637.93 1033.87 648.63
00001390 00000060 821.38 239.00 346.94 537.22 877.94 451.78 1039.33 463.00 925.60 558.92 885.32 633.57 1032.15 643.87
00001391 00000061 811.49 238.29 350.86 532.90 871.44 444.46 1037.25 455.45 925.05 552.92 881.98 625.45 1028.16 635.70
00001392 00000062 808.42 234.34 354.25 532.22 868.79 440.42 1036.01 450.62 925.28 549.97 881.10 620.17 1027.76 629.43
00001393 00000063 798.29 221.37 364.98 538.83 862.23 437.43 1036.55 448.01 922.01 553.53 880.24 618.33 1031.40 627.32
00001394 00000064 794.62 217.11 366.11 537.45 859.01 436.58 1036.66 445.55 921.56 552.23 877.48 616.95 1031.21 624.30
00001395 00000065 790.96 214.54 366.89 529.35 857.17 436.82 1036.29 442.65 923.97 549.09 876.34 615.86 1027.41 620.63
00001396 00000066 790.00 215.24 368.39 528.70 857.98 436.53 1036.40 442.82 924.32 549.18 876.24 614.59 1027.45 619.84
00001397 00000067 790.43 218.30 367.03 525.13 858.97 436.71 1035.73 442.85 925.15 549.08 877.11 613.44 1026.45 618.71
00001398 00000068 789.90 218.75 367.22 525.20 859.47 437.68 1034.86 443.73 925.43 549.73 878.20 613.92 1026.09 619.17
00001399 00000069 789.93 217.53 365.73 525.91 859.84 435.68 1033.87 442.42 925.31 550.74 878.83 614.23 1024.47 620.26
00001400 00000070 789.40 216.51 366.22 527.65 859.95 434.94 1033.60 441.62 926.06 550.83 879.27 614.15 1023.85 620.25
00001401 00000071 786.48 214.14 368.06 528.48 858.06 433.52 1032.32 439.31 925.24 548.60 878.39 613.94 1022.20 619.42
00001402 00000072 785.36 214.49 369.03 528.12 856.45 434.19 1031.32 438.56 923.64 546.77 877.54 614.12 1022.49 618.31
00001403 00000073 784.14 210.01 369.53 530.35 856.49 434.23 1031.83 437.74 925.02 543.79 878.15 613.67 1021.29 617.13
00001404 00000074 783.60 209.82 370.25 530.28 855.46 432.14 1029.70 435.59 922.60 542.53 878.68 614.34 1019.06 617.82
00001405 00000075 786.22 210.45 368.23 532.26 847.61 430.81 1026.16 433.58 919.69 542.49 873.28 617.62 1015.29 618.88
00001406 00000076 787.35 208.07 366.58 533.42 846.91 429.08 1023.67 432.46 915.91 539.99 871.89 617.48 1012.59 619.20
00001407 00000077 787.47 206.52 366.61 530.29 849.16 424.58 1025.14 430.24 915.24 531.56 874.34 612.02 1010.36 615.55
00001408 00000078 787.92 202.23 367.25 533.02 850.03 422.57 1025.77 428.72 915.07 530.64 873.90 612.01 1009.93 616.07
00001409 00000079 790.05 205.25 365.82 531.45 850.31 421.49 1026.09 429.51 914.25 531.47 872.55 611.87 1009.40 617.57
00001410 00000080 787.88 205.71 368.57 532.78 850.12 422.59 1024.71 431.61 912.18 533.30 873.52 612.64 1009.01 618.96
00001411 00000081 785.25 200.25 367.91 534.68 851.55 431.12 1025.47 437.60 914.69 540.54 876.09 615.51 1013.70 620.63
00001412 00000082 793.83 210.57 360.56 533.61 846.95 436.68 1020.98 440.19 909.52 546.69 874.15 621.23 1011.49 622.54
00001413 00000083 788.01 206.64 365.35 535.55 847.65 433.07 1018.64 437.43 906.84 545.41 873.50 614.42 1015.46 617.79
00001414 00000084 785.76 207.85 365.82 532.61 843.84 424.75 1014.38 427.53 898.81 540.15 867.82 609.71 1012.87 611.71
00001415 00000085 778.85 203.72 371.18 541.31 835.46 403.94 1002.70 416.34 882.52 531.17 858.30 603.24 1000.36 611.31
00001416 00000086 776.99 205.92 370.29 541.43 833.12 400.25 998.27 413.33 876.55 526.31 855.20 603.11 994.13 611.76
00001417 00000087 775.92 203.56 368.69 541.40 831.76 398.35 997.36 412.61 874.41 525.24 854.92 604.54 988.31 614.64
00001418 00000088 773.45 200.32 370.61 546.44 830.50 400.67 998.62 412.56 876.74 525.64 856.51 610.27 984.66 618.74
00001419 00000089 772.40 206.99 372.71 543.83 830.68 403.04 998.09 413.23 878.65 527.29 861.00 612.83 987.37 619.72
00001420 00000090 770.52 207.09 372.59 543.01 828.30 402.46 995.33 412.83 876.26 527.69 859.80 613.13 984.51 620.24
00001421 00000091 768.93 203.62 373.42 544.01 827.11 403.40 992.13 413.08 873.31 526.57 858.43 613.87 979.83 620.80
00001422 00000092 767.23 204.71 372.97 540.43 825.06 402.30 991.03 413.61 870.72 524.78 854.87 612.50 975.73 621.01
00001423 00000093 765.19 204.78 369.54 534.30 820.51 396.00 987.09 411.73 865.35 525.39 848.99 606.36 970.78 618.57
00001424 00000094 764.14 202.78 369.54 531.86 819.03 395.67 985.89 411.20 866.11 525.94 849.50 605.04 971.03 617.28
00001425 00000095 763.85 205.34 367.63 529.81 817.60 395.12 983.58 410.35 865.38 526.82 849.41 601.24 975.29 612.74
00001426 00000096 763.24 206.92 367.12 527.52 816.36 393.97 982.40 408.67 863.70 526.99 845.90 596.69 980.43 607.33
00001427 00000097 754.67 207.49 368.25 523.95 809.30 391.06 975.20 404.94 859.95 522.44 839.32 587.06 979.55 596.67
00001428 00000098 755.11 206.96 365.86 520.52 806.40 390.10 973.78 402.47 857.06 518.02 835.20 584.46 979.09 593.38
00001429 00000099 753.49 203.60 366.25 521.33 802.09 387.89 972.23 398.79 854.52 515.25 831.64 584.83 976.37 593.05
00001430 00000100 753.56 204.89 362.60 514.97 802.01 391.13 972.06 402.04 854.94 515.49 830.25 582.63 974.83 590.90
00001431 00000101 752.94 210.22 368.12 505.04 809.14 409.35 969.24 415.28 858.76 527.19 830.21 580.71 978.01 586.78
00001432 DELETE   750.46 218.45 366.44 499.44 806.82 418.25 969.31 426.47 857.61 536.06 830.37 583.59 980.20 591.22
00001433 00000103 749.68 223.89 368.35 509.44 805.08 429.20 966.50 426.82 862.16 539.61 834.90 604.91 980.64 601.77
00001434 DELETE   751.45 232.44 368.42 507.50 805.65 422.86 971.74 432.14 861.13 554.08 837.81 603.19 982.04 610.85
00001435 00000105 748.05 224.30 370.74 508.78 804.64 421.75 966.48 422.02 862.02 536.69 835.29 603.06 978.26 602.34
00001436 00000106 751.16 216.68 369.91 503.81 807.73 414.14 970.02 422.59 859.12 536.53 833.53 590.04 975.12 597.85
00001437 00000107 750.60 213.13 372.80 506.20 808.68 411.24 969.28 420.12 858.54 534.04 834.69 592.17 971.14 600.15
00001438 00000108 754.61 215.65 367.13 508.01 810.37 409.14 970.51 421.27 856.34 535.69 835.34 597.85 960.75 605.65
00001439 00000109 754.99 224.73 369.77 503.17 810.26 414.89 972.92 427.73 858.93 542.84 839.71 605.50 961.50 613.90
00001440 00000110 757.44 223.70 368.96 506.95 811.49 416.75 973.95 428.19 860.56 545.01 843.60 609.72 963.99 616.79
00001441 00000111 758.43 222.94 370.50 507.06 813.53 415.60 974.28 427.05 861.76 543.10 847.55 607.85 965.57 614.82
00001442 00000112 763.21 216.78 367.44 513.65 817.36 414.11 976.14 428.63 862.93 538.73 852.74 608.41 969.52 618.66
00001443 00000113 771.89 219.05 368.49 518.17 828.38 412.18 984.63 427.61 868.05 531.11 861.83 611.50 968.39 622.87
00001444 00000114 774.97 216.40 368.66 529.31 835.61 413.99 991.37 430.12 873.50 528.84 865.44 613.29 972.61 625.04
00001445 00000115 774.53 211.80 372.87 540.76 837.38 417.17 994.79 429.76 876.47 526.00 865.38 618.37 973.97 627.44
00001446 00000116 779.73 206.10 371.64 549.92 841.04 412.39 1000.65 423.09 878.72 522.40 868.46 621.34 974.93 629.10
00001447 00000117 793.34 203.32 363.77 527.80 851.11 399.87 1008.98 412.09 888.52 516.00 873.49 610.06 975.49 619.70
00001448 00000118 792.33 201.96 366.88 523.73 853.59 402.72 1012.57 414.35 895.78 522.11 868.47 601.71 987.89 612.27
00001449 00000119 797.60 203.70 365.37 519.59 859.18 402.31 1018.28 417.73 897.70 524.53 871.07 597.85 994.97 611.62
00001450 00000120 806.98 204.53 360.52 520.04 863.86 394.70 1022.55 414.49 900.42 519.14 880.96 596.08 989.61 611.43
00001451 00000121 808.78 200.32 367.41 517.52 871.40 404.78 1031.47 416.44 913.69 510.37 883.62 593.01 1009.09 604.79
00001452 00000122 815.61 200.86 365.02 516.28 873.46 397.15 1032.11 406.67 912.97 507.27 884.70 587.88 1013.55 597.82
00001453 00000123 817.10 202.36 365.69 515.90 874.32 391.87 1033.34 404.69 910.88 506.77 883.68 582.78 1018.35 594.83
00001454 00000124 819.38 204.50 363.48 513.70 876.40 392.66 1033.73 406.94 912.63 511.33 886.77 582.05 1020.68 595.21
00001455 00000125 817.19 199.96 365.97 517.48 874.77 389.17 1033.10 403.00 911.70 504.76 882.96 583.48 1012.44 596.82
00001456 00000126 819.87 196.86 362.05 516.67 875.16 386.77 1029.53 399.15 910.32 499.84 883.75 584.62 1005.61 597.03
00001457 00000127 819.02 188.25 362.77 522.74 875.79 382.62 1031.30 394.96 911.13 496.23 882.40 583.78 1001.57 595.95
00001458 00000128 820.92 187.33 360.41 522.84 876.92 378.95 1032.63 393.22 911.51 496.27 881.67 583.33 998.73 597.22
00001459 00000129 821.96 184.70 363.04 531.57 881.68 379.42 1037.55 392.60 917.52 495.65 886.91 580.86 1010.53 593.88
00001460 00000130 821.87 184.73 363.18 527.58 880.59 378.14 1040.01 390.84 917.95 493.24 883.74 575.50 1015.10 587.99
00001461 00000131 822.36 183.23 361.81 522.29 879.61 377.73 1040.00 392.88 916.06 492.82 881.98 569.00 1018.07 583.15
00001462 00000132 819.22 182.34 363.13 520.88 878.39 376.62 1039.86 392.85 916.36 491.43 881.29 567.15 1017.94 581.87
00001463 00000133 820.86 184.68 357.64 521.13 878.64 376.45 1038.16 394.69 913.29 491.12 878.00 566.28 1013.61 583.29
00001464 00000134 819.72 181.36 357.56 524.80 877.10 375.08 1036.83 394.96 910.32 490.49 874.84 567.10 1009.74 585.43
00001465 00000135 817.92 180.66 358.47 525.81 876.31 374.15 1035.16 395.18 908.48 490.49 874.19 567.62 1006.01 587.09
00001466 00000136 818.10 185.05 354.89 518.58 876.52 373.05 1033.81 395.15 907.90 487.48 872.25 565.03 999.65 585.81
00001467 00000137 817.85 174.34 349.73 529.27 874.99 369.66 1028.85 390.89 903.48 478.66 868.20 561.51 993.54 581.88
00001468 00000138 816.38 178.57 352.51 526.81 874.30 364.50 1031.81 384.33 901.89 471.67 865.99 559.55 996.43 578.98
00001469 00000139 815.87 177.06 352.67 531.84 873.87 362.17 1031.44 380.76 902.06 469.53 869.15 561.01 998.47 579.05
00001470 00000140 816.40 181.29 352.73 533.12 876.66 359.86 1032.26 383.57 902.66 480.17 871.44 560.01 1001.90 582.14
00001471 00000141 817.84 190.27 351.99 519.49 876.24 370.65 1032.56 395.09 903.42 488.91 870.61 557.25 1011.64 579.55
00001472 00000142 816.72 188.40 353.37 515.90 877.04 365.60 1034.13 390.80 906.43 481.42 870.07 550.89 1011.71 573.87
00001473 00000143 811.01 179.11 358.95 516.76 874.52 357.03 1030.81 381.63 907.01 458.83 864.65 535.48 1010.84 558.01
00001474 00000144 809.99 172.13 364.45 517.32 873.94 346.98 1031.88 371.96 906.39 449.31 863.60 525.94 1011.93 548.74
00001475 00000145 811.99 168.99 364.26 509.89 878.55 345.37 1039.00 374.04 915.01 451.99 865.25 517.29 1017.48 543.22
00001476 00000146 815.54 175.90 360.33 505.65 880.63 352.98 1039.68 379.47 917.51 457.95 869.09 522.56 1020.91 546.97
00001477 00000147 817.17 176.38 360.38 503.21 882.44 352.87 1041.72 378.51 919.74 457.31 871.07 522.38 1022.67 546.06
00001478 00000148 817.59 170.51 363.68 505.55 882.55 347.64 1044.56 372.99 920.24 453.69 870.94 518.98 1026.93 542.23
00001479 00000149 819.20 168.68 362.53 506.24 884.08 347.49 1045.97 371.88 923.97 455.61 873.38 517.49 1030.98 540.03
00001480 00000150 817.89 177.96 361.27 503.10 885.02 352.92 1043.94 377.74 924.12 460.47 872.70 519.69 1031.77 542.72
00001481 00000151 817.68 179.44 359.33 505.12 883.53 360.92 1042.81 384.67 923.38 468.85 873.29 524.69 1035.58 546.06
00001482 00000152 814.72 180.72 360.67 504.51 881.88 362.54 1041.82 385.87 921.74 467.71 871.51 525.75 1034.82 546.55
00001483 00000153 812.09 172.95 364.57 506.69 880.53 350.70 1043.08 377.35 918.32 457.04 868.47 517.58 1033.45 541.26
00001484 00000154 814.27 173.35 363.72 504.53 881.74 349.81 1042.86 376.80 919.07 458.94 869.89 516.02 1035.14 540.06
00001485 00000155 813.89 174.12 364.14 506.98 883.18 351.40 1043.89 379.71 921.01 463.16 870.73 516.63 1035.85 541.74
00001486 00000156 814.20 181.01 362.85 502.99 884.36 356.56 1045.41 382.44 925.66 467.01 872.72 521.03 1037.67 544.23
00001487 00000157 816.93 181.98 360.92 507.10 885.25 358.62 1044.34 384.08 923.07 467.90 872.22 523.13 1037.72 546.00
00001488 00000158 819.41 183.17 358.21 511.65 886.56 355.19 1042.05 379.16 922.08 463.77 873.44 523.99 1035.73 546.00
00001489 00000159 823.47 184.76 352.52 512.37 887.79 353.15 1038.81 375.70 919.35 460.17 876.62 526.30 1031.96 547.39
00001490 00000160 822.27 182.74 354.99 513.41 887.31 352.88 1039.22 374.19 920.24 459.01 877.28 527.11 1029.78 547.23
00001491 00000161 823.59 181.95 356.00 508.82 887.40 361.08 1040.69 381.35 922.89 467.37 880.00 532.08 1031.76 550.72
00001492 00000162 824.63 189.91 354.16 505.82 889.96 370.07 1045.70 391.95 927.25 481.35 879.65 537.84 1036.00 557.87
00001493 00000163 821.02 197.39 357.84 505.05 881.12 366.56 1047.52 405.42 926.11 505.87 884.60 542.27 1038.68 573.79
00001494 DELETE   820.23 204.35 353.99 501.65 879.29 368.35 1043.37 407.99 921.47 506.00 882.20 544.54 1038.72 576.46
00001495 00000165 819.10 183.71 353.73 508.71 884.39 361.48 1039.50 387.13 918.69 471.24 874.36 527.39 1034.17 550.02
00001496 00000166 822.83 182.93 351.12 511.09 885.23 358.31 1036.27 382.38 915.87 466.50 876.02 526.65 1033.07 548.30
00001497 00000167 824.35 186.00 348.62 514.18 886.62 358.55 1034.37 381.74 915.31 467.61 878.10 529.00 1034.70 549.76
00001498 00000168 826.68 186.06 345.04 517.72 887.71 359.32 1032.80 382.60 913.03 468.52 879.53 531.16 1035.75 551.83
