Video ID: 	vXDocT357hs
H: 	1080
W: 	1920
FPS: 	25.0

FRAME INDEX X0 Y0 W H [Landmarks (5 Points)]

00025226 00000000 940.19 137.65 347.53 515.13 975.22 334.74 1076.63 328.35 949.27 411.06 965.33 531.89 1038.89 526.48
00025227 00000001 939.38 136.02 347.14 518.28 975.89 331.70 1077.19 327.86 949.03 408.89 964.18 530.43 1035.14 527.17
00025228 00000002 937.65 135.20 349.67 522.74 975.80 330.63 1077.93 328.41 948.59 408.17 963.18 530.43 1034.99 528.40
00025229 00000003 935.19 136.20 351.64 520.85 974.23 329.91 1077.90 327.90 948.62 408.02 960.69 529.76 1033.54 528.14
00025230 DELETE   932.97 136.14 353.68 522.32 973.74 330.59 1077.71 328.16 946.88 407.16 959.73 530.03 1032.68 527.98
00025231 DELETE   929.99 137.54 355.41 522.78 969.95 333.09 1074.83 329.31 944.62 408.97 957.83 532.61 1030.30 529.29
00025232 00000006 923.84 142.62 354.06 525.37 965.79 338.15 1071.32 333.00 942.81 412.14 954.27 538.53 1027.72 533.80
00025233 00000007 913.97 131.28 363.95 545.94 948.96 339.92 1072.56 331.28 929.52 426.76 945.07 554.00 1035.51 549.23
00025234 DELETE   916.50 148.35 353.73 522.66 959.04 337.25 1059.10 337.02 933.68 421.61 947.71 541.61 1015.55 540.75
00025235 00000009 914.73 144.25 354.35 517.63 961.87 335.41 1057.36 335.43 931.52 417.08 946.17 534.92 1011.86 534.36
00025236 DELETE   915.54 137.20 356.21 517.80 963.57 334.35 1065.24 330.58 936.11 405.85 944.55 530.27 1015.16 527.15
00025237 00000011 927.37 128.96 353.42 520.24 973.22 326.22 1071.50 322.58 943.84 398.31 956.59 520.64 1027.26 517.55
00025238 00000012 938.87 122.95 351.02 517.87 980.89 319.93 1077.37 312.72 947.79 392.80 964.80 515.62 1036.66 510.12
00025239 00000013 945.22 121.45 349.68 519.83 983.02 319.31 1081.71 309.35 951.96 393.76 969.69 518.86 1043.16 511.26
00025240 00000014 950.76 119.49 349.27 523.10 985.04 321.59 1083.99 309.23 955.93 396.82 974.25 523.51 1048.94 514.23
00025241 00000015 953.25 120.22 351.45 525.21 983.94 326.56 1086.70 312.39 958.88 400.45 976.20 527.97 1054.21 517.23
00025242 DELETE   956.61 120.23 352.53 526.17 985.00 328.21 1089.30 313.54 961.16 402.50 978.13 530.93 1055.69 519.95
00025243 00000017 960.03 117.40 356.83 531.86 988.19 326.31 1094.89 311.01 964.40 400.92 981.21 531.12 1060.94 519.43
00025244 DELETE   963.29 118.92 357.43 532.59 990.94 326.82 1102.53 307.78 973.56 395.99 985.40 532.16 1067.15 517.45
00025245 DELETE   963.97 112.25 361.45 536.63 993.65 323.45 1108.37 303.84 979.17 390.42 988.54 527.47 1072.78 512.52
00025246 00000020 953.35 120.28 418.26 589.66 1017.44 335.69 1201.86 323.30 1055.83 410.21 1027.93 555.89 1157.15 546.55
00025247 00000021 951.73 120.45 419.17 586.96 1016.85 334.93 1200.64 324.06 1054.78 408.83 1025.69 554.09 1152.76 546.04
00025248 00000022 947.91 122.88 420.38 582.08 1015.67 335.49 1197.72 325.26 1053.92 409.47 1024.36 552.18 1148.04 544.42
00025249 00000023 947.86 132.03 412.60 567.95 1009.18 330.61 1189.67 320.27 1049.68 411.81 1019.52 550.23 1153.69 543.17
00025250 00000024 947.04 131.75 412.94 565.47 1009.33 329.85 1188.56 319.85 1049.97 410.60 1019.45 547.37 1151.91 540.61
00025251 00000025 946.43 128.77 411.95 564.36 1007.06 332.49 1187.15 320.80 1047.16 412.34 1017.12 547.64 1151.71 539.57
00025252 00000026 944.59 127.04 415.42 566.17 1004.12 333.74 1187.18 321.57 1045.06 413.60 1014.88 549.04 1154.61 540.10
00025253 00000027 944.61 125.22 416.70 568.93 1003.00 335.43 1187.67 321.17 1044.05 413.51 1014.69 550.57 1158.29 539.67
00025254 00000028 946.03 126.30 416.82 569.04 1005.20 336.02 1190.43 320.48 1046.82 412.30 1017.05 551.30 1161.52 539.46
00025255 00000029 950.55 123.62 418.31 577.69 1016.64 336.76 1200.28 326.04 1057.96 407.37 1025.92 550.61 1151.47 542.55
00025256 00000030 959.78 119.96 416.96 583.52 1022.54 336.60 1210.04 324.12 1067.32 410.80 1032.06 556.76 1160.56 547.75
00025257 00000031 968.83 122.51 408.77 583.47 1034.92 336.24 1222.66 326.95 1084.61 409.73 1044.18 555.26 1175.84 548.53
00025258 DELETE   966.16 126.25 423.31 578.88 1051.96 341.66 1241.71 331.84 1120.97 418.86 1066.96 556.72 1212.73 550.06
00025259 DELETE   978.84 141.29 418.10 568.18 1073.24 347.31 1259.60 335.51 1151.85 414.01 1096.45 557.44 1234.91 547.98
00025260 00000034 989.22 146.61 415.68 570.59 1088.76 351.80 1272.90 338.26 1175.17 418.47 1118.33 560.83 1260.57 549.40
00025261 DELETE   992.60 145.69 420.04 579.51 1103.84 355.38 1288.19 340.55 1202.21 423.92 1139.72 569.13 1279.27 555.48
00025262 00000036 998.11 142.88 419.85 584.56 1112.45 356.34 1299.09 337.44 1217.86 426.63 1152.20 575.05 1293.98 557.94
00025263 00000037 999.33 141.55 420.80 587.14 1113.76 353.61 1303.71 333.91 1222.24 429.58 1154.88 578.04 1296.86 560.14
00025264 00000038 999.60 141.52 420.59 588.35 1112.78 351.94 1303.54 333.41 1221.01 430.94 1152.59 578.03 1294.64 561.20
00025265 00000039 998.45 142.57 421.68 587.56 1110.69 350.94 1301.89 334.91 1215.93 431.10 1146.92 575.92 1289.26 561.32
00025266 00000040 997.54 140.92 422.11 588.51 1109.33 348.82 1301.69 334.82 1213.11 429.60 1142.97 574.04 1285.25 561.25
00025267 00000041 996.62 140.35 422.60 588.73 1108.59 346.77 1301.06 333.45 1211.68 426.92 1141.24 572.50 1283.28 560.34
00025268 00000042 995.76 140.41 423.66 588.55 1108.30 344.80 1301.00 332.53 1211.62 426.19 1140.47 571.30 1282.42 559.92
00025269 00000043 994.97 139.67 423.57 589.35 1108.55 344.63 1300.66 332.22 1212.28 424.65 1140.70 570.77 1283.15 559.14
00025270 00000044 993.39 141.10 425.09 588.07 1107.02 343.06 1299.87 331.38 1211.41 424.35 1140.38 570.44 1282.73 559.25
00025271 00000045 992.09 141.42 425.87 588.36 1105.86 342.42 1299.57 331.40 1210.68 425.90 1140.35 571.76 1281.32 561.05
00025272 00000046 990.61 141.67 426.74 589.34 1105.01 341.94 1298.49 331.48 1210.02 426.40 1140.17 571.98 1280.91 561.59
00025273 00000047 990.18 142.13 426.54 588.77 1103.11 341.59 1297.54 330.67 1208.18 427.72 1138.73 573.68 1280.09 562.85
00025274 00000048 989.33 143.31 427.01 588.91 1101.95 341.95 1297.00 332.10 1207.45 431.35 1137.91 575.53 1278.54 565.61
00025275 00000049 988.21 144.24 427.68 588.73 1101.44 342.56 1296.49 333.47 1207.41 432.74 1137.61 576.14 1277.47 566.87
00025276 00000050 988.11 146.82 427.20 586.84 1100.29 343.16 1295.79 335.17 1205.65 434.02 1135.99 577.14 1275.17 568.84
00025277 00000051 987.48 146.58 427.04 589.22 1098.47 344.38 1294.94 337.11 1203.93 436.46 1133.81 579.00 1274.33 571.13
00025278 00000052 987.66 146.60 425.97 591.71 1097.30 346.19 1293.58 338.97 1202.89 438.53 1132.30 580.78 1273.86 572.97
00025279 00000053 987.02 143.75 424.41 595.48 1096.67 348.41 1289.99 340.99 1201.75 438.51 1131.42 581.75 1272.43 573.79
00025280 00000054 984.42 144.81 426.32 599.10 1092.55 348.15 1290.41 341.65 1197.82 441.39 1127.58 583.90 1272.74 576.70
00025281 00000055 982.82 144.58 426.10 602.37 1089.28 347.49 1289.67 341.24 1194.63 442.92 1124.41 585.49 1272.04 578.42
00025282 00000056 982.26 143.06 424.72 607.51 1087.52 347.65 1289.16 341.82 1193.88 444.32 1122.28 586.20 1273.05 579.27
00025283 00000057 982.03 143.45 420.52 607.74 1088.60 352.71 1287.32 347.56 1193.79 443.13 1119.93 585.08 1273.97 578.86
00025284 00000058 980.84 142.76 420.23 610.16 1086.99 352.41 1287.23 348.33 1192.52 444.11 1115.74 585.55 1274.30 580.20
00025285 00000059 978.91 143.49 421.29 611.31 1085.85 349.73 1285.79 346.91 1192.27 446.33 1113.56 585.89 1272.75 581.78
00025286 00000060 976.26 144.41 422.58 612.85 1082.95 347.50 1285.93 344.88 1189.94 446.71 1112.26 586.98 1271.47 583.14
00025287 00000061 973.85 148.40 420.05 607.24 1079.54 345.34 1282.61 344.12 1184.29 445.04 1107.39 584.17 1267.02 581.64
00025288 00000062 967.19 143.89 418.07 606.56 1069.72 345.80 1269.87 344.21 1169.09 444.55 1094.63 580.67 1250.59 578.72
00025289 00000063 961.38 140.87 418.60 609.77 1058.92 345.75 1259.62 343.80 1151.70 440.46 1079.66 577.53 1234.46 575.87
00025290 00000064 955.46 142.99 420.67 604.19 1050.70 344.95 1249.54 343.16 1140.69 441.02 1070.19 576.35 1222.13 575.54
00025291 00000065 955.82 139.14 423.36 603.69 1047.52 349.40 1253.62 340.65 1135.81 444.63 1070.29 583.35 1229.46 574.50
00025292 00000066 956.47 140.58 423.44 594.48 1051.84 349.67 1256.61 341.90 1143.53 444.46 1074.22 581.00 1232.24 572.85
00025293 00000067 960.90 145.73 416.23 589.64 1063.24 345.72 1262.42 346.37 1161.40 443.68 1083.16 575.36 1233.96 575.73
00025294 00000068 967.39 146.65 412.59 589.64 1071.52 346.05 1270.40 346.65 1174.49 448.22 1099.01 578.32 1246.64 578.45
00025295 00000069 968.17 146.86 418.09 594.17 1075.79 349.56 1274.72 344.91 1185.08 449.52 1111.36 583.08 1259.02 578.41
00025296 00000070 968.02 148.89 418.65 592.83 1077.55 350.68 1275.79 345.11 1188.28 450.05 1115.11 584.30 1262.25 578.87
00025297 00000071 966.12 147.95 417.34 597.36 1072.87 357.44 1270.51 350.75 1182.36 450.98 1108.60 586.87 1260.68 580.68
00025298 00000072 963.48 144.76 415.37 601.67 1065.51 360.08 1264.62 354.89 1170.67 456.74 1096.82 589.70 1250.05 585.01
00025299 00000073 960.18 143.83 417.55 606.19 1059.29 358.18 1258.10 355.95 1158.58 456.33 1085.61 589.00 1240.18 587.01
00025300 00000074 957.10 141.36 418.40 609.42 1051.25 358.16 1253.93 355.39 1147.48 459.13 1073.92 588.99 1235.71 586.60
00025301 00000075 954.90 136.42 423.43 609.79 1045.03 362.01 1254.91 353.04 1137.62 463.10 1070.32 590.93 1241.37 581.79
00025302 00000076 955.46 136.91 424.58 607.95 1048.18 358.82 1258.86 350.56 1143.06 460.48 1073.10 588.00 1244.73 579.28
00025303 00000077 961.65 141.89 416.07 599.14 1059.88 352.20 1263.87 352.02 1159.47 454.19 1081.45 580.46 1243.95 579.63
00025304 00000078 963.96 139.00 417.87 602.50 1065.08 354.55 1271.17 351.85 1169.47 454.81 1090.14 581.67 1256.23 578.33
00025305 00000079 964.36 138.65 419.59 602.17 1067.10 354.67 1273.68 350.58 1173.58 453.12 1093.75 581.40 1260.80 576.88
00025306 00000080 955.02 127.22 425.53 606.33 1060.56 352.19 1265.55 346.13 1161.11 455.49 1088.37 577.91 1254.45 574.09
00025307 00000081 955.47 130.34 426.05 607.57 1053.15 356.02 1265.78 347.21 1154.36 457.88 1079.48 584.32 1253.32 574.88
00025308 00000082 950.28 130.69 428.20 606.97 1045.10 356.77 1256.12 346.78 1142.70 457.22 1071.99 582.73 1244.45 572.18
00025309 00000083 947.74 129.53 426.00 606.64 1039.08 357.50 1247.44 346.53 1132.56 455.31 1064.54 580.99 1236.03 570.53
00025310 00000084 945.10 126.69 423.99 606.88 1036.23 356.09 1242.62 344.83 1129.53 454.12 1061.42 577.93 1231.62 567.48
00025311 00000085 943.84 124.87 423.90 607.19 1039.69 358.60 1243.12 346.43 1135.55 453.69 1066.27 577.15 1235.87 565.49
00025312 00000086 942.75 125.43 427.70 605.65 1045.41 358.50 1251.85 343.82 1150.20 454.67 1079.62 581.79 1247.00 567.12
00025313 00000087 946.11 124.13 426.68 608.27 1050.46 356.75 1258.04 338.99 1160.90 454.98 1088.54 585.44 1254.70 568.10
00025314 00000088 944.89 125.16 426.91 606.73 1049.54 358.51 1257.44 340.02 1160.84 456.99 1091.29 590.77 1252.83 572.76
00025315 00000089 941.59 124.69 423.83 602.59 1042.41 364.10 1249.58 345.73 1148.89 461.39 1083.66 594.08 1243.94 576.38
00025316 00000090 935.02 128.19 426.32 607.84 1036.40 365.03 1243.18 347.99 1142.49 464.79 1078.26 598.56 1236.84 581.91
00025317 00000091 932.68 130.38 427.88 611.28 1034.68 366.24 1238.92 349.86 1139.00 467.15 1075.82 599.47 1232.15 583.45
00025318 00000092 931.88 131.95 428.78 612.41 1035.70 365.05 1239.57 347.80 1142.20 466.90 1078.01 600.14 1231.98 583.27
00025319 00000093 934.20 132.08 425.93 613.12 1040.29 363.67 1244.83 343.99 1150.40 464.99 1086.42 600.88 1238.73 582.11
00025320 00000094 936.77 133.92 426.07 613.39 1047.39 365.70 1250.52 343.67 1161.75 464.48 1096.56 601.10 1247.99 580.19
00025321 00000095 939.68 138.35 424.61 611.67 1051.65 366.81 1253.77 343.18 1169.08 466.11 1103.31 604.40 1253.60 582.01
00025322 00000096 937.41 139.02 424.25 613.85 1049.28 367.43 1251.42 343.61 1166.35 466.66 1101.52 606.63 1250.96 584.12
00025323 00000097 931.63 138.06 423.72 617.30 1043.52 367.91 1242.88 346.60 1156.75 468.64 1095.67 610.05 1238.25 589.83
00025324 00000098 928.47 139.21 425.09 616.48 1041.10 366.74 1239.77 347.95 1152.27 469.17 1091.81 609.60 1231.15 591.65
00025325 00000099 929.15 138.38 424.17 619.30 1041.46 366.36 1240.30 347.75 1152.26 468.73 1091.40 610.13 1230.97 592.26
00025326 00000100 930.99 137.71 423.07 620.69 1042.82 366.99 1241.24 347.72 1154.53 469.68 1092.82 610.92 1232.97 592.52
00025327 00000101 934.71 136.63 420.12 625.28 1047.71 373.16 1243.97 352.55 1159.78 472.04 1096.44 612.48 1240.77 593.09
00025328 00000102 936.54 138.97 420.83 621.33 1049.91 372.68 1248.51 351.47 1164.75 471.97 1099.64 611.82 1246.76 591.69
00025329 00000103 939.64 141.52 421.21 618.32 1052.90 370.65 1253.04 349.21 1169.86 472.76 1103.25 611.07 1251.59 590.65
00025330 00000104 941.25 142.35 421.13 615.17 1055.51 370.59 1257.17 349.28 1174.31 472.08 1106.10 610.41 1255.89 590.10
00025331 00000105 942.22 143.21 421.41 610.85 1056.12 371.52 1258.69 350.03 1174.72 472.01 1107.32 609.73 1257.40 589.30
00025332 00000106 942.38 143.60 420.87 609.06 1055.47 371.90 1258.11 350.49 1173.12 473.79 1106.95 609.59 1256.43 589.25
00025333 00000107 941.20 144.14 420.94 609.34 1053.65 371.77 1256.42 351.15 1170.17 475.29 1104.28 609.69 1253.74 590.07
00025334 00000108 939.42 145.68 420.85 609.18 1051.94 371.70 1253.53 352.87 1166.88 476.11 1101.05 609.32 1249.24 591.17
00025335 00000109 939.44 143.83 421.20 611.63 1051.59 371.37 1252.29 354.03 1164.68 476.79 1098.96 609.58 1245.65 592.81
00025336 00000110 939.85 144.45 422.10 612.10 1051.56 371.22 1252.28 354.50 1163.19 477.13 1098.25 610.42 1243.96 594.26
00025337 00000111 940.59 145.77 422.43 609.84 1052.05 370.91 1252.77 354.64 1163.59 476.20 1098.60 609.78 1243.93 593.93
00025338 00000112 943.42 146.45 422.36 609.27 1053.44 371.66 1254.41 355.06 1164.33 476.70 1100.20 609.71 1246.06 593.55
00025339 00000113 947.70 145.51 421.98 609.82 1054.39 367.33 1257.24 357.35 1167.61 474.40 1101.39 605.97 1242.14 597.60
00025340 00000114 949.85 145.98 420.80 610.08 1056.98 369.00 1257.76 359.28 1169.38 476.50 1102.73 607.13 1241.94 599.10
00025341 00000115 949.57 146.65 421.83 610.30 1056.15 369.80 1256.77 360.38 1167.84 476.29 1100.70 607.43 1240.85 599.61
00025342 00000116 948.48 147.74 423.86 611.65 1054.51 370.93 1254.22 362.58 1163.77 477.43 1096.73 609.26 1234.59 602.59
00025343 00000117 950.68 148.55 422.74 611.48 1053.30 371.95 1251.30 363.79 1157.70 479.02 1091.36 610.23 1230.02 603.90
00025344 00000118 949.37 148.13 421.49 611.68 1046.66 373.24 1248.29 362.06 1144.32 482.46 1082.81 612.96 1232.03 601.79
00025345 00000119 950.71 146.61 425.04 616.61 1044.96 372.05 1244.72 365.92 1141.25 485.29 1074.09 611.55 1219.74 607.15
00025346 00000120 951.99 147.44 424.87 616.13 1043.72 372.95 1242.42 366.34 1136.52 485.66 1072.25 612.75 1217.56 608.23
00025347 00000121 954.36 147.65 425.34 616.67 1046.09 371.34 1245.48 365.75 1137.87 484.51 1073.32 612.18 1219.48 608.31
00025348 00000122 958.35 148.70 425.06 615.14 1051.26 370.12 1249.69 364.39 1144.07 481.24 1078.76 611.38 1224.18 607.18
00025349 DELETE   958.69 149.08 424.06 616.84 1056.60 373.22 1251.07 366.37 1151.43 477.62 1086.32 610.97 1227.28 605.86
00025350 00000124 960.97 150.70 421.91 615.62 1059.72 372.64 1254.70 364.52 1156.80 475.08 1093.90 613.13 1231.47 606.98
00025351 00000125 963.70 150.55 422.17 616.79 1063.51 369.58 1261.91 361.81 1163.58 475.68 1099.73 614.57 1238.23 608.55
00025352 00000126 965.93 148.77 422.98 620.90 1066.68 370.13 1268.05 358.45 1174.34 474.95 1107.83 616.68 1249.25 606.88
00025353 00000127 967.10 148.96 423.63 622.04 1070.65 369.66 1271.47 357.48 1181.04 475.11 1114.73 615.93 1256.55 605.38
00025354 00000128 967.39 148.14 426.00 622.35 1071.29 368.84 1274.40 354.97 1184.89 472.72 1118.22 613.82 1264.97 601.42
00025355 00000129 968.17 149.75 426.86 620.78 1072.12 368.30 1275.68 354.20 1185.93 470.83 1118.79 612.41 1267.91 599.72
00025356 00000130 968.13 150.88 426.52 617.86 1071.87 366.97 1274.97 352.77 1185.43 469.38 1118.86 611.03 1267.44 598.30
00025357 00000131 967.42 150.95 425.54 615.88 1070.75 367.19 1273.89 353.81 1183.34 469.13 1116.02 609.23 1265.78 597.35
00025358 00000132 967.61 151.84 424.40 612.50 1069.07 367.50 1272.67 354.93 1179.18 468.96 1111.71 607.83 1262.09 596.71
00025359 00000133 967.79 150.02 422.00 610.17 1066.05 369.93 1271.24 358.43 1174.75 472.86 1107.07 607.40 1258.56 597.29
00025360 00000134 966.38 153.28 425.13 605.04 1063.98 373.15 1269.37 362.49 1170.69 477.17 1102.87 607.77 1253.49 598.56
00025361 00000135 966.54 156.33 425.43 603.04 1064.34 374.01 1267.33 365.60 1165.98 481.28 1099.93 611.07 1246.02 604.16
00025362 00000136 968.76 156.03 424.13 604.55 1065.45 375.99 1268.48 368.74 1165.15 483.37 1098.13 612.98 1244.46 607.18
00025363 00000137 973.47 156.52 425.98 607.04 1068.23 378.91 1273.93 368.71 1168.02 485.17 1102.35 614.08 1256.49 605.28
00025364 00000138 977.58 155.60 427.35 610.64 1071.43 381.25 1278.40 367.85 1172.91 485.52 1108.01 618.42 1265.75 606.26
00025365 00000139 977.91 155.63 432.64 614.67 1076.88 382.05 1284.80 367.75 1183.00 486.40 1115.93 618.98 1276.16 605.63
00025366 00000140 978.97 156.99 434.29 615.88 1083.46 383.04 1291.44 371.42 1192.27 489.24 1121.32 618.60 1284.34 606.93
00025367 00000141 981.72 156.33 433.24 616.39 1090.64 383.99 1299.90 373.69 1204.23 488.32 1128.48 618.88 1294.65 608.12
00025368 00000142 985.73 155.03 431.50 617.43 1096.91 386.50 1307.22 378.00 1211.24 487.67 1131.58 618.22 1303.17 608.90
00025369 00000143 988.29 153.27 430.38 617.35 1101.98 388.58 1313.02 379.49 1219.46 488.14 1137.74 618.31 1310.78 608.33
00025370 00000144 991.36 153.15 428.59 616.10 1106.82 389.04 1316.83 378.69 1224.76 488.95 1143.41 618.59 1315.14 607.68
00025371 00000145 993.55 152.41 428.09 617.06 1108.63 389.96 1318.33 379.61 1225.36 489.80 1145.07 618.75 1316.81 607.90
00025372 00000146 993.73 153.67 427.57 616.87 1109.21 390.38 1318.24 379.86 1225.71 489.75 1144.39 618.20 1316.71 607.31
00025373 00000147 992.51 152.74 427.46 617.47 1107.79 389.74 1317.93 379.71 1225.26 488.83 1142.99 617.81 1316.83 607.21
00025374 00000148 989.17 150.65 428.90 620.59 1104.47 388.79 1314.93 380.03 1222.99 487.85 1139.63 617.36 1313.62 607.54
00025375 00000149 986.30 151.64 429.48 620.37 1100.41 387.80 1311.84 380.49 1218.46 486.43 1134.45 617.20 1309.05 608.68
00025376 00000150 984.07 152.94 427.99 616.24 1095.37 386.57 1306.54 378.78 1213.78 484.79 1132.37 616.74 1305.18 607.63
00025377 00000151 981.90 154.97 426.56 611.87 1091.20 384.95 1300.66 376.24 1208.75 486.67 1129.41 616.38 1298.28 606.73
00025378 00000152 979.09 157.57 426.25 611.45 1086.48 387.99 1293.35 377.65 1202.01 488.78 1124.61 616.09 1294.63 605.46
00025379 DELETE   976.37 158.37 423.89 607.91 1080.03 392.19 1286.43 380.74 1192.24 489.30 1115.59 615.38 1284.95 604.23
00025380 00000154 975.57 159.99 424.57 612.68 1074.11 390.35 1283.09 379.95 1181.48 490.26 1104.52 615.45 1279.43 605.59
00025381 00000155 974.68 160.05 422.33 613.19 1069.37 390.00 1275.24 380.82 1169.75 491.36 1096.27 615.65 1268.39 607.31
00025382 00000156 975.01 160.32 421.41 611.61 1067.98 389.77 1274.02 381.66 1165.32 490.86 1091.81 614.58 1264.56 607.33
00025383 00000157 975.84 158.79 420.98 612.54 1068.44 388.70 1275.65 379.56 1167.00 490.08 1093.66 615.07 1266.36 606.79
00025384 00000158 977.00 159.25 423.00 612.76 1070.58 387.06 1279.62 376.83 1171.35 488.46 1098.06 615.23 1271.93 605.85
00025385 00000159 976.32 159.77 425.83 613.90 1074.71 384.81 1284.18 375.38 1180.02 488.78 1104.52 615.72 1275.98 606.84
00025386 00000160 977.24 159.30 426.29 610.52 1079.42 383.61 1289.27 374.39 1188.32 488.21 1111.89 614.86 1280.99 605.68
00025387 00000161 979.46 157.69 426.87 613.15 1083.53 383.29 1292.55 374.69 1193.52 487.73 1117.31 616.23 1284.82 607.30
00025388 00000162 982.12 156.96 426.91 613.88 1088.00 382.66 1297.45 374.20 1199.32 487.52 1122.13 617.34 1288.82 608.38
00025389 00000163 984.10 153.88 427.02 617.69 1092.60 383.69 1300.28 375.87 1206.01 487.94 1126.59 617.32 1293.65 608.67
