Video ID: 	385414AVZcA
H: 	2160
W: 	3840
FPS: 	23.976023976023978

FRAME INDEX X0 Y0 W H [Landmarks (5 Points)]

00002485 00000000 1476.73 315.29 1094.72 1401.10 1711.74 770.36 2235.33 729.54 1972.70 1046.04 1809.85 1326.60 2241.15 1289.76
00002486 00000001 1483.84 305.67 1092.48 1408.86 1711.43 772.99 2239.29 732.91 1974.69 1058.40 1813.56 1332.26 2238.37 1296.16
00002487 00000002 1487.81 310.07 1091.60 1399.84 1711.50 774.36 2238.89 734.02 1972.18 1058.60 1815.20 1331.34 2237.25 1295.18
00002488 00000003 1485.93 306.70 1091.07 1399.04 1713.85 776.24 2238.91 737.56 1975.28 1056.88 1815.03 1331.13 2237.04 1296.56
00002489 00000004 1484.74 300.73 1085.70 1397.84 1720.85 801.19 2234.02 763.17 1973.32 1053.06 1811.55 1330.72 2232.90 1298.40
00002490 00000005 1491.52 311.29 1085.98 1384.34 1723.22 795.20 2244.62 756.86 1981.20 1053.33 1823.46 1331.87 2240.76 1299.17
00002491 00000006 1500.37 319.42 1083.99 1370.14 1725.93 783.42 2255.61 742.45 1993.41 1051.00 1833.67 1329.86 2250.74 1294.05
00002492 00000007 1500.29 305.54 1087.25 1380.34 1729.54 769.78 2263.59 727.66 2002.94 1044.28 1842.76 1325.70 2255.69 1289.01
00002493 00000008 1500.31 306.31 1086.34 1377.68 1729.72 763.79 2263.69 720.72 2002.83 1033.49 1844.63 1321.49 2256.14 1283.98
00002494 00000009 1498.01 302.67 1087.93 1387.84 1725.75 762.48 2262.45 718.52 1998.48 1028.65 1841.19 1324.74 2253.08 1286.32
00002495 00000010 1485.55 293.04 1091.86 1446.73 1716.05 766.71 2246.14 718.37 1982.31 1036.34 1836.23 1349.74 2237.14 1308.26
00002496 00000011 1472.05 320.15 1077.79 1460.07 1709.04 784.09 2223.86 734.14 1973.53 1038.56 1819.98 1395.35 2202.38 1350.97
00002497 00000012 1458.01 310.45 1070.82 1469.31 1685.89 793.42 2204.30 748.44 1946.14 1061.57 1795.38 1399.58 2179.88 1359.88
00002498 00000013 1439.47 332.74 1088.20 1441.97 1668.76 815.09 2203.27 771.09 1939.06 1109.16 1786.09 1403.75 2184.75 1364.22
00002499 00000014 1429.78 358.27 1074.99 1407.89 1652.07 826.11 2179.66 787.28 1913.76 1129.49 1764.75 1399.67 2174.64 1363.45
00002500 DELETE   1419.56 335.50 1088.31 1390.43 1626.22 830.77 2157.43 797.73 1875.26 1121.97 1723.55 1369.10 2153.26 1339.04
00002501 00000016 1412.11 305.81 1090.18 1373.24 1610.78 793.70 2145.41 765.59 1853.86 1085.79 1705.18 1338.30 2120.86 1312.45
00002502 00000017 1406.99 287.74 1093.94 1373.66 1619.28 770.82 2147.25 745.29 1857.22 1053.90 1711.41 1313.97 2113.31 1290.45
00002503 00000018 1428.85 301.89 1080.62 1370.03 1639.23 769.71 2170.13 752.46 1877.10 1056.20 1734.61 1324.20 2121.19 1310.66
00002504 00000019 1440.78 341.04 1080.97 1353.07 1656.71 788.57 2189.62 759.53 1913.08 1077.93 1751.36 1366.32 2154.75 1337.97
00002505 00000020 1441.33 344.09 1083.97 1383.42 1667.58 795.08 2201.60 765.65 1931.48 1090.04 1768.80 1375.24 2171.17 1346.14
00002506 00000021 1439.93 356.32 1085.62 1389.47 1665.54 794.67 2198.49 759.30 1927.46 1088.89 1768.44 1382.27 2170.32 1349.24
00002507 00000022 1438.22 353.50 1091.47 1392.68 1663.98 794.53 2192.05 756.82 1922.25 1080.09 1766.15 1378.72 2164.52 1344.28
00002508 00000023 1441.50 355.90 1092.83 1391.88 1666.82 794.27 2196.23 754.73 1924.36 1075.91 1770.83 1378.32 2169.39 1342.66
00002509 00000024 1442.26 359.34 1086.95 1393.91 1677.84 814.96 2200.24 775.59 1936.99 1075.64 1783.63 1382.73 2183.60 1347.59
00002510 00000025 1456.49 354.58 1077.28 1408.91 1689.32 829.56 2215.87 786.18 1955.86 1082.09 1791.76 1394.19 2204.59 1357.01
00002511 00000026 1460.31 361.78 1071.31 1402.59 1697.51 813.31 2223.96 770.01 1967.59 1089.82 1799.63 1387.13 2215.32 1348.93
00002512 00000027 1468.40 351.08 1075.64 1395.06 1701.83 799.86 2235.90 763.50 1971.54 1084.95 1792.66 1372.84 2218.89 1340.35
00002513 00000028 1472.61 315.34 1083.32 1413.67 1696.02 789.25 2229.97 751.71 1968.12 1077.37 1784.00 1347.15 2232.98 1313.33
00002514 00000029 1469.92 316.28 1083.42 1411.33 1697.69 776.29 2227.58 743.89 1968.04 1070.32 1780.83 1337.06 2226.98 1307.80
00002515 00000030 1464.10 322.32 1075.97 1423.20 1705.06 770.37 2232.40 738.49 1969.62 1066.17 1789.45 1364.24 2199.26 1334.43
00002516 00000031 1458.20 329.29 1078.76 1424.54 1703.15 779.32 2227.48 745.30 1967.45 1079.44 1796.12 1374.41 2195.22 1343.04
00002517 00000032 1455.50 338.73 1080.38 1409.79 1693.26 789.95 2222.13 752.64 1962.15 1091.65 1797.39 1380.74 2198.85 1345.98
00002518 00000033 1454.78 338.36 1079.54 1403.06 1688.83 794.56 2220.25 755.97 1958.30 1096.88 1799.93 1384.09 2202.28 1347.56
00002519 00000034 1453.48 333.96 1083.58 1421.75 1689.42 795.52 2221.38 754.95 1959.32 1094.88 1801.13 1389.77 2204.67 1351.44
00002520 00000035 1456.67 332.74 1086.34 1432.94 1694.37 794.06 2225.80 752.81 1962.42 1096.55 1805.60 1393.14 2206.23 1355.31
00002521 00000036 1466.33 317.33 1091.36 1450.43 1693.88 795.06 2219.15 758.37 1958.59 1094.87 1799.18 1371.09 2220.52 1338.75
00002522 00000037 1470.21 305.18 1097.13 1460.69 1697.86 784.48 2231.52 748.02 1966.62 1080.36 1804.45 1365.30 2237.12 1332.31
00002523 00000038 1470.15 299.40 1102.72 1453.77 1703.22 779.71 2236.45 743.37 1973.57 1077.11 1808.80 1357.42 2241.03 1324.43
00002524 00000039 1471.52 295.95 1100.50 1442.14 1703.12 777.12 2237.33 741.52 1973.64 1076.61 1808.24 1353.22 2240.09 1320.93
00002525 00000040 1469.98 294.20 1098.73 1436.08 1702.69 775.24 2235.73 739.86 1972.83 1071.77 1806.54 1349.66 2234.62 1317.78
00002526 00000041 1470.83 291.16 1095.96 1433.70 1702.69 772.59 2232.42 739.09 1969.49 1067.89 1802.21 1343.36 2229.29 1313.31
00002527 00000042 1471.54 294.12 1095.07 1430.19 1704.06 769.31 2230.50 737.98 1969.31 1063.54 1800.73 1340.69 2224.33 1312.65
00002528 00000043 1470.96 283.43 1097.23 1452.20 1701.70 773.64 2237.73 741.27 1968.89 1069.19 1800.39 1349.46 2230.82 1320.30
00002529 00000044 1476.04 297.39 1087.90 1448.32 1706.61 773.58 2240.65 743.07 1975.47 1081.78 1808.14 1360.02 2222.01 1333.59
00002530 00000045 1484.93 300.04 1085.49 1454.11 1712.98 769.94 2247.86 741.29 1981.21 1082.11 1815.67 1363.73 2226.52 1338.82
00002531 00000046 1493.34 286.31 1073.85 1467.61 1720.17 766.55 2253.87 737.83 1992.92 1076.20 1826.56 1367.63 2225.52 1343.90
00002532 00000047 1502.55 295.01 1068.93 1447.16 1729.29 764.62 2263.97 736.85 2003.24 1073.56 1837.36 1367.26 2227.67 1343.96
00002533 00000048 1506.07 296.37 1071.35 1422.92 1738.73 759.78 2274.28 732.48 2012.37 1066.98 1844.43 1358.00 2225.97 1334.53
00002534 00000049 1510.97 295.81 1068.20 1421.32 1745.53 758.48 2278.62 732.94 2014.13 1058.41 1840.12 1347.54 2229.05 1325.58
00002535 00000050 1514.34 296.38 1073.40 1414.80 1751.78 755.66 2286.80 732.10 2018.51 1054.69 1846.77 1344.10 2233.28 1323.71
00002536 00000051 1511.61 298.56 1089.18 1448.52 1772.88 752.61 2292.92 724.17 2032.22 1049.40 1854.11 1353.08 2236.31 1327.54
00002537 00000052 1515.65 298.48 1090.58 1459.12 1780.42 751.79 2301.98 723.63 2043.45 1048.34 1861.05 1359.25 2247.94 1334.05
00002538 00000053 1519.53 295.29 1090.87 1473.13 1787.58 749.13 2306.77 721.41 2051.29 1048.31 1868.69 1361.61 2258.11 1336.62
00002539 00000054 1522.36 300.99 1092.30 1484.03 1790.12 741.78 2311.14 711.48 2056.91 1039.57 1876.29 1368.17 2267.77 1341.02
00002540 00000055 1537.06 317.27 1084.00 1491.82 1805.11 737.72 2321.45 714.79 2077.30 1008.97 1889.05 1384.31 2281.05 1363.56
00002541 00000056 1537.14 305.37 1086.83 1503.61 1806.67 725.46 2330.42 705.32 2081.97 989.82 1889.60 1375.74 2293.96 1357.60
00002542 00000057 1524.20 261.36 1091.82 1522.57 1805.78 703.80 2330.60 677.66 2087.99 989.44 1882.37 1339.27 2303.36 1314.80
00002543 00000058 1532.10 256.05 1078.33 1460.49 1811.97 696.48 2341.79 674.09 2100.48 979.33 1887.33 1307.81 2311.23 1285.89
00002544 00000059 1533.16 263.42 1071.89 1428.29 1811.74 699.72 2335.44 675.18 2102.60 985.48 1893.15 1300.84 2299.56 1277.25
00002545 00000060 1528.24 271.40 1072.59 1414.37 1804.02 716.21 2322.48 680.32 2089.27 993.19 1895.51 1308.34 2280.33 1275.80
00002546 00000061 1524.73 273.62 1071.53 1383.42 1786.10 747.70 2300.67 720.07 2057.11 1018.17 1896.16 1309.74 2262.46 1285.36
00002547 00000062 1525.53 289.09 1068.30 1370.75 1782.03 734.42 2303.44 705.12 2062.16 1023.07 1898.77 1309.54 2263.38 1282.67
00002548 00000063 1531.22 269.23 1075.33 1389.48 1787.10 717.47 2320.06 685.16 2077.87 1012.74 1913.43 1311.07 2277.91 1281.18
00002549 00000064 1539.48 262.35 1066.10 1392.36 1798.43 705.29 2327.21 672.30 2096.34 994.15 1925.89 1302.97 2292.82 1272.23
00002550 00000065 1546.15 261.64 1060.48 1383.84 1806.60 691.71 2332.95 665.66 2107.03 983.65 1931.63 1290.39 2296.11 1265.47
00002551 00000066 1543.03 293.54 1068.01 1371.67 1823.06 695.37 2341.29 661.86 2120.17 964.22 1924.89 1298.60 2291.51 1267.69
00002552 00000067 1542.99 282.52 1068.16 1395.56 1823.83 703.40 2341.67 668.63 2119.93 975.64 1923.88 1309.92 2297.46 1278.20
00002553 00000068 1539.26 278.18 1074.03 1425.48 1813.09 719.33 2339.63 680.86 2107.93 1006.39 1904.58 1319.83 2310.86 1283.49
00002554 00000069 1525.38 283.47 1093.49 1439.86 1804.10 727.68 2334.28 689.92 2095.56 1026.05 1892.07 1331.19 2305.01 1295.54
00002555 00000070 1524.57 274.86 1089.37 1471.66 1788.14 742.59 2320.76 698.87 2074.01 1045.68 1875.68 1349.90 2303.50 1309.64
00002556 00000071 1516.80 311.62 1089.53 1440.14 1782.03 769.91 2304.99 730.18 2060.62 1061.19 1876.72 1363.28 2287.28 1325.67
00002557 00000072 1519.39 333.14 1075.55 1408.88 1783.94 783.21 2300.22 747.98 2061.45 1068.57 1879.41 1358.14 2290.30 1323.25
00002558 00000073 1524.58 316.87 1072.94 1380.15 1776.71 789.51 2306.28 757.53 2069.64 1071.58 1880.76 1336.27 2303.07 1307.68
00002559 00000074 1529.76 331.97 1066.44 1354.89 1783.79 796.89 2311.75 762.69 2079.63 1075.99 1882.11 1331.94 2312.56 1301.64
00002560 00000075 1529.66 348.39 1067.18 1382.32 1799.49 796.05 2316.75 757.42 2093.71 1080.39 1891.33 1342.86 2321.40 1303.50
00002561 00000076 1525.04 338.16 1071.65 1433.16 1802.63 788.74 2316.67 755.30 2099.13 1081.99 1891.30 1360.93 2313.53 1327.37
00002562 00000077 1525.00 325.28 1074.44 1442.70 1811.65 788.54 2326.07 756.38 2107.42 1077.84 1898.59 1356.04 2324.42 1322.65
00002563 00000078 1532.08 317.58 1071.25 1432.30 1818.55 782.10 2332.20 751.06 2116.15 1077.02 1906.02 1350.64 2327.58 1317.40
00002564 00000079 1537.92 329.86 1067.70 1411.24 1827.15 784.77 2337.52 756.02 2123.83 1074.76 1913.27 1347.07 2329.02 1315.96
00002565 00000080 1544.33 339.22 1061.67 1385.00 1833.64 790.82 2346.70 765.48 2132.96 1079.57 1919.96 1345.66 2336.78 1317.00
00002566 00000081 1544.37 340.60 1066.99 1380.84 1839.71 793.49 2359.79 765.89 2146.31 1084.23 1929.76 1347.13 2351.99 1316.10
00002567 00000082 1544.36 326.14 1074.42 1410.07 1846.49 795.99 2365.81 771.48 2156.16 1087.11 1937.29 1351.32 2359.76 1323.36
00002568 00000083 1542.47 335.27 1076.76 1413.50 1848.15 797.41 2372.10 774.61 2161.32 1090.67 1935.37 1358.83 2364.21 1332.77
00002569 00000084 1542.59 360.21 1070.81 1388.59 1845.48 797.53 2367.75 772.17 2158.46 1089.27 1935.98 1359.81 2361.97 1331.44
00002570 00000085 1541.85 347.25 1073.63 1393.55 1842.68 795.00 2365.58 767.76 2156.31 1086.42 1932.07 1354.86 2359.14 1324.96
00002571 00000086 1542.51 354.04 1071.10 1384.18 1842.18 794.84 2363.32 764.95 2155.25 1083.11 1930.00 1352.14 2357.73 1319.93
00002572 00000087 1543.81 346.44 1070.56 1386.30 1843.65 792.47 2364.19 763.72 2155.08 1081.16 1931.80 1349.66 2356.59 1318.09
00002573 00000088 1544.49 337.99 1074.37 1388.58 1844.59 793.09 2367.91 766.27 2157.45 1082.38 1934.58 1350.90 2358.73 1321.03
00002574 00000089 1544.13 354.36 1071.62 1370.43 1845.55 796.68 2369.21 766.96 2162.55 1086.34 1938.07 1353.39 2361.78 1320.50
00002575 00000090 1544.21 342.06 1072.99 1387.01 1848.69 798.34 2371.18 771.52 2164.46 1087.60 1935.67 1355.91 2361.58 1325.49
00002576 00000091 1545.93 339.05 1073.88 1391.79 1848.88 797.12 2374.27 769.94 2165.41 1086.81 1937.70 1357.15 2364.24 1326.70
00002577 00000092 1546.63 338.79 1072.38 1394.00 1850.43 797.38 2375.09 770.22 2167.51 1087.04 1940.52 1358.02 2365.68 1327.77
00002578 00000093 1543.86 349.67 1073.75 1394.14 1849.83 799.22 2371.96 769.74 2167.90 1090.17 1943.48 1361.68 2366.67 1329.68
00002579 00000094 1540.62 348.94 1076.66 1400.23 1846.77 800.77 2371.31 770.65 2166.76 1095.52 1943.24 1366.32 2367.76 1333.75
00002580 00000095 1538.63 341.56 1082.11 1412.05 1846.56 799.29 2370.61 770.87 2164.95 1094.54 1942.20 1365.33 2366.76 1334.34
00002581 00000096 1537.48 338.64 1082.52 1417.64 1845.03 798.61 2367.09 769.59 2162.81 1091.82 1938.85 1365.23 2362.85 1333.77
00002582 00000097 1538.93 337.96 1077.96 1417.65 1843.95 793.82 2363.61 764.15 2161.31 1082.16 1943.22 1367.01 2354.13 1335.84
00002583 00000098 1538.56 334.36 1077.46 1425.66 1842.20 791.96 2359.95 761.58 2156.50 1079.09 1943.43 1371.68 2346.33 1339.93
00002584 00000099 1540.58 329.18 1076.43 1426.44 1840.91 790.70 2357.94 760.85 2153.65 1078.06 1942.84 1371.56 2342.10 1340.71
00002585 00000100 1539.73 339.88 1075.11 1411.42 1840.24 791.69 2358.06 761.69 2153.12 1077.71 1944.69 1370.57 2342.13 1339.53
00002586 00000101 1541.68 341.61 1071.61 1399.84 1842.44 790.59 2358.10 762.22 2153.09 1077.65 1944.96 1366.56 2341.05 1336.35
00002587 00000102 1542.00 346.59 1070.28 1389.19 1843.83 790.13 2361.23 762.34 2154.76 1077.16 1943.23 1360.73 2346.89 1330.68
00002588 00000103 1543.49 355.21 1066.70 1376.50 1843.40 791.88 2365.35 763.77 2156.75 1080.29 1938.37 1360.58 2354.11 1329.83
00002589 00000104 1542.43 358.37 1066.06 1371.28 1840.39 794.18 2364.40 764.31 2154.65 1083.42 1936.35 1360.88 2356.37 1328.32
00002590 00000105 1539.84 350.49 1069.36 1372.24 1837.05 794.91 2364.43 763.41 2152.71 1085.84 1936.31 1361.78 2357.14 1327.50
00002591 00000106 1537.51 348.01 1070.96 1376.04 1833.99 794.89 2358.78 761.71 2148.37 1086.94 1936.74 1361.63 2350.31 1326.00
00002592 00000107 1537.97 336.43 1070.57 1384.07 1834.05 793.98 2355.55 762.08 2146.34 1084.28 1937.20 1360.16 2345.46 1325.61
00002593 00000108 1538.13 339.64 1068.93 1375.86 1833.05 792.16 2356.04 760.84 2146.27 1081.87 1936.97 1361.06 2343.54 1326.94
00002594 00000109 1545.06 323.69 1064.02 1399.09 1837.81 790.63 2359.62 759.95 2149.50 1077.54 1939.25 1362.07 2344.99 1329.15
00002595 00000110 1543.68 343.86 1060.04 1380.15 1840.64 800.75 2361.41 774.10 2152.74 1085.21 1943.93 1365.67 2345.08 1336.66
00002596 00000111 1545.28 357.47 1054.46 1371.06 1840.13 800.88 2360.65 774.79 2152.68 1092.62 1945.70 1371.28 2344.05 1342.93
00002597 00000112 1540.40 338.99 1071.80 1385.67 1839.70 794.58 2367.40 774.88 2152.83 1095.94 1940.90 1366.60 2343.13 1343.25
00002598 00000113 1541.66 318.62 1064.69 1385.98 1830.63 798.57 2354.12 774.21 2142.88 1093.81 1931.62 1356.33 2335.82 1334.24
00002599 00000114 1537.65 318.24 1061.16 1382.56 1825.36 796.68 2346.42 773.99 2133.38 1090.69 1927.99 1354.27 2321.99 1334.16
00002600 00000115 1533.72 343.79 1057.38 1379.08 1826.70 790.90 2337.94 771.94 2125.01 1089.55 1922.47 1357.72 2310.03 1335.36
00002601 00000116 1528.44 334.43 1064.03 1374.54 1805.24 799.80 2327.92 770.76 2110.72 1095.37 1911.81 1358.44 2308.80 1333.18
00002602 00000117 1526.59 349.25 1062.77 1371.38 1802.90 808.37 2324.86 782.14 2107.96 1108.76 1905.48 1366.60 2308.55 1343.22
00002603 00000118 1524.38 359.03 1063.91 1375.97 1804.68 818.30 2322.57 793.83 2109.20 1121.18 1903.12 1374.63 2309.37 1353.07
00002604 00000119 1523.13 371.13 1060.18 1380.76 1812.16 812.29 2330.49 794.26 2117.80 1129.02 1912.39 1381.09 2311.60 1359.78
00002605 00000120 1521.69 377.18 1059.54 1373.34 1813.14 810.92 2330.24 793.09 2119.78 1128.65 1912.58 1380.43 2309.70 1359.05
00002606 00000121 1523.92 370.82 1058.17 1375.30 1816.15 813.01 2329.43 788.92 2122.33 1119.68 1918.76 1380.22 2311.41 1353.84
00002607 00000122 1529.85 329.07 1057.11 1387.25 1810.98 834.31 2320.90 803.93 2110.63 1106.58 1908.86 1370.39 2311.89 1345.33
00002608 00000123 1528.65 286.19 1064.87 1427.27 1808.10 805.62 2330.36 772.70 2118.24 1085.26 1911.60 1358.23 2326.54 1331.31
00002609 00000124 1526.42 278.68 1078.85 1461.80 1829.28 771.68 2348.39 738.63 2142.57 1056.07 1932.27 1361.27 2331.76 1326.90
00002610 00000125 1524.34 270.28 1081.64 1498.98 1858.66 750.91 2364.74 726.50 2179.47 1022.80 1970.54 1373.28 2325.70 1348.02
00002611 DELETE   1539.37 270.80 1070.91 1500.78 1892.25 742.63 2386.64 721.13 2221.22 1016.12 2007.65 1383.69 2346.96 1362.45
00002612 00000127 1544.68 274.04 1076.12 1495.72 1909.44 744.27 2400.01 721.91 2241.82 1015.20 2025.71 1380.80 2367.96 1357.96
00002613 00000128 1554.58 276.36 1082.33 1484.98 1923.92 747.91 2423.45 724.01 2259.69 1021.54 2033.19 1374.52 2394.81 1348.93
00002614 00000129 1562.27 279.97 1089.07 1470.71 1928.06 757.17 2436.14 735.19 2263.44 1028.10 2018.91 1360.11 2410.01 1336.06
00002615 00000130 1569.00 296.51 1091.36 1452.55 1931.31 759.85 2445.47 740.29 2267.92 1040.71 2017.27 1357.68 2418.29 1335.80
00002616 00000131 1586.20 306.10 1075.00 1434.12 1933.12 756.72 2447.06 750.04 2266.51 1056.33 2025.12 1354.17 2407.44 1346.22
00002617 00000132 1573.39 296.40 1083.49 1476.00 1948.61 768.30 2441.38 757.75 2266.87 1073.80 2033.88 1377.56 2399.78 1364.68
00002618 00000133 1568.89 317.26 1091.83 1463.39 1948.04 785.22 2440.90 781.44 2270.70 1104.61 2028.19 1381.70 2403.11 1373.91
00002619 00000134 1565.67 331.48 1087.77 1463.32 1946.15 800.09 2434.06 793.10 2271.44 1124.25 2003.77 1389.97 2402.73 1380.77
00002620 00000135 1564.99 349.75 1083.07 1451.86 1938.16 813.67 2427.82 799.72 2268.41 1135.33 1986.95 1392.93 2409.06 1378.58
00002621 00000136 1566.33 361.82 1079.39 1436.80 1935.33 820.40 2428.15 800.82 2267.46 1140.23 1977.94 1385.32 2415.77 1366.12
00002622 00000137 1582.42 350.04 1072.39 1429.28 1932.47 831.35 2429.03 814.86 2254.48 1133.50 1969.82 1361.12 2426.30 1345.34
00002623 00000138 1581.93 351.64 1075.32 1421.34 1929.09 833.61 2429.54 817.08 2249.84 1138.59 1966.59 1359.57 2425.25 1343.54
00002624 00000139 1580.52 353.44 1075.11 1424.88 1927.79 839.22 2428.81 823.67 2248.03 1149.90 1968.24 1368.05 2421.02 1353.03
00002625 00000140 1581.11 363.91 1077.64 1429.80 1933.02 844.16 2430.61 834.12 2248.55 1159.14 1968.45 1375.39 2416.42 1365.05
00002626 00000141 1579.74 368.83 1079.80 1430.59 1928.42 850.86 2431.39 836.17 2251.48 1166.53 1976.74 1392.76 2420.80 1377.92
00002627 00000142 1567.35 404.05 1096.56 1393.20 1925.82 862.60 2436.95 840.68 2255.93 1170.66 1980.17 1409.47 2412.58 1386.96
00002628 00000143 1586.06 377.73 1075.49 1428.85 1929.80 865.88 2438.36 848.41 2255.05 1188.49 1989.24 1415.72 2420.92 1398.84
00002629 00000144 1571.61 424.62 1095.73 1392.22 1938.39 871.93 2442.92 860.54 2259.39 1188.23 1993.32 1421.97 2408.65 1407.25
00002630 00000145 1590.71 374.38 1075.18 1458.91 1939.91 872.41 2444.60 862.05 2261.52 1198.60 1994.15 1435.81 2417.59 1424.76
00002631 00000146 1589.42 382.89 1078.56 1455.22 1942.77 876.91 2444.93 866.49 2263.53 1206.07 1989.19 1433.61 2418.26 1422.03
00002632 00000147 1575.88 388.62 1085.08 1428.36 1934.65 882.31 2436.68 860.55 2262.72 1219.72 1984.43 1433.41 2415.59 1413.90
00002633 00000148 1580.38 403.35 1079.55 1419.25 1932.18 892.25 2440.38 873.18 2256.75 1228.86 1980.06 1433.99 2415.37 1415.78
00002634 00000149 1576.74 396.19 1079.15 1433.68 1927.13 894.44 2432.84 876.24 2248.25 1237.36 1973.26 1436.45 2408.89 1419.10
00002635 00000150 1554.81 408.87 1097.68 1440.69 1914.71 902.32 2418.41 881.61 2236.06 1231.71 1961.87 1439.77 2395.26 1417.31
00002636 00000151 1545.65 413.42 1099.26 1475.36 1907.93 902.83 2409.06 879.34 2234.99 1235.52 1936.41 1443.06 2394.30 1418.58
CROP_BBOX: 888 0 3186 2160
