Video ID: 	QaqZxl0UMTo
H: 	1080
W: 	1920
FPS: 	25.0

FRAME INDEX X0 Y0 W H [Landmarks (5 Points)]

00004590 00000000 1126.67 59.79 455.38 603.35 1215.86 279.79 1433.22 279.94 1299.05 376.87 1235.38 512.96 1397.12 511.60
00004591 00000001 1118.15 59.63 456.63 601.12 1209.51 285.27 1427.35 286.56 1293.68 381.69 1225.58 515.69 1389.88 515.44
00004592 00000002 1111.09 58.54 452.92 604.00 1204.40 284.86 1420.20 286.85 1291.83 380.00 1219.31 515.03 1379.21 515.95
00004593 00000003 1098.76 46.37 458.59 611.69 1190.34 279.49 1408.51 281.51 1275.01 381.41 1207.12 513.24 1369.61 515.92
00004594 00000004 1086.18 42.39 461.68 615.93 1180.59 279.42 1400.04 281.00 1269.54 380.02 1198.39 511.95 1361.03 514.04
00004595 00000005 1072.16 44.87 467.40 620.31 1170.20 278.61 1384.88 279.71 1259.78 385.13 1193.13 513.83 1345.52 515.66
00004596 00000006 1062.91 47.17 466.91 623.01 1161.14 281.11 1374.34 279.99 1249.94 384.83 1186.05 517.35 1334.97 517.29
00004597 00000007 1055.17 52.82 467.19 618.13 1147.40 282.52 1368.65 284.11 1236.53 385.65 1171.75 523.41 1334.57 522.33
00004598 00000008 1047.88 42.71 467.86 627.50 1140.11 295.43 1357.98 288.43 1230.53 390.08 1167.36 530.26 1326.57 524.09
00004599 00000009 1045.56 60.27 461.03 618.82 1137.06 293.32 1352.46 291.39 1224.88 393.98 1161.63 529.53 1322.36 526.49
00004600 DELETE   1037.57 49.70 466.59 634.59 1133.90 297.55 1347.11 295.91 1219.57 401.69 1155.61 537.06 1310.51 535.99
00004601 00000011 1031.76 66.32 460.76 621.95 1126.83 302.87 1343.47 305.08 1219.31 411.25 1145.30 538.01 1303.04 539.61
00004602 00000012 1025.70 68.33 461.89 626.54 1121.40 310.34 1338.88 310.82 1212.61 416.70 1138.93 545.14 1296.36 545.19
00004603 00000013 1023.18 64.66 466.15 627.56 1113.91 318.13 1328.14 316.38 1197.89 421.51 1140.87 554.46 1288.34 553.50
00004604 00000014 1017.18 67.61 468.20 624.65 1107.77 321.49 1319.68 320.48 1189.55 422.11 1132.43 553.97 1279.15 553.45
00004605 DELETE   1009.90 74.39 470.92 621.72 1095.78 318.12 1302.18 317.44 1170.23 424.97 1122.29 552.67 1261.79 552.53
00004606 DELETE   999.56 68.33 475.66 634.05 1080.36 317.25 1285.64 313.67 1149.24 423.13 1106.48 553.05 1246.75 550.75
00004607 DELETE   996.54 66.73 474.92 638.24 1065.09 319.33 1263.36 316.74 1115.85 420.43 1089.12 553.82 1229.83 551.76
00004608 00000018 995.79 77.20 467.49 626.40 1054.77 316.65 1252.97 315.16 1098.61 420.61 1074.77 555.72 1213.52 554.42
00004609 00000019 994.35 81.71 467.74 621.03 1051.71 312.60 1249.88 313.82 1093.19 424.80 1070.92 555.24 1207.84 556.08
00004610 00000020 994.87 83.68 468.08 619.19 1052.72 312.27 1248.41 313.60 1092.29 425.61 1072.40 555.52 1207.10 556.34
00004611 00000021 997.01 81.28 470.74 634.21 1060.36 317.09 1250.73 317.64 1101.84 428.49 1078.99 556.01 1211.79 556.81
00004612 00000022 999.63 87.22 468.60 630.50 1061.14 319.22 1251.89 319.11 1102.76 431.98 1080.92 560.06 1212.19 560.34
00004613 00000023 1000.51 89.92 468.37 627.81 1059.66 322.20 1250.45 321.28 1102.31 436.54 1080.89 562.77 1213.59 562.27
00004614 00000024 1000.11 92.98 468.43 626.26 1057.60 323.66 1252.56 324.60 1102.29 439.85 1076.85 565.77 1213.13 566.66
00004615 00000025 1001.80 100.60 462.87 619.01 1058.20 324.70 1254.34 327.04 1104.19 444.33 1076.18 568.42 1213.73 570.37
00004616 00000026 1003.95 101.08 462.99 618.52 1061.96 326.12 1255.47 329.86 1106.00 445.96 1078.59 568.24 1214.56 571.30
00004617 00000027 1007.96 98.53 460.64 619.93 1065.75 326.68 1259.28 331.11 1109.86 445.01 1080.76 568.46 1216.43 572.16
00004618 00000028 1008.48 101.22 464.12 617.72 1068.38 329.60 1262.98 333.73 1114.78 446.27 1082.70 569.45 1220.18 573.10
00004619 00000029 1008.85 103.63 464.84 614.59 1071.08 329.86 1266.02 335.42 1118.11 446.44 1085.40 569.08 1222.03 573.89
00004620 00000030 1010.33 102.47 465.06 615.57 1073.24 330.77 1268.14 336.29 1120.05 446.49 1086.79 569.05 1224.59 573.89
00004621 00000031 1011.56 102.04 465.19 614.18 1073.64 332.06 1268.88 337.41 1121.30 447.77 1087.32 569.27 1225.23 574.02
00004622 00000032 1009.93 101.41 468.18 613.47 1072.23 332.86 1269.10 337.65 1121.72 448.13 1086.84 569.54 1226.45 573.75
00004623 00000033 1010.22 105.53 467.80 608.70 1072.32 333.20 1269.03 338.39 1121.27 448.35 1087.29 569.06 1226.96 573.58
00004624 00000034 1011.70 106.61 466.97 607.53 1072.48 332.34 1268.59 337.64 1120.42 447.92 1087.18 568.73 1226.99 573.33
00004625 00000035 1014.19 106.36 465.80 609.08 1074.98 331.33 1267.56 337.79 1120.06 448.30 1089.26 567.33 1227.28 572.90
00004626 00000036 1016.27 106.69 466.59 613.10 1079.56 331.66 1269.13 337.88 1122.47 448.13 1092.71 567.45 1228.20 573.09
00004627 00000037 1018.08 103.48 465.41 621.51 1081.80 331.09 1268.44 336.99 1122.87 446.74 1095.12 568.90 1227.93 574.45
00004628 00000038 1019.64 103.71 463.80 622.53 1083.14 331.56 1268.99 337.03 1124.19 446.44 1096.36 569.51 1229.85 574.74
00004629 00000039 1020.19 102.72 462.49 627.92 1084.68 330.91 1270.17 335.62 1125.63 446.01 1098.35 569.91 1232.08 574.64
00004630 00000040 1020.18 101.60 463.35 628.19 1085.07 332.33 1270.85 336.29 1125.38 445.22 1097.97 569.87 1232.88 573.99
00004631 00000041 1021.25 101.16 463.30 617.32 1083.03 332.47 1271.85 337.22 1126.63 447.12 1095.85 564.95 1237.61 569.47
00004632 00000042 1021.59 97.17 462.67 617.09 1084.16 330.89 1271.97 336.42 1127.91 445.82 1096.27 562.56 1237.26 567.62
00004633 00000043 1023.99 98.50 463.22 625.41 1086.79 331.11 1273.09 335.48 1129.38 446.43 1099.86 565.53 1239.20 569.81
00004634 00000044 1028.31 99.78 458.21 627.59 1089.76 332.77 1276.12 338.02 1133.88 447.33 1102.06 567.65 1242.57 572.75
00004635 00000045 1031.98 93.55 454.83 628.14 1090.92 334.47 1280.88 340.14 1138.25 446.95 1102.24 565.57 1250.25 570.92
00004636 00000046 1032.67 96.87 452.37 622.70 1094.86 333.94 1293.04 335.92 1143.20 446.75 1103.36 561.90 1260.96 563.22
00004637 00000047 1037.82 92.36 456.16 636.01 1099.98 331.69 1291.19 338.46 1151.47 445.24 1112.11 563.73 1258.03 570.28
00004638 00000048 1042.54 86.54 455.12 645.95 1111.32 329.86 1307.22 337.75 1170.05 446.97 1122.62 564.51 1267.63 572.48
00004639 00000049 1043.17 97.87 455.13 624.63 1124.92 330.70 1329.44 338.50 1185.94 443.91 1129.12 561.44 1285.25 567.99
00004640 00000050 1046.82 95.30 458.29 623.50 1134.09 330.82 1340.67 338.80 1202.24 441.81 1140.75 559.23 1302.97 565.47
00004641 00000051 1048.13 91.04 465.50 629.93 1142.84 330.43 1354.71 338.45 1219.06 437.39 1152.17 560.61 1319.50 566.51
00004642 00000052 1049.85 88.05 468.84 632.72 1151.37 328.33 1365.06 338.73 1232.79 435.27 1163.00 559.05 1333.08 566.67
00004643 00000053 1053.10 89.07 472.01 630.99 1160.18 329.47 1375.24 340.29 1246.86 434.47 1172.97 558.24 1343.44 565.94
00004644 00000054 1056.43 83.70 469.88 636.35 1167.77 328.94 1381.89 341.40 1255.84 434.71 1180.96 557.15 1350.52 565.87
00004645 00000055 1058.82 82.97 471.28 636.58 1173.13 328.58 1385.05 335.07 1263.41 438.60 1185.30 558.80 1341.33 564.13
00004646 00000056 1059.96 84.99 471.38 635.32 1175.57 329.37 1388.26 336.07 1266.53 438.27 1186.68 558.29 1344.76 563.66
00004647 00000057 1061.09 84.95 471.12 636.78 1176.70 330.09 1389.34 336.81 1267.73 438.61 1187.87 559.27 1345.99 564.73
00004648 00000058 1060.52 85.80 471.76 638.71 1176.13 329.55 1386.22 335.82 1265.94 438.77 1188.67 559.97 1344.08 565.27
00004649 00000059 1059.68 86.81 471.41 639.22 1173.55 329.38 1383.64 336.00 1263.06 440.60 1186.31 560.75 1341.97 566.34
00004650 00000060 1058.04 88.25 471.44 636.98 1169.59 328.46 1380.15 334.46 1259.02 441.79 1183.77 561.00 1340.84 566.00
00004651 00000061 1057.42 86.55 470.31 638.89 1167.90 328.57 1378.61 333.23 1258.46 442.35 1183.08 561.57 1340.41 565.53
00004652 00000062 1057.08 85.16 469.51 638.61 1167.50 330.98 1381.86 342.62 1256.40 441.37 1181.73 561.12 1351.65 569.21
00004653 00000063 1056.15 86.21 469.04 634.52 1166.42 331.16 1381.55 343.10 1255.74 441.17 1180.72 560.39 1350.72 568.78
00004654 00000064 1054.05 88.72 469.73 630.46 1163.61 331.91 1380.64 342.43 1254.17 440.10 1178.41 560.29 1350.85 567.51
00004655 00000065 1054.54 91.81 467.60 624.44 1162.91 332.29 1379.96 343.22 1253.00 439.97 1177.44 559.13 1350.90 566.58
00004656 00000066 1054.18 93.04 468.02 624.31 1161.74 332.46 1378.77 342.80 1251.83 439.18 1176.61 559.45 1350.00 566.45
00004657 00000067 1053.82 93.84 467.93 623.72 1161.33 331.89 1377.15 342.19 1250.61 439.41 1175.64 559.57 1347.62 566.66
00004658 00000068 1051.78 96.96 470.60 621.84 1160.27 333.07 1376.70 343.16 1251.12 440.17 1175.13 560.65 1346.51 567.75
00004659 00000069 1051.89 98.97 471.07 620.91 1159.54 333.95 1376.53 343.53 1250.90 441.14 1175.27 561.72 1346.74 568.40
00004660 00000070 1051.92 97.40 470.57 622.95 1159.18 333.69 1375.62 342.93 1250.21 441.04 1174.99 562.18 1346.50 568.51
00004661 00000071 1051.98 98.43 470.50 621.20 1158.53 334.14 1375.69 343.17 1249.18 440.97 1175.03 562.58 1346.27 568.72
00004662 00000072 1052.60 97.94 470.22 623.53 1157.91 335.53 1375.54 343.23 1249.13 442.22 1175.17 564.19 1347.29 569.25
00004663 00000073 1053.03 97.47 469.85 623.72 1158.30 335.64 1375.68 343.56 1248.98 442.54 1175.45 564.14 1347.49 569.37
00004664 00000074 1052.99 96.59 470.10 625.19 1159.48 336.04 1376.19 343.63 1250.29 442.76 1176.29 564.27 1347.75 569.30
00004665 00000075 1053.09 96.51 470.84 626.77 1159.15 336.18 1375.91 343.13 1249.89 443.12 1176.73 565.40 1347.84 569.93
00004666 00000076 1053.27 96.96 471.07 627.80 1158.87 335.62 1376.32 342.35 1249.94 443.89 1176.76 566.18 1348.04 570.61
00004667 00000077 1053.09 95.71 470.39 627.49 1158.83 336.19 1376.24 343.29 1249.94 443.65 1176.16 565.32 1348.02 569.98
00004668 00000078 1052.77 97.50 470.99 625.94 1157.81 335.65 1375.97 342.53 1249.17 443.61 1175.83 565.17 1348.24 569.65
00004669 00000079 1053.14 97.06 470.12 627.46 1157.90 335.74 1375.29 342.28 1249.14 443.73 1175.69 565.27 1348.28 569.45
00004670 00000080 1052.88 97.00 470.71 627.19 1157.64 335.66 1375.81 342.42 1249.09 443.70 1175.71 565.28 1348.44 569.65
00004671 00000081 1052.03 97.89 471.16 625.53 1157.16 335.32 1376.55 342.75 1249.10 443.63 1174.76 564.84 1348.55 569.74
00004672 00000082 1052.33 97.09 469.25 624.13 1157.09 334.61 1375.42 342.86 1248.11 443.01 1173.89 563.86 1347.01 569.40
00004673 00000083 1051.51 98.94 469.92 616.72 1155.36 334.76 1375.59 342.95 1246.71 442.76 1172.86 562.17 1348.76 567.30
00004674 00000084 1050.41 97.37 470.42 614.92 1153.50 335.06 1374.95 342.65 1245.76 442.04 1171.51 561.55 1349.14 566.03
00004675 00000085 1049.59 99.09 469.41 616.16 1151.93 333.91 1372.75 341.71 1242.96 441.68 1168.80 560.40 1347.24 565.17
00004676 00000086 1050.16 97.62 468.52 627.15 1151.34 331.91 1364.12 339.59 1236.08 441.85 1165.81 561.07 1336.56 566.59
00004677 00000087 1049.56 96.64 466.49 629.88 1147.26 332.06 1357.33 339.52 1226.16 443.15 1159.49 560.34 1330.93 565.67
00004678 00000088 1047.97 100.51 465.05 624.10 1142.98 332.70 1352.66 339.92 1219.63 442.52 1153.43 559.38 1325.12 564.52
00004679 00000089 1046.21 100.12 463.77 618.27 1139.20 330.26 1345.83 340.08 1211.79 440.65 1145.98 554.36 1314.22 561.55
00004680 00000090 1044.51 97.71 459.30 613.36 1126.63 329.20 1331.23 336.23 1188.80 438.18 1132.82 552.04 1295.64 556.87
00004681 00000091 1037.59 101.00 462.82 611.21 1110.26 326.83 1313.32 330.85 1165.23 434.11 1115.69 552.29 1273.62 554.92
00004682 DELETE   1030.42 93.10 461.53 615.38 1092.41 327.40 1292.43 326.77 1141.26 432.42 1099.20 552.93 1254.58 551.94
00004683 00000093 1025.31 91.35 466.91 611.87 1087.87 314.92 1277.75 325.30 1128.36 430.20 1095.30 546.89 1238.03 556.04
00004684 00000094 1021.71 83.86 469.84 620.61 1086.11 314.02 1273.86 322.73 1124.65 428.06 1095.68 546.90 1233.60 554.73
00004685 00000095 1024.58 84.28 467.00 623.47 1088.59 316.34 1276.00 324.46 1127.00 428.79 1098.27 547.78 1236.75 555.18
00004686 00000096 1026.37 97.43 459.98 611.56 1088.67 320.97 1282.78 326.37 1130.42 434.29 1095.18 551.10 1238.74 555.36
00004687 00000097 1025.32 97.77 460.17 613.71 1086.35 320.65 1283.23 326.95 1128.41 437.31 1092.33 553.23 1239.95 558.18
00004688 00000098 1020.60 92.65 468.31 616.22 1084.73 319.31 1272.92 329.80 1124.65 438.22 1093.94 552.22 1233.26 561.45
00004689 00000099 1018.64 94.58 465.69 614.12 1082.82 319.85 1272.64 330.75 1122.75 439.29 1091.79 551.90 1232.17 561.50
00004690 00000100 1018.34 88.12 466.50 623.11 1083.72 321.66 1272.69 332.84 1125.28 440.99 1092.83 554.49 1232.19 564.29
00004691 00000101 1022.66 95.50 461.91 619.68 1088.16 324.47 1277.92 337.16 1130.22 444.82 1095.31 556.67 1235.13 567.80
00004692 00000102 1025.61 100.47 454.34 612.34 1088.77 328.12 1284.19 335.72 1135.46 446.84 1095.12 557.51 1239.04 563.82
00004693 00000103 1025.81 101.49 454.23 612.35 1088.95 328.32 1283.68 335.58 1133.81 445.87 1094.90 557.80 1237.74 563.83
00004694 00000104 1023.55 99.80 456.57 616.02 1087.14 325.92 1280.75 335.01 1129.69 446.94 1093.32 557.93 1235.20 565.45
00004695 00000105 1024.62 104.34 455.99 613.55 1086.48 327.15 1279.90 335.99 1127.91 446.50 1092.09 559.87 1233.14 567.18
00004696 00000106 1026.27 105.98 455.15 613.09 1086.92 326.47 1282.04 335.73 1130.44 448.37 1093.03 561.38 1236.21 569.13
00004697 00000107 1025.70 109.49 461.17 609.39 1086.27 327.22 1282.14 340.97 1135.71 453.50 1094.92 560.86 1242.93 572.72
00004698 00000108 1025.59 105.36 462.35 610.77 1086.24 329.13 1283.45 342.14 1136.77 453.35 1094.73 559.66 1246.39 570.86
00004699 00000109 1026.12 103.74 461.44 613.98 1086.72 326.61 1281.16 340.72 1134.14 452.30 1094.34 558.88 1244.28 571.07
00004700 00000110 1026.26 106.28 460.97 616.84 1088.24 323.75 1277.84 338.47 1129.58 448.95 1094.74 558.67 1237.76 571.45
00004701 00000111 1027.02 101.68 459.99 621.76 1090.02 323.80 1277.21 338.45 1129.38 447.14 1095.60 559.12 1235.45 571.93
00004702 00000112 1027.14 104.31 456.96 618.72 1091.51 326.57 1282.35 334.37 1133.05 446.32 1097.78 559.53 1238.96 566.06
00004703 00000113 1028.35 106.39 460.54 617.07 1090.50 326.94 1278.69 338.98 1133.06 449.03 1098.71 560.72 1239.40 571.33
00004704 00000114 1027.53 109.52 460.64 611.83 1088.77 327.22 1278.38 340.62 1132.04 451.61 1096.83 560.31 1239.19 572.03
00004705 00000115 1025.66 108.65 462.72 612.51 1086.25 326.82 1277.33 340.64 1131.00 454.08 1095.80 560.94 1239.78 572.94
00004706 00000116 1023.85 108.29 465.05 610.27 1083.68 330.50 1279.65 342.79 1133.54 456.46 1094.09 562.91 1243.25 573.50
00004707 00000117 1025.28 112.19 463.38 604.35 1084.36 331.22 1280.83 343.93 1135.45 457.34 1094.53 562.19 1244.60 572.99
00004708 00000118 1025.73 112.79 463.52 606.32 1085.36 332.48 1280.43 344.82 1135.24 457.56 1095.84 562.90 1245.29 573.49
00004709 00000119 1024.18 116.19 465.77 605.59 1084.83 331.60 1277.89 344.68 1132.57 458.58 1095.91 562.42 1242.16 573.71
00004710 00000120 1022.46 115.98 467.43 606.46 1084.19 331.83 1276.18 346.08 1131.27 458.50 1094.15 561.24 1240.10 573.40
00004711 00000121 1022.21 115.27 467.29 608.14 1085.33 331.64 1277.15 347.50 1131.52 459.62 1094.16 560.60 1241.56 574.09
00004712 00000122 1024.09 118.66 464.70 604.60 1086.42 332.24 1277.78 349.06 1133.27 460.73 1095.46 561.50 1242.31 575.75
00004713 00000123 1024.54 119.95 464.68 602.69 1086.24 332.86 1277.91 349.58 1133.37 461.17 1095.50 562.45 1243.53 576.54
00004714 00000124 1024.72 119.98 465.13 603.22 1086.15 333.94 1278.11 350.30 1132.90 461.39 1095.71 562.85 1243.94 576.72
CROP_BBOX: 805 0 1771 870
