Video ID: 	T5eRf5HB9wI
H: 	1080
W: 	1920
FPS: 	30.0

FRAME INDEX X0 Y0 W H [Landmarks (5 Points)]

00010955 00000000 725.92 174.62 382.68 539.31 805.83 373.73 982.81 364.39 883.84 455.34 832.00 568.97 978.21 562.88
00010956 00000001 730.59 167.55 379.10 537.04 810.27 367.65 988.09 356.52 889.65 444.63 835.29 563.71 979.81 556.47
00010957 00000002 738.05 159.84 373.61 536.72 818.38 360.23 996.33 350.49 899.01 437.48 840.10 555.21 985.23 549.24
00010958 00000003 745.97 156.15 370.30 535.72 825.94 355.71 1003.41 344.66 905.50 431.19 846.25 549.58 993.26 542.73
00010959 00000004 751.44 153.36 371.36 542.77 834.79 352.02 1013.91 340.18 914.58 421.52 851.97 546.89 1005.37 539.00
00010960 00000005 755.78 147.12 375.52 559.90 842.71 348.01 1025.57 335.46 926.21 412.85 861.39 550.68 1016.33 541.96
00010961 00000006 760.66 142.40 378.17 564.72 853.35 345.20 1037.34 335.29 942.88 411.31 872.29 551.43 1025.70 544.65
00010962 00000007 766.71 150.76 385.75 551.54 868.66 340.68 1049.68 348.83 955.60 423.80 884.96 537.09 1034.19 543.87
00010963 DELETE   777.27 152.03 385.58 549.26 884.97 344.02 1064.42 354.64 976.21 427.96 896.55 536.33 1047.30 545.93
00010964 00000009 787.08 155.37 380.23 546.93 895.01 345.22 1078.10 358.00 987.54 427.67 902.59 539.78 1057.30 551.06
00010965 00000010 794.49 157.06 375.28 545.96 902.66 346.28 1087.53 363.13 993.44 429.57 905.22 541.97 1060.90 556.32
00010966 00000011 797.58 160.60 378.35 545.91 907.84 348.55 1090.70 367.45 998.41 437.19 909.21 545.33 1063.56 561.03
00010967 00000012 799.66 163.42 379.66 550.38 910.07 351.18 1094.77 372.34 1001.04 441.38 909.32 550.42 1067.88 568.40
00010968 00000013 800.50 164.96 380.78 555.29 910.72 354.98 1097.95 378.34 1001.43 447.90 908.13 556.86 1067.89 576.63
00010969 00000014 800.35 164.22 381.46 560.04 910.82 358.11 1098.02 381.84 1000.85 456.16 907.19 560.71 1067.68 580.66
00010970 00000015 801.60 166.73 380.33 555.35 912.52 360.15 1099.66 386.55 1000.08 459.52 906.41 561.67 1065.73 583.87
00010971 00000016 801.74 168.87 380.76 551.04 913.55 362.05 1099.04 388.68 999.90 461.03 907.83 562.29 1063.91 584.68
00010972 00000017 801.49 168.25 382.39 554.62 914.14 362.98 1100.07 389.56 1001.19 463.32 908.97 565.32 1063.61 587.76
00010973 00000018 801.70 168.07 382.34 555.58 913.96 363.19 1100.79 390.01 1001.10 465.62 908.70 567.13 1062.92 589.84
00010974 00000019 801.54 168.23 381.01 551.00 914.01 365.20 1099.67 392.29 1001.18 466.86 910.07 566.61 1062.85 589.34
00010975 00000020 801.36 167.47 380.90 552.54 913.78 366.12 1099.49 392.54 1002.01 467.60 911.21 567.88 1063.74 590.03
00010976 00000021 801.42 166.21 381.35 559.90 913.44 366.69 1101.06 391.50 1003.54 468.46 912.12 572.32 1066.45 593.24
00010977 00000022 801.23 164.93 382.20 564.28 913.39 365.85 1101.51 387.97 1005.50 467.19 915.01 574.75 1068.20 593.47
00010978 00000023 801.82 165.46 381.18 559.71 913.61 365.24 1100.90 386.80 1006.18 465.52 916.23 573.47 1067.72 591.80
00010979 00000024 801.11 166.96 382.29 554.42 912.73 364.49 1099.01 386.93 1004.21 463.71 915.51 568.90 1065.09 587.70
00010980 00000025 800.48 166.59 382.43 553.03 912.68 363.49 1097.69 387.17 1003.34 463.12 914.18 566.79 1061.26 586.65
00010981 00000026 798.76 168.06 382.03 552.19 910.38 364.36 1093.91 388.41 999.88 465.41 911.65 567.38 1057.87 587.64
00010982 00000027 796.89 167.25 381.64 553.97 907.62 366.28 1092.24 390.91 997.22 469.74 907.87 570.16 1056.51 590.75
00010983 00000028 791.45 167.97 383.54 555.71 902.08 366.83 1088.89 390.35 993.62 472.90 903.89 573.73 1053.67 593.13
00010984 00000029 787.72 169.04 381.19 556.97 896.89 368.33 1082.53 390.31 987.78 471.68 899.28 575.55 1047.63 593.74
00010985 00000030 779.57 171.42 385.75 558.51 889.89 369.80 1074.32 389.74 979.92 471.37 896.65 576.15 1041.02 592.69
00010986 00000031 772.66 171.04 387.07 557.39 881.28 369.76 1066.75 387.77 972.22 470.92 891.79 574.80 1036.05 589.79
00010987 00000032 765.78 172.04 385.71 554.66 872.11 369.54 1057.48 386.38 963.07 471.74 886.30 574.01 1028.58 588.12
00010988 00000033 761.24 172.29 384.11 552.65 865.56 372.72 1048.32 386.97 956.43 472.93 881.72 575.42 1022.63 587.49
00010989 00000034 760.06 167.19 377.67 554.26 862.89 377.33 1043.30 381.39 953.79 469.79 879.01 582.13 1023.35 586.55
00010990 00000035 755.89 170.33 375.59 548.98 856.00 378.11 1033.96 380.42 945.26 467.23 873.40 579.80 1018.86 582.84
00010991 00000036 751.79 172.41 374.97 545.57 850.37 379.22 1028.12 380.63 938.34 466.95 868.11 579.55 1013.30 582.30
00010992 00000037 747.77 168.94 374.25 546.87 843.81 378.23 1024.45 380.30 930.85 466.13 860.61 578.91 1009.91 582.31
00010993 00000038 742.81 165.94 374.99 550.29 837.54 377.18 1018.13 378.69 924.82 465.34 855.39 577.73 1005.20 579.90
00010994 00000039 737.24 168.66 377.77 549.25 832.75 377.71 1012.86 378.15 922.10 467.00 852.02 575.76 1003.07 576.67
00010995 00000040 734.04 170.31 378.62 548.56 828.22 377.78 1007.25 377.77 917.58 469.52 849.17 575.60 999.13 575.86
00010996 00000041 729.53 174.43 382.64 547.90 822.64 377.88 1001.08 376.66 912.29 470.58 845.93 577.39 994.87 576.50
00010997 00000042 727.06 175.92 383.05 551.49 819.03 377.40 997.92 375.80 909.16 471.42 844.80 581.02 992.67 579.83
00010998 00000043 725.15 178.21 382.63 554.24 816.02 378.43 994.04 373.95 907.06 469.36 845.20 585.20 990.83 581.64
00010999 00000044 724.42 178.58 381.14 549.66 813.72 379.21 992.96 375.20 903.42 466.38 842.85 585.12 987.22 582.08
00011000 00000045 722.90 181.51 381.24 534.69 812.38 377.89 990.31 375.43 900.74 464.43 840.24 576.66 981.77 574.96
00011001 00000046 722.31 180.90 380.34 530.83 810.98 378.01 987.25 375.06 897.45 459.99 838.51 572.29 978.71 570.33
00011002 00000047 721.20 180.09 379.00 527.41 808.31 376.19 985.40 372.26 893.72 457.36 835.34 569.80 975.94 567.20
00011003 00000048 721.04 178.64 376.15 524.03 806.43 374.17 983.81 369.59 890.27 456.28 831.72 568.53 972.47 565.60
00011004 00000049 719.55 178.24 378.24 525.72 804.75 373.89 981.40 369.78 887.83 455.58 829.41 565.25 971.76 562.70
00011005 00000050 719.00 177.84 379.68 530.39 804.02 373.34 981.50 370.09 887.92 455.77 827.47 565.42 972.17 563.49
00011006 00000051 719.82 178.57 380.49 536.65 804.65 372.23 981.78 367.93 889.72 454.79 830.80 567.90 975.06 565.03
00011007 00000052 720.29 178.98 380.28 534.15 807.10 373.03 983.77 367.52 892.91 452.40 834.43 568.01 977.68 564.08
00011008 00000053 721.83 179.59 380.10 530.79 810.41 373.58 987.05 366.46 896.83 448.46 837.21 566.21 981.38 560.83
00011009 00000054 725.18 175.48 380.70 533.91 814.37 369.94 992.78 363.50 900.17 442.83 838.97 562.52 987.14 557.36
00011010 00000055 729.15 168.96 379.49 540.09 818.69 366.13 998.41 360.30 905.77 440.53 841.35 560.85 992.28 556.04
00011011 00000056 734.17 165.59 374.70 539.47 825.42 363.97 1004.60 359.77 912.67 436.75 843.82 556.31 997.34 553.73
00011012 00000057 737.08 159.98 375.23 537.88 830.60 358.45 1011.17 354.97 919.53 432.55 848.29 551.51 1001.30 549.01
00011013 00000058 741.73 150.83 374.11 542.88 835.92 356.47 1020.74 352.63 928.36 426.52 850.90 548.87 1012.41 546.60
00011014 DELETE   747.47 146.35 370.81 546.85 843.98 354.85 1025.71 353.81 936.05 420.67 857.01 543.97 1018.79 544.33
00011015 00000060 754.84 144.03 367.06 546.09 850.14 352.38 1032.82 351.75 944.16 417.03 862.89 542.38 1024.20 544.11
00011016 00000061 760.63 138.99 371.58 547.75 859.58 347.23 1046.06 355.17 946.69 418.01 869.11 537.17 1031.01 544.77
00011017 00000062 766.10 134.29 373.04 552.22 864.66 342.97 1053.20 348.75 955.90 411.50 877.09 535.38 1039.87 541.48
00011018 00000063 761.67 122.71 387.83 569.29 872.18 330.46 1061.52 347.13 964.11 413.41 881.27 525.61 1042.00 539.43
00011019 00000064 769.11 117.87 388.36 581.36 883.52 330.59 1071.17 347.59 975.49 412.24 887.21 528.02 1050.12 542.05
00011020 00000065 778.70 120.43 385.27 581.26 893.91 331.24 1083.49 351.22 985.95 412.05 892.20 530.05 1058.59 546.74
00011021 00000066 786.42 144.85 379.66 554.85 897.21 334.91 1082.41 352.18 990.98 409.91 898.90 530.40 1057.23 546.22
00011022 00000067 790.15 148.52 374.01 542.35 900.42 338.02 1086.45 357.43 996.78 416.90 900.15 530.31 1059.84 548.89
00011023 00000068 791.89 151.63 373.43 534.72 902.39 340.01 1087.04 358.75 997.48 420.85 903.55 531.37 1059.82 548.89
00011024 00000069 791.06 153.63 375.37 535.39 901.50 343.22 1086.78 363.21 996.73 423.72 902.98 534.49 1060.84 552.84
00011025 00000070 791.35 155.02 377.60 544.32 901.40 345.43 1089.42 367.34 995.38 426.90 901.78 540.00 1060.37 559.20
00011026 00000071 793.09 157.23 378.29 550.11 902.58 347.08 1089.73 367.77 994.09 433.53 902.86 546.77 1058.44 564.12
00011027 00000072 793.64 159.31 378.16 548.62 902.40 349.53 1088.82 371.06 992.61 437.69 901.82 548.29 1057.26 566.32
00011028 00000073 793.04 162.30 378.46 544.61 901.25 350.18 1088.32 371.88 990.75 439.69 900.61 548.97 1055.40 567.10
00011029 00000074 791.51 163.35 379.68 543.31 900.05 351.11 1087.14 372.12 990.11 440.63 899.67 549.59 1054.46 567.06
00011030 00000075 790.64 163.63 379.54 540.22 898.81 351.71 1085.59 373.08 988.91 442.89 899.38 550.40 1051.82 568.05
00011031 00000076 788.74 164.22 380.29 538.57 897.24 352.32 1082.93 373.41 987.68 444.42 899.03 550.22 1050.68 567.65
00011032 00000077 786.90 164.14 381.59 537.93 895.63 352.79 1080.34 373.52 985.88 444.51 898.07 550.20 1048.65 567.29
00011033 00000078 785.32 165.89 382.69 537.97 894.27 353.36 1078.45 374.16 983.48 443.74 894.99 550.30 1046.72 567.51
00011034 00000079 784.85 165.04 382.79 542.25 892.95 351.85 1078.16 372.11 982.21 440.62 893.84 550.69 1046.63 567.55
00011035 00000080 783.85 164.64 383.50 544.11 891.93 350.50 1076.37 370.99 980.70 438.90 893.19 550.32 1044.30 567.33
00011036 00000081 781.32 164.62 383.99 539.39 890.96 349.53 1074.63 369.92 979.62 435.48 892.46 545.68 1042.56 562.47
00011037 00000082 777.46 159.66 386.29 542.05 888.20 347.92 1070.80 366.28 979.05 427.00 892.41 541.55 1043.01 556.72
00011038 00000083 776.62 153.98 384.16 549.80 887.52 343.68 1068.17 362.51 979.01 422.78 892.44 538.55 1043.50 554.50
00011039 00000084 778.19 153.50 380.37 554.63 887.83 341.61 1064.72 359.55 974.67 414.57 892.30 535.56 1043.54 551.18
00011040 00000085 779.29 153.67 378.60 558.67 886.85 337.19 1063.35 352.83 970.48 404.74 890.97 533.46 1044.00 547.50
00011041 00000086 779.14 145.97 378.79 566.34 888.30 332.18 1069.67 349.86 976.25 399.62 889.87 530.72 1049.39 547.19
00011042 00000087 775.38 124.58 385.96 580.66 889.92 332.40 1080.73 350.51 982.74 410.12 888.07 529.21 1057.95 544.33
00011043 00000088 777.45 142.62 383.30 552.39 889.17 338.19 1073.88 350.36 987.86 405.50 898.16 531.54 1055.26 543.42
00011044 00000089 777.19 146.05 384.34 545.69 887.49 345.83 1071.89 354.90 987.37 417.12 902.73 539.99 1052.31 548.31
00011045 00000090 776.61 150.85 384.52 543.79 886.66 351.59 1068.63 360.58 985.39 426.28 902.66 546.40 1048.38 554.12
00011046 00000091 773.54 157.65 387.36 540.14 884.86 357.25 1064.22 363.82 981.14 437.63 902.47 552.88 1043.41 558.25
00011047 00000092 769.30 155.82 390.33 545.29 880.41 358.55 1060.35 364.96 977.64 437.72 901.02 555.29 1039.44 560.48
00011048 00000093 766.26 157.81 387.08 542.37 872.92 356.51 1053.11 360.49 970.97 436.06 898.46 557.99 1032.40 561.05
00011049 00000094 763.49 161.32 384.39 537.63 867.02 355.98 1049.06 358.85 964.82 434.93 892.82 555.74 1027.21 558.00
00011050 00000095 760.03 157.51 381.96 542.59 862.06 356.63 1040.23 357.59 958.73 433.15 888.09 556.02 1021.20 557.13
00011051 00000096 759.68 147.09 376.77 551.07 853.79 360.31 1039.31 347.14 953.10 429.36 880.79 564.46 1032.52 554.17
00011052 00000097 754.02 145.44 378.87 554.85 846.93 362.21 1030.58 346.06 945.52 437.00 877.11 565.51 1027.96 552.29
00011053 00000098 751.29 147.30 377.90 557.91 841.04 367.09 1025.42 350.21 937.74 442.66 870.45 568.89 1024.66 555.35
00011054 00000099 748.44 147.92 377.84 561.13 835.94 372.40 1023.29 357.98 930.90 451.93 865.60 576.81 1018.83 565.57
00011055 00000100 745.00 152.00 382.64 569.17 833.53 378.60 1021.29 366.18 927.90 462.87 864.38 585.93 1018.56 576.08
00011056 00000101 740.81 158.24 383.96 563.45 831.65 382.56 1019.85 374.63 926.15 473.56 862.75 588.79 1015.72 581.92
00011057 00000102 738.35 163.87 383.03 555.41 829.49 386.34 1017.21 381.37 925.19 479.65 859.79 588.65 1013.29 584.27
00011058 00000103 736.20 170.72 385.45 551.85 829.55 389.78 1014.92 383.68 924.61 481.73 861.15 591.74 1011.13 586.45
00011059 00000104 735.16 172.21 385.55 555.43 829.48 391.61 1013.63 384.61 923.67 482.75 861.62 595.90 1008.30 590.06
00011060 00000105 734.78 172.93 385.51 560.94 828.52 392.74 1012.71 384.00 922.60 484.79 863.05 602.39 1007.03 595.33
00011061 00000106 734.50 173.26 386.07 562.49 829.15 391.21 1012.97 382.89 923.00 481.99 863.81 602.77 1006.05 596.02
00011062 00000107 735.56 171.23 385.88 562.86 829.32 389.41 1013.41 381.48 923.59 482.25 864.08 599.79 1007.23 593.42
00011063 00000108 736.50 170.67 385.23 561.82 830.17 386.97 1013.34 379.56 924.59 480.96 864.61 597.09 1006.59 591.41
00011064 00000109 738.44 169.14 382.89 558.54 831.96 385.95 1013.85 377.38 925.77 478.41 866.73 594.35 1008.04 587.68
00011065 00000110 739.39 163.61 381.19 560.42 832.04 383.05 1013.69 375.48 925.18 474.29 865.68 591.00 1007.14 585.22
00011066 00000111 741.39 160.04 379.69 557.89 833.23 381.14 1016.62 373.40 925.09 470.61 864.93 588.91 1007.84 583.03
00011067 00000112 744.20 159.56 376.79 556.35 837.71 383.15 1014.25 377.15 926.18 466.09 865.08 581.85 1008.06 577.47
00011068 00000113 746.10 157.79 376.27 555.29 838.50 381.19 1013.47 372.07 926.62 460.54 865.50 578.46 1008.06 571.92
00011069 00000114 747.32 154.21 375.32 556.60 838.14 377.11 1015.46 364.98 927.11 454.80 866.19 577.19 1008.89 568.17
00011070 00000115 746.74 151.99 375.37 559.67 837.52 369.48 1014.89 355.24 928.31 448.36 867.84 576.67 1006.32 566.09
00011071 00000116 748.20 152.79 376.18 563.91 840.75 364.86 1016.50 348.97 931.31 439.55 871.23 577.81 1005.60 566.47
00011072 00000117 750.14 153.87 375.69 566.49 844.13 362.45 1020.22 346.01 934.92 433.56 873.39 579.50 1006.63 567.81
00011073 00000118 751.83 157.71 374.87 565.17 847.32 361.96 1023.18 347.31 938.47 432.56 874.67 580.60 1008.01 570.48
00011074 00000119 753.34 155.87 375.51 568.91 850.07 362.45 1026.33 348.42 941.30 432.94 876.20 580.40 1011.30 570.61
00011075 00000120 756.78 153.98 375.74 564.79 853.94 362.35 1031.13 349.63 944.18 433.43 877.87 576.34 1015.07 567.26
00011076 00000121 760.07 149.94 373.47 558.24 856.21 359.56 1036.53 348.45 949.86 428.50 879.35 571.14 1020.61 563.38
00011077 00000122 764.81 148.18 370.11 546.73 858.85 355.08 1044.97 349.05 955.71 421.89 879.00 561.80 1026.96 558.40
00011078 00000123 766.72 143.26 366.44 539.15 859.70 350.01 1051.89 348.97 960.09 413.34 878.70 553.40 1033.38 554.10
00011079 00000124 758.63 144.42 376.34 532.45 864.82 354.90 1045.97 353.19 957.51 418.51 884.43 542.70 1024.14 540.54
00011080 00000125 758.52 133.01 379.54 536.84 865.85 343.70 1052.65 351.65 959.06 417.68 886.36 533.85 1032.16 540.64
00011081 00000126 759.18 131.70 380.71 542.15 866.86 343.29 1052.72 350.49 959.68 418.34 888.69 535.15 1033.47 541.28
00011082 00000127 758.31 137.59 382.59 544.60 867.22 345.30 1048.58 351.66 959.79 422.68 888.80 540.88 1031.02 546.59
00011083 00000128 763.06 153.42 377.51 543.13 867.93 349.60 1043.75 355.91 963.38 425.22 889.56 550.16 1019.50 555.79
00011084 00000129 765.97 157.65 378.47 560.71 867.02 352.77 1050.48 362.14 958.12 438.34 884.21 562.52 1024.37 571.07
00011085 00000130 768.04 159.19 381.44 571.53 865.52 358.70 1050.75 370.48 951.63 451.13 876.63 569.18 1023.06 579.93
00011086 00000131 770.93 162.77 380.77 565.31 867.11 364.51 1049.82 379.07 947.09 458.21 873.06 570.32 1020.49 583.42
00011087 00000132 768.35 167.53 384.84 559.74 866.68 368.46 1049.17 386.82 943.60 462.63 863.34 568.92 1017.20 585.06
00011088 00000133 768.87 169.49 384.39 557.58 867.20 369.48 1048.96 390.73 941.91 465.26 860.78 568.94 1013.06 587.38
00011089 00000134 770.19 172.45 384.55 553.13 867.76 370.33 1049.20 392.11 941.07 467.64 860.01 569.66 1010.99 588.47
00011090 00000135 771.19 173.06 385.04 553.16 867.92 371.00 1049.86 392.63 941.07 469.61 861.57 570.72 1011.54 589.39
00011091 00000136 771.46 172.76 385.43 553.73 868.13 371.73 1050.55 392.81 941.85 470.49 862.98 572.16 1012.91 590.36
00011092 00000137 772.25 171.74 385.61 557.45 868.25 370.98 1052.37 391.16 943.04 469.46 865.08 573.65 1016.33 591.14
00011093 00000138 771.75 170.27 385.81 562.49 868.09 369.18 1053.89 388.21 945.19 467.30 867.86 575.48 1019.26 592.16
00011094 00000139 771.44 169.40 385.64 564.03 868.62 367.51 1054.72 386.31 947.03 465.61 869.30 575.63 1020.34 592.14
00011095 00000140 770.73 170.24 385.67 555.69 868.28 367.67 1053.38 386.85 947.67 465.29 868.90 571.64 1020.37 588.17
00011096 00000141 770.18 174.01 385.00 543.55 867.09 367.30 1050.58 384.77 947.72 464.33 870.84 567.06 1017.16 581.89
00011097 00000142 768.23 174.65 385.37 541.89 865.87 368.39 1048.23 385.41 947.19 463.80 870.09 566.10 1015.24 580.55
00011098 00000143 766.76 174.30 385.35 542.95 864.61 371.72 1045.41 387.70 946.47 467.72 870.91 569.89 1011.93 583.58
00011099 00000144 764.95 176.69 385.64 541.32 862.78 373.88 1043.07 390.55 944.08 474.92 867.25 571.61 1008.92 585.86
00011100 00000145 764.81 178.47 384.56 540.42 860.96 375.88 1041.52 392.83 941.17 478.24 864.75 573.04 1006.79 587.59
00011101 00000146 764.88 180.82 382.74 540.15 859.80 377.62 1041.76 394.51 939.45 478.70 861.91 575.33 1007.06 589.96
00011102 00000147 764.31 180.50 383.22 544.60 859.95 379.32 1042.02 395.88 940.38 478.91 863.59 578.67 1008.15 593.11
00011103 00000148 763.38 180.09 383.09 546.84 860.14 380.74 1038.48 396.07 942.41 477.43 868.08 580.17 1006.23 593.75
00011104 00000149 762.95 182.10 381.59 542.00 862.37 382.30 1034.83 395.72 943.11 470.51 874.02 577.77 1004.93 589.94
00011105 DELETE   763.53 182.35 379.86 541.32 864.33 375.64 1036.21 387.75 945.15 459.75 876.91 573.16 1007.00 584.38
00011106 DELETE   763.00 171.95 376.47 544.81 863.68 370.99 1034.45 380.75 947.01 445.12 879.07 567.20 1007.28 576.18
00011107 DELETE   766.47 164.24 369.96 542.86 863.48 362.83 1037.65 360.64 950.57 433.97 878.63 565.95 1017.18 565.80
00011108 00000153 764.68 161.32 365.49 533.26 861.22 355.80 1036.29 352.66 952.48 421.58 876.67 555.88 1017.57 554.99
00011109 00000154 762.57 155.16 363.19 525.71 856.30 353.07 1035.58 349.89 950.93 415.45 874.37 547.35 1022.48 546.09
00011110 00000155 759.60 153.70 363.67 522.73 851.92 352.36 1032.06 347.99 945.78 412.87 870.31 544.75 1020.08 541.90
00011111 00000156 755.66 152.79 365.60 522.13 848.11 352.49 1028.10 347.79 941.77 413.23 866.55 542.73 1017.43 539.61
00011112 00000157 752.73 154.51 366.36 525.62 845.88 354.57 1025.80 348.34 938.16 414.36 862.45 543.88 1016.33 539.77
00011113 00000158 750.21 153.68 367.65 530.01 843.03 355.06 1022.98 346.45 935.25 414.05 861.13 545.37 1016.18 539.20
00011114 00000159 746.22 154.97 371.60 538.00 840.73 353.87 1019.58 340.80 933.39 411.95 861.93 549.44 1012.85 540.11
00011115 00000160 743.76 156.58 371.74 544.43 838.44 350.66 1016.10 336.84 930.63 402.91 858.14 548.60 1010.70 539.23
00011116 00000161 743.62 154.56 369.94 543.56 836.33 347.86 1016.50 333.58 928.80 397.71 857.06 546.99 1010.86 537.48
00011117 00000162 742.25 153.35 369.55 537.85 835.33 346.61 1017.09 334.32 928.20 396.23 855.64 543.33 1010.99 535.17
00011118 00000163 741.77 153.80 369.72 530.75 834.97 344.94 1015.64 332.49 925.80 395.61 855.09 539.66 1007.21 531.37
00011119 00000164 742.73 154.75 368.33 530.33 835.16 342.00 1015.78 329.23 926.64 392.66 855.75 538.18 1007.58 529.66
00011120 00000165 744.15 154.51 366.98 536.20 836.43 339.26 1017.40 327.29 928.17 389.86 854.46 537.99 1008.81 530.62
00011121 00000166 745.45 153.63 365.82 537.22 837.69 336.69 1018.07 325.86 928.84 388.43 854.78 536.90 1008.25 530.50
00011122 00000167 743.77 150.82 367.25 527.42 837.15 336.28 1019.28 328.60 928.08 389.17 855.01 531.30 1009.27 526.61
