Video ID: 	FDA76ZH1yDI
H: 	1080
W: 	1920
FPS: 	29.97002997002997

FRAME INDEX X0 Y0 W H [Landmarks (5 Points)]

00008156 00000000 937.50 252.78 394.34 539.53 1063.09 451.32 1232.48 501.38 1129.46 554.43 1032.26 639.00 1177.74 681.46
00008157 DELETE   937.03 248.35 393.85 542.13 1061.79 446.75 1235.52 497.23 1130.79 550.24 1029.48 640.65 1175.85 683.40
00008158 00000002 936.51 247.12 392.11 533.56 1059.13 446.22 1234.10 493.52 1130.52 542.55 1030.69 636.95 1178.50 676.49
00008159 00000003 936.55 247.10 392.10 533.62 1059.17 446.18 1234.13 493.52 1130.54 542.50 1030.70 636.93 1178.47 676.52
00008160 DELETE   937.25 243.88 388.23 527.58 1055.23 440.59 1232.44 485.81 1127.20 532.67 1029.43 630.74 1178.86 668.38
00008161 00000005 937.16 237.91 386.70 525.02 1055.53 428.80 1233.90 471.41 1126.86 527.44 1026.40 621.15 1175.48 656.36
00008162 00000006 934.15 235.44 386.31 518.17 1050.93 421.62 1231.56 461.12 1124.65 520.78 1024.45 614.97 1171.89 647.01
00008163 00000007 930.37 229.66 388.68 517.36 1048.69 412.88 1226.98 449.83 1125.94 513.76 1023.14 610.15 1164.02 640.57
00008164 00000008 930.28 229.65 388.77 517.70 1048.65 412.92 1227.01 449.85 1126.05 513.76 1023.28 610.21 1163.96 640.62
00008165 00000009 924.41 222.72 389.82 520.60 1045.63 404.89 1222.74 440.50 1129.41 500.89 1021.96 602.58 1164.17 632.67
00008166 00000010 913.93 205.65 391.19 530.98 1039.60 407.01 1220.72 440.86 1123.12 489.45 1021.77 597.51 1163.56 625.34
00008167 00000011 910.27 199.34 389.76 528.55 1032.63 406.03 1213.95 435.72 1117.73 482.50 1020.60 592.22 1165.22 616.27
00008168 DELETE   905.80 198.01 384.52 524.59 1027.34 398.13 1208.00 423.99 1115.95 477.12 1017.26 588.23 1163.32 609.08
00008169 00000013 905.68 197.55 384.52 523.79 1027.58 397.73 1208.08 423.58 1116.07 477.46 1017.51 588.42 1163.13 609.28
00008170 00000014 900.52 192.29 382.00 517.13 1012.81 392.51 1199.04 414.41 1106.93 468.05 1014.98 583.87 1165.08 603.25
00008171 00000015 896.91 190.49 379.74 514.83 1009.58 386.53 1192.32 407.91 1102.74 461.26 1009.24 579.88 1156.84 598.69
00008172 00000016 891.04 184.77 377.75 517.44 1004.04 380.19 1181.93 401.15 1095.83 452.53 999.64 572.05 1145.48 590.75
00008173 00000017 885.61 183.67 379.61 519.08 997.81 373.61 1174.43 395.46 1087.47 449.26 992.76 566.19 1138.19 585.46
00008174 00000018 885.65 183.54 379.66 519.13 997.84 373.65 1174.50 395.51 1087.45 449.36 992.86 566.34 1138.32 585.59
00008175 00000019 882.42 184.26 377.39 510.78 990.35 368.94 1166.24 390.91 1075.65 442.75 983.28 557.03 1130.56 576.33
00008176 00000020 878.15 183.72 376.14 508.01 985.24 363.99 1161.21 387.04 1066.50 435.12 976.76 552.63 1122.73 572.62
00008177 00000021 870.74 182.31 376.14 503.04 977.32 361.67 1154.91 380.95 1060.84 420.59 970.73 548.08 1117.65 564.90
00008178 00000022 863.99 182.44 377.26 497.61 970.18 360.15 1145.24 377.64 1049.98 417.51 962.91 542.12 1111.34 557.12
00008179 DELETE   863.85 182.48 377.48 497.66 970.14 360.30 1145.27 377.68 1050.02 417.34 962.85 542.22 1111.32 557.11
00008180 00000024 858.50 182.12 379.16 502.11 963.81 357.52 1136.70 374.61 1040.47 413.36 955.64 538.94 1102.66 553.89
00008181 00000025 854.55 180.74 377.71 512.73 957.73 352.28 1130.34 370.25 1032.96 413.42 950.20 539.37 1093.00 555.41
00008182 00000026 849.78 179.29 376.75 507.75 952.29 352.04 1123.66 371.64 1026.15 413.37 944.22 536.03 1086.76 552.99
00008183 00000027 839.80 175.54 379.15 502.56 945.03 352.97 1119.62 372.90 1024.18 409.33 938.27 535.32 1083.76 551.81
00008184 00000028 839.74 175.41 379.16 502.73 944.94 352.91 1119.64 372.84 1024.27 409.44 938.18 535.24 1083.74 551.73
00008185 00000029 834.86 172.17 379.85 498.61 939.62 352.31 1117.01 373.38 1022.48 409.74 932.41 532.79 1080.14 549.98
00008186 00000030 832.87 170.88 372.70 493.39 931.45 345.97 1117.33 364.11 1014.57 403.95 928.38 532.33 1080.49 548.64
00008187 00000031 829.50 171.30 373.35 500.02 928.43 347.89 1114.81 365.49 1011.76 405.44 923.15 534.07 1078.88 549.96
00008188 00000032 826.94 173.67 372.08 505.48 927.03 350.20 1109.94 363.84 1008.82 407.42 922.46 539.05 1075.80 551.65
00008189 00000033 827.17 173.63 371.65 506.53 927.19 350.26 1109.93 363.60 1009.06 407.13 922.34 539.49 1075.77 551.91
00008190 00000034 825.24 175.66 371.27 512.47 927.34 353.38 1106.10 365.48 1006.54 411.97 920.55 544.46 1070.44 555.91
00008191 00000035 822.91 176.07 372.85 510.55 924.82 355.18 1104.10 366.35 1003.48 415.67 918.54 545.24 1069.59 555.75
00008192 00000036 821.03 176.31 373.21 507.35 923.63 354.36 1102.49 368.07 1002.69 418.39 917.58 543.78 1067.87 556.27
00008193 00000037 821.12 183.51 371.34 503.03 924.52 358.61 1098.17 373.25 1000.23 420.11 915.04 538.31 1066.71 551.71
00008194 00000038 821.40 183.19 370.87 503.12 924.46 358.08 1098.05 373.51 999.70 420.58 914.49 537.93 1066.08 552.09
00008195 00000039 820.88 185.93 371.71 500.74 926.43 358.73 1096.65 376.68 1001.10 422.58 915.65 533.11 1067.30 549.14
00008196 00000040 823.24 187.62 369.05 501.90 929.45 358.48 1096.36 377.91 1002.46 426.07 915.74 531.79 1066.72 549.56
00008197 00000041 824.02 188.79 368.79 502.94 929.67 359.59 1096.95 379.09 1003.90 428.77 917.34 533.40 1069.32 550.94
00008198 00000042 825.28 187.50 368.74 502.95 931.60 359.52 1100.06 379.78 1007.26 429.25 919.11 535.22 1070.25 553.42
00008199 00000043 825.18 187.46 368.97 503.12 931.60 359.56 1100.05 379.75 1007.20 429.22 919.07 535.25 1070.23 553.41
00008200 00000044 826.91 187.00 369.99 508.88 933.64 359.70 1103.42 379.16 1009.31 429.33 920.40 539.52 1071.46 557.08
00008201 00000045 827.20 181.00 372.84 519.22 936.55 364.59 1110.79 382.06 1017.51 437.46 928.04 553.37 1076.06 568.80
00008202 00000046 829.86 181.58 371.87 515.67 937.43 368.89 1117.27 387.70 1022.78 442.97 934.15 561.99 1082.66 578.57
00008203 00000047 833.13 180.95 371.45 516.74 937.64 371.71 1120.95 390.08 1023.90 448.86 938.10 568.51 1086.27 584.67
00008204 00000048 833.01 181.13 371.62 516.95 937.67 371.63 1120.91 390.02 1024.08 448.64 938.15 568.52 1086.26 584.71
00008205 00000049 833.51 181.86 372.52 521.19 936.70 380.85 1122.74 396.39 1026.88 456.70 941.82 576.82 1093.49 590.75
00008206 00000050 833.22 183.68 377.17 530.08 937.87 389.90 1123.24 405.01 1028.14 467.54 944.91 583.53 1098.31 597.11
00008207 00000051 835.20 193.51 377.27 531.17 940.26 398.38 1126.11 411.98 1032.28 478.72 946.71 590.71 1102.56 603.40
00008208 00000052 837.11 194.80 379.23 540.05 940.43 408.78 1125.77 422.76 1027.26 491.88 946.34 600.34 1100.33 613.22
00008209 DELETE   837.52 195.97 378.43 541.44 941.56 408.64 1126.41 423.57 1028.35 491.55 946.14 600.37 1100.32 614.18
00008210 00000054 834.45 198.43 385.91 549.94 945.83 411.98 1126.86 436.56 1028.51 505.95 944.96 605.17 1092.28 625.60
00008211 00000055 836.93 204.17 385.35 552.08 946.27 421.70 1126.85 443.80 1028.73 517.25 946.51 614.02 1092.89 632.40
00008212 00000056 838.34 207.32 385.33 553.53 946.29 427.40 1127.60 448.19 1028.49 522.03 946.15 620.80 1092.59 638.23
00008213 00000057 841.42 210.94 383.62 551.39 948.59 431.04 1128.90 450.76 1030.08 524.13 947.67 623.30 1092.66 639.90
00008214 00000058 841.56 212.37 382.94 549.52 948.75 430.74 1128.80 450.46 1029.83 524.22 947.53 622.96 1092.44 639.63
00008215 00000059 842.92 211.56 383.35 549.12 948.42 432.82 1129.91 450.70 1029.38 525.17 948.89 622.34 1096.36 637.27
00008216 00000060 844.72 210.72 383.79 548.95 948.72 433.32 1130.03 451.10 1028.36 524.62 949.54 621.73 1096.93 636.65
00008217 00000061 845.05 208.72 384.34 552.30 949.55 433.58 1131.81 450.91 1029.31 524.10 950.03 621.93 1098.88 636.47
00008218 00000062 845.17 207.22 384.82 550.16 950.81 434.76 1128.95 452.49 1029.96 525.27 953.74 623.10 1093.84 638.31
00008219 00000063 845.07 207.13 384.78 550.33 950.84 434.74 1129.06 452.61 1030.02 525.24 953.60 623.04 1093.76 638.36
00008220 00000064 847.30 211.45 381.11 539.08 949.49 437.27 1129.54 453.60 1028.46 526.47 953.64 622.90 1095.25 637.10
00008221 00000065 849.15 212.46 381.35 540.50 949.04 439.28 1130.48 453.93 1027.23 527.98 952.35 623.94 1097.28 636.84
00008222 00000066 850.26 214.58 380.67 538.55 949.78 440.06 1131.98 454.42 1028.59 529.53 954.12 626.79 1098.80 639.36
00008223 00000067 856.24 223.59 374.37 542.72 951.43 443.75 1126.10 459.61 1030.00 533.00 948.74 630.64 1102.84 643.96
00008224 00000068 856.29 223.72 374.31 542.53 951.43 443.75 1126.08 459.61 1029.99 532.98 948.74 630.59 1102.85 643.91
00008225 00000069 856.28 224.30 376.10 541.97 953.03 445.56 1127.22 461.72 1032.58 535.23 950.15 630.70 1104.18 644.25
00008226 00000070 858.43 224.94 376.61 543.99 955.16 445.70 1129.34 462.17 1033.71 534.67 953.15 631.26 1106.08 645.02
00008227 00000071 860.15 225.81 376.72 543.13 957.27 447.33 1132.06 463.33 1037.17 536.17 955.00 632.71 1109.43 646.17
00008228 00000072 862.50 226.55 376.00 541.64 959.00 447.49 1133.58 462.75 1039.32 536.49 957.23 632.65 1111.81 645.48
00008229 00000073 862.56 226.62 375.92 541.52 958.99 447.51 1133.59 462.75 1039.31 536.50 957.24 632.63 1111.88 645.45
00008230 00000074 864.03 226.22 376.10 542.08 960.07 448.26 1134.43 463.13 1040.04 537.21 959.08 632.57 1114.53 645.00
00008231 00000075 865.50 225.51 375.81 547.28 961.60 447.42 1136.48 463.35 1040.38 537.55 958.91 633.07 1115.63 646.49
00008232 00000076 867.60 226.67 373.65 557.23 965.15 447.10 1139.72 465.66 1042.26 536.23 960.04 637.48 1115.13 653.51
00008233 00000077 868.96 224.17 374.53 568.39 967.75 448.43 1142.29 468.88 1043.26 540.54 961.52 648.15 1109.69 665.96
00008234 00000078 868.90 224.13 374.19 568.68 968.01 448.20 1142.50 468.95 1043.92 540.30 961.94 647.45 1110.53 665.48
00008235 00000079 867.91 228.26 375.94 560.88 967.76 451.12 1142.54 470.86 1044.26 543.89 960.99 646.34 1110.46 663.50
00008236 00000080 866.90 228.84 378.66 560.33 965.64 453.43 1141.01 472.69 1044.04 544.23 960.11 644.07 1114.55 660.56
00008237 00000081 862.14 222.75 386.47 557.32 965.62 451.34 1144.21 469.11 1038.75 547.41 960.13 635.36 1110.93 651.64
00008238 00000082 862.06 222.55 387.67 553.83 967.14 449.52 1146.61 468.15 1041.44 546.87 963.05 635.52 1111.52 652.36
00008239 00000083 862.19 222.79 387.65 553.31 966.77 449.55 1146.20 468.65 1040.52 547.15 962.08 634.70 1111.17 651.90
00008240 00000084 864.79 224.01 386.61 549.12 970.08 448.72 1149.24 468.27 1044.76 546.73 965.44 634.96 1112.46 652.64
00008241 00000085 866.43 223.67 385.08 548.69 972.55 449.14 1150.69 467.28 1048.89 545.60 969.02 635.83 1115.12 652.24
00008242 00000086 867.51 223.79 383.94 549.91 976.27 446.05 1152.42 466.06 1053.85 544.67 973.06 637.48 1114.52 655.73
00008243 00000087 869.97 224.04 381.09 548.19 978.52 445.61 1153.36 465.20 1055.06 543.98 976.94 639.76 1113.94 657.91
00008244 00000088 869.98 223.95 381.03 548.20 978.51 445.60 1153.34 465.17 1055.08 543.75 976.80 639.54 1113.96 657.70
00008245 00000089 874.62 226.91 376.27 548.40 977.89 446.75 1151.49 467.79 1056.23 542.03 973.15 647.00 1111.74 664.96
00008246 00000090 875.21 227.06 375.90 551.37 978.83 446.46 1152.02 467.94 1056.16 542.36 973.39 648.53 1111.00 666.93
00008247 00000091 874.99 227.59 375.50 553.00 978.93 446.58 1151.27 468.24 1055.19 542.20 972.76 649.40 1109.26 668.15
00008248 00000092 874.52 228.09 375.12 552.88 978.20 446.75 1149.88 468.41 1054.36 541.68 972.11 650.25 1107.62 669.08
00008249 00000093 874.41 228.03 375.38 553.04 978.22 446.86 1149.98 468.55 1054.41 541.60 972.15 650.41 1107.46 669.24
00008250 00000094 872.35 226.72 376.64 555.47 976.38 446.84 1149.37 468.99 1053.50 542.42 969.87 650.57 1107.36 669.63
00008251 00000095 871.47 226.72 376.92 554.98 976.91 446.97 1148.79 470.01 1053.99 543.12 969.34 650.61 1105.13 670.35
00008252 00000096 871.65 228.17 375.56 554.82 976.45 448.04 1147.19 470.20 1051.97 544.49 969.66 654.43 1102.01 673.74
00008253 00000097 870.99 227.39 374.92 570.79 975.35 450.03 1145.78 470.74 1051.51 542.73 971.37 661.33 1099.60 679.86
00008254 00000098 871.07 227.25 374.53 570.98 975.35 449.93 1145.66 470.29 1051.49 542.72 972.12 661.35 1100.50 679.54
00008255 00000099 870.47 227.83 375.11 575.81 976.16 450.22 1145.17 470.29 1051.80 541.99 972.06 662.79 1098.65 680.99
00008256 00000100 870.65 228.34 374.52 572.29 976.22 450.43 1144.90 470.79 1051.85 541.74 972.17 662.23 1097.79 680.72
00008257 00000101 870.61 228.96 376.17 566.92 975.91 450.69 1144.94 471.30 1051.10 542.50 971.91 659.54 1099.61 677.95
00008258 00000102 871.02 230.11 376.11 561.81 976.04 452.12 1145.50 472.31 1052.26 544.02 971.97 657.83 1103.54 675.75
00008259 00000103 870.77 229.65 376.39 563.17 976.58 451.98 1146.02 472.38 1053.47 544.06 972.73 658.46 1103.48 676.61
00008260 00000104 871.79 230.10 375.28 554.76 974.71 453.57 1147.05 473.85 1052.92 546.76 970.11 651.65 1111.95 669.21
00008261 00000105 870.75 229.96 378.20 549.79 971.95 452.51 1148.80 474.20 1052.01 546.70 965.77 644.09 1119.14 662.37
00008262 00000106 868.73 231.60 378.56 548.17 970.81 452.51 1148.06 474.50 1051.32 546.51 963.89 641.39 1120.34 659.96
00008263 00000107 869.08 232.00 377.49 551.85 969.82 453.43 1147.26 475.02 1049.99 547.75 964.05 643.42 1121.65 661.66
00008264 00000108 868.87 232.13 377.62 551.83 969.56 453.60 1147.06 474.96 1049.88 547.65 963.83 643.39 1121.77 661.46
00008265 00000109 867.41 233.05 378.76 545.46 969.70 454.78 1147.09 476.48 1051.15 549.52 964.91 646.41 1117.11 664.59
00008266 00000110 863.47 230.64 384.37 544.47 969.17 457.55 1149.40 474.34 1047.61 553.10 965.62 638.42 1117.60 653.44
00008267 00000111 862.31 230.82 385.30 542.72 968.74 458.70 1148.97 475.34 1047.82 553.91 965.52 638.63 1117.22 653.48
00008268 00000112 862.03 230.95 383.96 542.39 968.50 458.92 1147.56 475.46 1047.01 553.61 965.10 638.91 1115.20 653.80
00008269 00000113 861.76 231.00 384.40 542.81 968.45 459.05 1147.56 475.53 1046.93 553.31 964.79 638.69 1115.29 653.46
00008270 00000114 863.30 233.16 380.48 546.12 966.91 456.54 1143.39 477.40 1050.07 549.37 963.16 646.18 1115.71 663.58
00008271 00000115 862.18 232.63 380.39 552.15 967.45 455.22 1142.85 476.40 1049.76 549.85 962.24 649.03 1112.41 666.92
00008272 00000116 862.65 232.41 378.13 552.23 967.77 454.68 1142.94 476.68 1048.92 549.97 960.72 650.23 1110.03 669.07
00008273 00000117 863.25 231.94 377.80 552.97 967.55 455.05 1142.98 477.40 1048.27 550.23 960.63 651.34 1109.22 670.44
00008274 00000118 863.34 232.01 377.85 552.92 967.93 455.13 1142.81 477.19 1048.44 549.69 960.96 651.28 1109.37 670.10
00008275 00000119 863.28 232.70 377.58 549.25 967.24 455.74 1142.83 477.95 1048.48 549.70 960.82 649.96 1110.06 668.96
00008276 00000120 863.23 232.42 377.03 547.71 966.73 455.94 1142.94 478.29 1048.46 550.15 960.41 649.37 1110.72 668.45
00008277 00000121 862.96 231.89 377.60 549.37 966.36 455.83 1143.46 478.23 1048.59 550.65 960.44 650.91 1110.85 669.98
00008278 00000122 863.19 231.75 377.26 550.96 966.25 455.57 1143.60 478.62 1048.33 550.34 959.89 649.97 1111.97 669.54
00008279 00000123 862.47 231.40 378.04 550.93 966.19 455.40 1143.70 478.56 1048.64 551.01 960.03 650.69 1111.29 670.32
00008280 00000124 862.76 231.46 377.85 549.82 966.21 455.48 1144.20 478.77 1048.80 551.62 960.43 651.83 1110.94 671.47
00008281 00000125 862.11 230.65 378.13 551.16 966.33 455.69 1145.54 479.85 1049.93 552.21 960.29 653.62 1110.69 674.02
00008282 00000126 861.58 229.55 377.61 550.93 966.63 456.60 1144.67 481.64 1050.26 553.23 959.17 658.29 1107.03 679.41
00008283 00000127 861.22 230.64 376.53 554.56 967.93 458.67 1141.83 482.94 1050.42 552.48 962.60 665.13 1100.77 685.97
00008284 00000128 861.07 230.78 376.78 555.13 967.98 458.39 1142.07 482.76 1050.63 552.17 962.41 665.24 1100.56 686.16
00008285 00000129 859.94 230.26 377.87 563.86 967.19 459.36 1140.77 482.45 1049.25 549.85 963.20 668.82 1098.90 688.68
00008286 00000130 861.26 231.65 377.21 560.74 969.10 460.79 1142.01 483.67 1051.39 550.84 965.24 670.05 1099.22 689.74
00008287 00000131 861.09 231.44 378.78 564.08 969.40 460.77 1144.37 484.00 1052.81 551.00 966.49 670.46 1102.58 690.62
00008288 00000132 863.14 231.69 379.47 560.26 970.80 461.71 1148.42 486.24 1055.30 553.74 966.64 668.33 1108.68 689.26
00008289 00000133 863.16 231.67 379.72 560.29 970.75 461.64 1148.47 486.12 1055.21 553.59 966.53 668.38 1108.63 689.26
00008290 00000134 864.28 233.21 379.73 557.67 970.54 462.37 1152.87 488.01 1057.53 556.14 965.09 660.37 1118.74 682.04
00008291 00000135 865.29 235.93 380.43 550.41 970.43 461.80 1153.57 487.33 1056.92 556.25 964.18 652.62 1124.69 673.97
00008292 00000136 865.27 236.14 381.71 550.28 969.83 462.59 1155.49 488.68 1057.23 557.12 965.46 651.69 1128.59 673.18
00008293 00000137 864.85 238.12 383.95 544.78 971.27 467.20 1154.52 483.68 1053.55 563.83 964.17 649.09 1119.86 664.01
00008294 00000138 865.67 235.76 381.34 546.58 969.40 463.75 1153.59 488.86 1056.36 559.36 965.80 653.38 1125.67 674.19
00008295 00000139 866.71 236.27 380.63 545.33 970.58 465.26 1152.43 489.85 1056.29 561.36 967.00 657.65 1122.08 678.20
00008296 00000140 866.35 237.51 379.98 541.06 971.61 466.67 1151.07 490.96 1056.94 563.36 967.57 660.17 1117.98 680.69
00008297 00000141 866.21 240.86 382.39 538.70 973.58 467.44 1153.20 483.79 1055.34 566.08 969.53 655.90 1112.22 671.52
00008298 00000142 865.39 241.66 383.39 534.47 974.20 469.82 1152.87 485.95 1056.11 567.54 971.81 656.45 1111.49 671.79
00008299 00000143 864.93 241.26 383.87 535.69 974.55 469.49 1152.97 485.77 1056.89 567.55 971.38 656.82 1110.72 672.39
00008300 00000144 865.40 243.46 383.93 532.56 976.66 473.20 1154.33 490.86 1059.55 569.08 972.45 657.71 1110.75 674.27
00008301 00000145 866.60 243.68 385.09 537.34 977.96 476.85 1156.92 493.05 1061.96 570.92 973.96 659.45 1116.83 674.47
00008302 00000146 868.66 243.48 384.22 538.97 980.38 480.13 1160.39 496.40 1066.61 574.00 977.40 660.34 1123.97 674.72
00008303 00000147 872.21 241.91 383.93 540.68 983.51 480.78 1162.58 501.70 1076.20 570.85 991.19 665.53 1134.75 682.16
CROP_BBOX: 585 0 1545 993
