Video ID: 	a7S0fJRcWzQ
H: 	1080
W: 	1920
FPS: 	23.97442727757059

FRAME INDEX X0 Y0 W H [Landmarks (5 Points)]

00002074 00000000 811.37 147.36 361.67 535.17 850.68 348.26 1000.72 349.28 872.93 442.98 863.37 564.06 959.22 565.08
00002075 00000001 814.31 159.10 362.40 523.94 855.28 352.71 1005.56 352.50 882.23 443.70 869.25 565.47 966.36 564.61
00002076 00000002 822.36 156.57 351.68 534.22 859.19 355.12 1004.40 351.67 890.81 446.92 874.26 566.68 976.37 567.48
00002077 00000003 815.95 149.02 367.19 558.72 859.64 356.24 1019.79 350.50 894.45 450.04 878.92 581.86 985.97 580.57
00002078 00000004 819.38 156.83 369.95 549.57 865.11 362.77 1021.51 357.44 898.86 454.29 885.68 581.98 991.40 580.65
00002079 00000005 822.29 154.51 371.62 545.57 867.71 365.75 1024.55 358.72 899.91 452.58 888.78 579.53 995.15 576.21
00002080 00000006 828.64 157.69 372.55 533.72 864.70 367.95 1026.80 359.87 896.31 459.69 884.55 579.79 1000.48 575.41
00002081 00000007 833.94 160.00 373.51 528.40 866.78 369.91 1027.23 360.52 894.16 459.32 884.94 576.19 1004.44 570.74
00002082 00000008 840.08 168.28 371.63 533.22 877.70 375.03 1030.95 371.49 908.48 466.33 893.12 578.48 1003.20 574.64
00002083 00000009 843.63 167.35 368.11 542.20 880.56 377.00 1032.30 373.47 912.55 467.63 896.69 585.66 1002.99 582.03
00002084 00000010 842.02 166.53 370.14 537.59 879.25 380.10 1032.79 377.84 913.43 470.80 895.90 583.60 1004.41 580.86
00002085 00000011 842.00 165.54 369.72 530.01 878.75 383.16 1031.27 381.35 913.52 474.22 895.69 578.98 1005.80 576.61
00002086 00000012 843.11 169.58 364.39 517.90 878.28 382.65 1030.02 381.47 913.04 472.02 893.07 572.57 1004.19 570.72
00002087 00000013 835.82 160.87 369.43 528.83 868.45 375.86 1024.61 367.81 894.93 464.93 885.78 573.52 1004.71 569.19
00002088 00000014 834.03 161.62 369.19 530.66 865.23 375.89 1022.55 365.97 893.02 462.76 883.12 574.45 1005.20 568.77
00002089 00000015 830.62 164.97 373.44 534.74 864.25 375.31 1024.26 363.88 895.72 460.50 887.31 579.53 1006.82 572.29
00002090 00000016 830.43 168.08 373.02 540.26 866.13 373.76 1024.31 362.69 897.04 458.86 890.21 584.10 1005.29 577.77
00002091 00000017 831.92 161.12 367.12 559.86 864.19 374.83 1020.95 366.72 889.67 463.71 886.30 590.97 1003.43 587.47
00002092 DELETE   833.80 155.42 352.01 575.51 860.80 372.49 1014.05 369.00 878.87 467.82 882.84 598.37 994.84 597.49
00002093 DELETE   442.15 73.47 261.81 349.15
00002094 00000020 825.54 159.51 346.92 598.55 863.74 381.86 990.02 375.16 865.94 475.72 887.01 614.07 988.71 609.00
00002095 00000021 821.59 161.58 354.74 599.33 860.02 384.36 992.42 373.82 869.39 480.64 888.22 617.25 996.20 608.86
00002096 00000022 819.23 159.93 358.26 600.21 857.06 384.94 995.15 371.03 872.73 478.90 888.21 617.09 1002.32 605.65
00002097 00000023 814.30 159.81 363.40 581.96 855.32 382.10 994.95 372.87 878.14 473.50 882.44 603.00 997.48 597.19
00002098 00000024 810.87 168.07 372.96 544.94 845.12 380.79 1001.22 370.81 874.11 469.48 869.28 589.76 984.40 580.29
00002099 00000025 795.92 151.14 384.93 551.68 829.92 380.59 986.58 366.76 861.85 470.62 848.73 584.58 973.35 574.44
00002100 00000026 790.44 149.95 387.96 559.80 826.49 380.20 976.38 367.06 855.08 468.58 846.10 586.21 960.78 576.50
00002101 00000027 785.61 157.39 384.12 564.61 820.81 373.93 970.67 372.26 846.75 474.70 835.83 596.22 937.23 594.72
00002102 00000028 778.90 154.03 389.49 561.99 813.63 379.87 961.07 367.65 838.59 462.49 830.63 593.69 931.88 584.26
00002103 00000029 770.39 161.03 389.21 554.46 805.85 378.20 959.73 374.08 831.07 467.85 817.14 593.42 923.60 589.48
00002104 00000030 765.59 157.27 388.45 558.68 801.71 378.71 956.23 375.21 825.85 465.74 815.22 592.64 923.23 589.00
00002105 DELETE   763.79 150.14 388.33 557.14 793.48 376.62 951.89 366.62 814.71 469.21 816.07 587.97 936.51 581.36
00002106 00000032 764.63 152.11 387.65 552.03 795.18 376.26 951.59 368.90 815.90 468.53 814.00 583.56 931.68 579.54
00002107 00000033 768.39 157.96 382.70 545.78 801.51 376.26 952.68 376.50 826.01 467.89 815.37 579.84 924.83 578.93
00002108 00000034 769.66 155.32 382.15 547.62 800.14 373.04 953.90 372.37 824.67 467.94 814.88 584.16 925.43 582.59
00002109 00000035 769.89 155.86 381.97 551.89 802.23 367.27 955.28 366.54 824.83 465.24 819.36 581.52 933.22 579.75
00002110 00000036 769.67 153.86 385.09 554.83 804.52 362.01 954.75 361.39 823.76 460.46 821.14 575.90 936.50 574.36
00002111 00000037 765.48 145.27 392.26 553.25 806.67 357.08 955.45 358.16 823.45 455.03 821.23 564.33 935.93 564.46
00002112 00000038 761.98 139.51 397.70 547.68 805.76 355.21 956.65 356.58 824.51 451.67 820.55 555.59 939.28 556.32
00002113 00000039 765.70 130.73 395.28 556.37 809.38 354.31 959.07 355.70 827.14 450.52 821.58 553.99 939.29 555.14
00002114 00000040 773.77 135.82 391.04 558.07 814.27 354.84 961.37 354.38 831.02 451.87 826.49 559.42 940.94 559.23
00002115 00000041 777.06 131.78 389.74 557.03 817.12 354.03 964.51 353.71 834.53 450.47 829.14 557.03 945.44 557.25
00002116 00000042 777.86 121.04 391.77 560.94 817.04 351.99 966.45 350.80 835.92 448.08 828.90 552.08 948.00 551.86
00002117 00000043 779.50 112.72 393.46 571.85 820.40 349.13 971.56 347.66 842.39 446.79 836.91 552.95 954.83 552.49
00002118 00000044 790.95 113.70 386.50 586.68 829.47 346.49 981.48 344.18 851.05 445.36 851.60 561.74 961.48 560.60
00002119 00000045 798.44 125.16 385.57 586.02 840.33 349.22 991.06 345.18 862.22 445.14 864.38 562.30 988.65 559.36
00002120 00000046 804.01 131.23 384.65 581.26 844.11 355.54 996.71 348.89 867.73 449.13 868.67 562.26 1001.47 557.08
00002121 00000047 811.57 116.35 388.78 583.15 850.11 346.62 1005.99 345.02 873.61 451.17 872.64 556.61 995.52 554.96
00002122 00000048 812.46 117.29 390.57 575.31 856.04 343.07 1010.92 344.72 878.71 443.40 872.13 551.05 994.23 551.76
00002123 00000049 418.94 59.94 269.58 358.01
00002124 00000050 420.50 59.79 269.98 359.02
00002125 00000051 422.16 59.07 270.15 359.03
00002126 00000052 818.36 130.86 390.91 556.70 858.99 346.44 1015.57 347.67 888.87 451.68 878.73 559.92 993.07 560.39
00002127 00000053 819.00 134.80 393.99 557.91 860.77 350.78 1016.61 353.23 889.30 457.78 882.81 563.87 995.99 564.94
00002128 00000054 824.30 137.29 387.59 551.29 863.05 351.41 1016.83 354.90 889.91 457.11 882.77 563.08 993.71 564.97
00002129 00000055 828.06 142.89 383.43 544.81 865.91 352.37 1017.30 355.83 891.45 456.13 883.81 563.22 991.69 565.08
00002130 00000056 830.11 150.04 380.12 541.96 867.11 356.72 1016.42 359.33 892.81 458.99 885.13 566.39 991.75 567.30
00002131 00000057 431.50 56.82 270.25 356.76
00002132 00000058 432.76 57.59 270.10 356.30
00002133 00000059 434.03 58.36 269.94 355.84
00002134 00000060 435.04 59.17 269.68 355.47
00002135 00000061 434.67 60.24 268.84 355.61
00002136 00000062 434.30 61.31 267.99 355.75
00002137 00000063 433.93 62.38 267.15 355.88
00002138 00000064 433.55 63.45 266.30 356.02
00002139 00000065 433.16 64.45 265.60 355.97
00002140 00000066 432.72 65.33 265.18 355.57
00002141 00000067 432.28 66.21 264.75 355.18
00002142 00000068 431.84 67.09 264.33 354.79
00002143 00000069 431.41 67.97 263.90 354.40
00002144 00000070 431.16 68.46 263.60 353.69
00002145 00000071 431.07 68.66 263.40 352.75
00002146 00000072 430.98 68.85 263.20 351.81
00002147 00000073 430.89 69.04 263.00 350.87
00002148 00000074 430.80 69.23 262.80 349.93
00002149 00000075 430.58 69.77 262.62 348.83
00002150 00000076 430.33 70.42 262.43 347.69
00002151 00000077 430.07 71.06 262.24 346.55
00002152 00000078 429.82 71.70 262.06 345.40
00002153 00000079 429.57 72.34 261.87 344.26
00002154 00000080 428.55 72.47 261.75 343.31
00002155 00000081 427.52 72.57 261.63 342.36
00002156 00000082 426.49 72.68 261.51 341.42
00002157 00000083 425.45 72.79 261.39 340.47
00002158 DELETE   424.48 73.00 261.24 339.76
00002159 00000085 423.78 73.64 260.95 340.10
00002160 00000086 423.07 74.28 260.67 340.44
00002161 00000087 422.37 74.92 260.38 340.78
00002162 00000088 421.67 75.57 260.09 341.12
00002163 00000089 420.77 76.12 259.79 341.67
00002164 00000090 783.40 167.74 362.49 552.69 808.52 386.85 942.86 364.50 820.54 472.22 855.52 601.28 955.70 582.89
00002165 00000091 782.33 161.56 363.24 559.00 808.52 387.47 945.07 361.95 823.17 469.23 857.19 601.25 959.67 580.20
00002166 00000092 417.21 77.38 258.81 344.36
00002167 00000093 416.02 77.80 258.49 345.26
00002168 00000094 780.08 172.88 364.84 533.56 803.80 383.22 946.63 361.37 823.71 462.88 835.01 579.36 948.00 559.75
00002169 DELETE   779.29 165.25 364.51 526.84 806.56 386.03 949.86 374.83 828.22 463.24 824.09 570.69 933.82 560.36
00002170 DELETE   781.61 158.89 364.56 530.51 807.09 385.01 949.80 373.69 828.90 464.37 824.94 571.63 931.12 561.27
00002171 00000097 786.40 162.43 363.93 529.36 811.57 385.71 953.36 373.11 833.79 466.74 829.80 572.71 939.32 561.55
00002172 00000098 794.05 162.86 361.30 531.46 819.08 383.72 960.18 374.58 841.02 468.93 835.71 571.19 947.84 562.99
00002173 00000099 796.32 167.65 365.06 526.03 822.11 382.17 963.60 374.13 843.81 468.66 838.29 569.95 951.70 562.40
00002174 00000100 800.13 167.08 362.13 524.19 823.65 385.09 963.94 375.59 846.65 468.64 840.32 572.89 950.96 564.05
00002175 00000101 415.91 75.23 258.16 344.62
00002176 00000102 798.73 154.55 362.03 537.92 824.40 385.82 964.52 366.20 846.91 470.18 848.72 587.24 956.24 571.57
00002177 00000103 417.44 75.01 258.32 343.57
00002178 00000104 800.12 158.00 368.55 522.82 831.89 384.96 978.76 369.01 863.02 471.41 852.99 575.87 974.18 563.34
00002179 DELETE   799.50 152.45 369.05 529.33 833.34 385.97 981.89 368.65 869.52 474.87 857.21 579.65 977.82 566.04
00002180 00000106 796.90 155.46 368.99 539.38 829.34 387.60 976.96 368.48 864.45 479.07 855.73 588.56 973.49 573.56
00002181 00000107 795.72 157.91 364.70 537.42 827.86 387.36 966.44 368.72 854.81 476.46 854.38 585.67 964.88 570.76
00002182 DELETE   801.47 168.38 359.36 524.38 826.44 388.39 962.53 377.78 848.02 475.82 851.80 581.95 956.00 571.45
00002183 00000109 803.98 162.18 356.24 528.74 828.74 387.48 965.45 376.62 848.84 472.20 852.04 577.22 959.65 566.66
00002184 00000110 806.11 148.19 356.06 551.59 833.66 376.20 973.38 367.35 851.82 462.77 856.37 574.63 964.42 566.16
00002185 00000111 804.84 151.74 357.93 553.10 834.31 369.10 978.60 356.98 854.40 457.94 863.37 572.92 977.05 561.80
00002186 00000112 805.68 155.74 357.79 550.76 840.58 364.83 979.96 355.70 855.33 456.00 867.36 572.63 986.72 565.61
00002187 00000113 805.73 162.53 357.48 552.73 841.99 370.64 978.55 359.98 853.81 461.70 869.05 575.09 992.16 566.30
00002188 00000114 805.02 165.43 360.27 540.14 841.80 372.64 978.61 361.08 854.13 461.57 868.08 573.46 988.30 564.35
00002189 00000115 804.79 155.40 362.08 530.23 835.00 373.79 977.15 366.48 853.77 461.66 858.67 560.87 978.15 553.32
00002190 00000116 803.07 151.78 365.69 522.12 833.37 370.41 981.04 363.70 858.08 459.35 856.56 556.33 978.19 549.46
00002191 00000117 803.24 154.23 368.28 517.62 834.01 369.77 982.48 361.21 860.74 457.96 858.23 556.03 980.34 547.60
00002192 00000118 806.21 154.06 364.41 532.12 836.84 366.12 982.85 357.84 859.12 457.84 862.45 560.31 980.51 552.35
00002193 00000119 808.15 159.48 361.00 544.58 842.77 365.33 983.24 353.54 855.88 455.26 871.85 570.57 992.63 561.55
00002194 00000120 811.29 155.24 358.14 549.41 842.51 366.54 986.48 356.65 863.78 459.37 873.82 575.07 982.32 565.40
00002195 00000121 809.75 150.46 362.16 532.03 838.71 369.14 985.91 361.09 865.97 458.13 864.34 567.64 977.04 559.81
00002196 00000122 809.18 147.88 364.41 522.03 838.67 364.27 989.74 357.19 871.56 455.84 859.53 560.80 976.00 554.10
00002197 DELETE   815.47 156.03 364.23 506.99 847.40 360.49 994.96 355.90 871.37 448.79 864.75 554.71 972.12 550.17
00002198 00000124 814.92 158.06 365.97 506.01 846.63 359.89 996.11 355.30 870.67 446.44 863.33 554.96 968.83 550.45
00002199 00000125 813.43 161.84 365.08 513.28 846.68 359.90 994.93 354.23 866.82 444.86 864.37 560.77 963.60 555.20
00002200 00000126 815.76 157.32 361.03 534.33 846.05 361.77 992.98 352.32 864.06 448.85 868.92 575.36 966.14 566.21
00002201 00000127 812.67 148.36 363.85 540.29 836.77 365.29 983.90 358.46 862.13 458.65 858.09 573.99 963.03 567.30
00002202 00000128 818.44 152.15 362.13 526.79 844.86 362.07 991.30 357.27 860.66 454.72 864.51 569.86 966.26 564.88
00002203 00000129 822.76 155.14 363.57 521.24 850.47 362.38 998.55 360.28 868.40 455.19 864.98 565.02 969.86 562.58
00002204 00000130 828.11 152.38 361.31 519.88 854.97 357.29 1002.44 356.77 876.69 452.52 870.91 560.86 974.39 559.08
00002205 DELETE   829.58 160.89 363.91 514.88 860.08 355.17 1009.59 354.97 886.72 450.92 879.68 559.64 980.24 557.74
00002206 00000132 827.46 159.58 366.92 519.84 858.22 357.35 1009.82 353.49 888.32 452.39 883.56 565.23 982.92 560.24
00002207 00000133 827.05 159.81 369.23 520.21 855.07 357.67 1010.19 353.51 887.04 456.01 879.76 566.82 986.26 561.71
00002208 00000134 829.27 162.59 364.37 522.68 855.59 359.04 1008.27 355.43 883.88 457.24 880.48 566.75 984.91 561.83
00002209 00000135 430.32 67.76 261.25 339.00
00002210 00000136 431.54 67.38 261.24 339.40
00002211 00000137 432.49 67.15 261.14 339.59
00002212 00000138 433.10 67.12 260.93 339.50
00002213 00000139 833.99 161.02 362.32 512.29 865.78 365.89 1014.49 363.36 893.98 456.84 885.73 556.78 993.26 552.72
00002214 DELETE   434.32 67.06 260.50 339.32
00002215 DELETE   832.78 177.63 370.29 496.56 855.45 378.47 1015.77 364.70 886.23 459.90 881.41 562.57 1003.98 553.28
00002216 00000142 831.62 164.01 368.65 522.14 855.29 379.10 1010.12 365.09 879.56 461.30 883.78 573.36 997.96 563.88
00002217 00000143 833.34 159.18 368.13 547.33 857.08 378.67 1009.89 363.91 877.63 464.05 886.08 581.78 1004.25 572.00
00002218 00000144 834.04 156.40 367.93 555.85 854.66 381.11 1008.70 362.52 876.75 468.34 889.01 586.89 1011.69 573.69
00002219 DELETE   836.75 155.05 371.04 556.84 856.92 384.43 1012.32 363.51 880.99 468.97 890.39 590.68 1012.64 575.47
00002220 00000146 839.81 161.51 372.49 544.57 860.38 384.73 1017.87 365.69 887.36 471.55 890.53 589.21 1013.74 575.29
00002221 00000147 440.87 71.45 258.69 339.33
00002222 00000148 442.58 72.53 258.46 339.12
CROP_BBOX: 533 0 1485 896
