Video ID: 	hpgu0PVVirM
H: 	1080
W: 	1920
FPS: 	60.0

FRAME INDEX X0 Y0 W H [Landmarks (5 Points)]

00029503 00000000 963.87 131.84 310.12 502.72 1151.60 329.89 1199.55 318.34 1276.13 399.28 1194.07 508.19 1228.09 500.59
00029504 DELETE   960.67 121.35 308.86 506.07 1148.68 323.95 1195.78 312.20 1273.06 392.64 1190.36 499.45 1224.34 492.20
00029505 DELETE   962.08 124.10 307.30 503.58 1148.48 324.48 1195.63 312.64 1272.60 392.63 1190.01 499.41 1224.03 492.05
00029506 00000003 958.19 115.06 308.94 507.38 1146.31 316.31 1191.24 305.86 1271.60 386.85 1186.69 494.04 1218.68 487.38
00029507 DELETE   957.88 113.38 308.91 516.68 1145.48 319.00 1182.00 300.10 1264.73 379.31 1184.35 496.34 1213.61 484.67
00029508 00000005 947.93 98.53 314.12 520.08 1137.94 314.06 1175.99 293.71 1248.12 381.52 1176.70 494.02 1208.69 480.90
00029509 DELETE   945.27 96.26 306.37 529.99 1132.89 311.16 1168.90 292.41 1254.62 372.55 1171.60 491.79 1200.07 480.17
00029510 00000007 931.73 104.79 313.84 511.39 1120.25 303.38 1151.37 286.96 1241.00 372.08 1157.43 491.66 1181.80 481.71
00029511 DELETE   932.22 104.29 313.38 511.77 1120.33 303.13 1151.34 286.87 1241.35 372.03 1157.68 491.51 1181.93 481.72
00029512 DELETE   923.09 103.59 316.40 507.79 1118.66 301.61 1144.46 285.62 1237.76 370.37 1152.83 485.95 1173.81 475.96
00029513 00000010 926.93 99.69 301.11 514.77 1118.01 303.26 1146.60 288.88 1236.20 366.55 1153.62 479.81 1174.63 471.15
00029514 DELETE   914.86 85.78 312.98 518.13 1108.37 296.33 1139.79 283.48 1229.07 368.68 1144.99 475.45 1171.05 468.06
00029515 DELETE   922.69 87.40 292.25 521.07 1104.95 298.23 1135.90 285.14 1221.04 365.06 1141.45 477.26 1166.91 469.62
00029516 DELETE   920.51 83.50 290.32 528.52 1100.84 297.17 1130.06 282.40 1217.40 361.92 1137.22 477.84 1161.89 469.53
00029517 00000014 920.33 83.26 290.45 528.56 1100.87 297.39 1130.06 282.52 1217.21 361.86 1137.26 477.77 1161.92 469.39
00029518 DELETE   921.20 82.85 286.75 528.77 1097.35 296.20 1126.47 282.41 1212.61 360.44 1132.54 476.13 1156.83 468.59
00029519 00000016 913.47 79.38 290.39 530.08 1093.19 296.68 1121.77 282.74 1207.83 360.84 1126.68 475.25 1150.17 467.72
00029520 00000017 906.27 87.81 292.87 516.76 1084.45 296.36 1114.52 282.22 1202.21 362.96 1122.53 473.17 1144.31 464.03
00029521 00000018 902.41 89.19 292.35 518.03 1082.20 297.05 1112.02 283.37 1199.23 364.85 1119.19 475.76 1141.01 466.85
00029522 00000019 900.56 90.38 292.22 518.32 1080.10 298.18 1108.87 284.54 1198.93 366.12 1117.76 477.69 1138.73 468.76
00029523 00000020 900.83 91.09 291.96 517.50 1080.22 298.25 1108.89 284.74 1198.84 366.29 1117.75 477.86 1138.61 468.96
00029524 00000021 897.26 89.41 293.81 521.56 1078.48 298.69 1106.66 285.05 1197.38 365.71 1117.86 478.52 1138.11 469.71
00029525 00000022 897.17 90.13 293.03 519.99 1075.68 299.33 1105.81 285.54 1196.25 366.07 1116.48 478.88 1138.00 469.87
00029526 00000023 893.25 89.89 293.64 519.03 1073.39 298.62 1103.11 283.93 1192.89 364.43 1114.56 477.27 1135.40 467.66
00029527 00000024 883.73 91.35 307.35 522.13 1074.15 307.20 1107.69 285.96 1180.36 362.46 1105.66 479.16 1143.39 462.96
00029528 00000025 888.37 90.93 294.31 522.46 1066.66 301.35 1093.87 285.91 1179.71 360.45 1106.35 477.47 1128.91 467.87
00029529 DELETE   888.59 91.15 294.12 522.18 1066.66 301.38 1093.85 285.96 1179.67 360.52 1106.30 477.47 1128.84 467.88
00029530 00000027 877.03 90.26 303.79 531.00 1062.53 302.91 1097.72 278.36 1170.60 356.74 1095.86 483.24 1132.50 464.43
00029531 00000028 879.69 87.92 291.59 530.61 1056.47 302.11 1085.63 286.10 1175.22 360.62 1096.97 481.58 1120.33 471.51
00029532 DELETE   876.32 94.09 290.05 522.95 1051.79 303.15 1079.28 287.37 1170.31 361.15 1093.80 481.84 1115.48 471.61
00029533 DELETE   869.63 93.57 290.48 518.14 1043.28 302.04 1071.83 284.80 1166.10 363.71 1088.78 479.20 1109.46 468.11
00029534 00000031 860.06 91.91 296.43 521.24 1040.67 302.00 1069.76 285.06 1165.14 364.85 1086.65 481.31 1107.05 470.19
00029535 DELETE   859.99 91.83 296.42 521.21 1040.63 301.97 1069.69 285.07 1165.08 364.86 1086.67 481.26 1107.00 470.17
00029536 00000033 859.29 93.15 293.50 518.37 1037.75 301.98 1066.41 285.44 1161.88 365.86 1083.33 481.71 1103.93 470.72
00029537 DELETE   854.98 95.43 294.76 516.97 1034.58 302.06 1064.23 285.82 1159.75 366.09 1080.96 482.09 1102.69 471.30
00029538 00000035 855.99 93.95 296.35 523.18 1031.99 302.45 1062.21 287.94 1150.13 366.24 1073.93 482.54 1099.73 473.46
00029539 00000036 455.82 22.17 231.63 349.34
00029540 00000037 454.63 22.03 231.69 349.45
00029541 00000038 453.45 21.88 231.75 349.57
00029542 00000039 452.26 21.74 231.81 349.69
00029543 00000040 451.07 21.60 231.87 349.81
00029544 00000041 449.88 21.45 231.93 349.93
00029545 00000042 448.69 21.31 231.99 350.05
00029546 00000043 447.50 21.17 232.04 350.17
00029547 00000044 446.31 21.02 232.10 350.28
00029548 00000045 445.12 20.88 232.16 350.40
00029549 00000046 444.80 21.61 232.26 350.19
00029550 00000047 444.47 22.34 232.35 349.97
00029551 00000048 444.14 23.07 232.45 349.76
00029552 00000049 443.82 23.80 232.54 349.54
00029553 00000050 443.49 24.54 232.64 349.33
00029554 00000051 443.17 25.27 232.74 349.11
00029555 00000052 442.84 26.00 232.83 348.90
00029556 00000053 442.52 26.73 232.93 348.68
00029557 00000054 442.19 27.46 233.02 348.47
00029558 00000055 441.87 28.19 233.12 348.25
00029559 00000056 441.54 28.93 233.21 348.04
00029560 00000057 441.21 29.66 233.31 347.82
00029561 00000058 441.17 30.22 233.35 348.13
00029562 00000059 441.13 30.78 233.40 348.44
00029563 00000060 840.30 108.22 311.84 523.87 1032.19 323.59 1070.69 310.89 1150.36 393.60 1077.92 501.43 1108.24 495.01
00029564 00000061 844.38 112.02 309.04 523.64 1034.17 325.97 1072.42 313.83 1151.74 398.36 1080.02 506.04 1109.26 499.80
00029565 00000062 844.47 112.56 308.91 523.54 1034.33 325.90 1072.48 313.79 1151.70 398.34 1080.52 506.36 1109.45 500.16
00029566 00000063 847.58 116.62 307.98 523.44 1035.42 327.21 1072.99 314.82 1153.15 399.94 1080.51 509.28 1109.55 502.66
00029567 00000064 848.82 121.95 307.35 519.30 1037.29 328.23 1073.59 316.44 1154.39 400.07 1080.56 509.58 1108.85 503.30
00029568 00000065 847.24 125.30 309.23 517.23 1040.78 330.45 1071.91 317.36 1153.18 401.38 1084.57 513.16 1108.23 506.08
00029569 00000066 850.58 125.45 304.35 527.72 1045.77 330.90 1077.73 321.14 1151.33 403.29 1086.64 522.31 1108.23 517.64
00029570 00000067 842.32 124.73 315.62 542.01 1035.26 332.49 1069.39 322.92 1157.82 404.08 1074.72 526.02 1093.84 519.55
00029571 00000068 842.40 124.76 315.57 541.86 1035.24 332.52 1069.36 322.94 1157.88 404.07 1074.71 525.94 1093.83 519.48
00029572 00000069 842.71 127.96 316.08 538.15 1035.80 333.52 1069.46 324.52 1160.06 405.38 1075.22 527.15 1093.88 521.33
00029573 00000070 844.49 130.93 316.11 540.33 1036.48 332.13 1069.91 323.69 1159.90 405.32 1071.89 528.43 1091.67 523.55
00029574 00000071 848.68 127.39 309.30 540.44 1036.90 332.55 1085.46 325.10 1159.60 406.74 1067.63 531.08 1097.77 527.27
00029575 00000072 867.99 134.80 296.38 530.90 1052.12 322.44 1087.33 294.46 1162.45 391.79 1074.17 532.18 1102.10 511.55
00029576 00000073 442.89 38.77 233.77 350.36
00029577 00000074 443.44 39.36 233.76 350.07
00029578 00000075 443.98 39.96 233.74 349.79
00029579 00000076 444.53 40.55 233.73 349.50
00029580 00000077 445.07 41.14 233.71 349.21
00029581 00000078 445.61 41.74 233.70 348.93
00029582 00000079 446.16 42.33 233.68 348.64
00029583 00000080 446.70 42.93 233.67 348.36
00029584 00000081 447.25 43.52 233.65 348.07
00029585 00000082 448.11 42.88 233.79 348.30
00029586 00000083 448.97 42.24 233.94 348.54
00029587 00000084 449.83 41.60 234.08 348.77
00029588 00000085 450.69 40.95 234.23 349.00
00029589 00000086 451.55 40.31 234.37 349.24
00029590 00000087 452.41 39.67 234.51 349.47
00029591 00000088 882.51 129.64 311.30 509.11 1068.57 332.81 1107.97 316.22 1195.57 400.90 1117.07 515.64 1147.84 505.64
00029592 00000089 888.31 133.42 302.77 508.04 1067.59 332.52 1109.61 318.14 1194.66 398.56 1118.17 514.19 1147.48 504.50
00029593 00000090 887.74 135.03 303.96 505.46 1067.55 331.38 1112.59 316.76 1195.06 396.96 1117.05 511.28 1148.68 501.47
00029594 00000091 887.97 134.14 303.76 503.04 1068.57 329.20 1114.49 315.18 1195.54 394.79 1116.92 507.94 1149.34 498.65
00029595 00000092 887.88 134.07 303.74 503.05 1068.49 329.22 1114.43 315.29 1195.38 394.84 1116.94 507.98 1149.35 498.74
00029596 00000093 887.25 131.73 306.40 502.80 1068.98 328.43 1115.56 314.92 1196.93 393.63 1118.72 506.42 1151.35 497.45
00029597 00000094 886.62 127.34 309.42 506.65 1069.75 326.49 1115.60 312.75 1199.03 392.41 1118.78 505.44 1151.50 496.28
00029598 00000095 886.07 126.29 311.19 503.83 1069.64 323.37 1117.73 310.08 1198.85 390.27 1119.86 502.24 1153.68 493.21
00029599 00000096 887.05 122.66 311.74 505.16 1070.77 319.81 1119.03 306.59 1199.25 387.58 1122.23 499.45 1156.23 490.31
00029600 00000097 887.20 119.90 313.73 503.28 1073.59 316.47 1118.16 304.61 1202.18 385.77 1123.86 496.52 1155.32 488.34
00029601 00000098 886.68 121.02 314.09 502.72 1073.72 316.50 1118.17 304.68 1202.27 385.29 1123.63 496.31 1155.07 488.16
00029602 00000099 887.03 116.49 314.66 505.18 1074.04 314.16 1119.76 302.70 1204.04 384.11 1123.65 495.00 1155.79 487.17
00029603 00000100 888.52 118.69 314.14 501.58 1075.17 312.44 1121.46 301.68 1204.67 382.61 1125.09 493.38 1157.33 485.97
00029604 00000101 888.84 117.04 314.07 502.73 1074.86 311.44 1121.93 299.85 1205.20 381.90 1125.69 493.17 1158.53 485.21
00029605 00000102 888.75 118.46 314.41 501.31 1074.23 310.85 1120.73 299.93 1205.20 381.57 1124.26 492.93 1157.03 485.33
00029606 00000103 888.50 118.12 314.05 502.82 1073.94 310.39 1118.39 299.63 1205.28 380.43 1124.25 493.27 1155.57 485.69
00029607 00000104 888.60 117.84 313.99 503.02 1074.06 310.46 1118.49 299.73 1205.21 380.43 1124.55 493.20 1155.72 485.68
00029608 00000105 885.71 119.00 316.23 500.66 1072.62 310.32 1118.29 299.46 1204.76 380.36 1123.01 492.66 1155.53 485.04
00029609 00000106 885.53 119.09 315.20 501.02 1071.93 310.98 1117.36 299.90 1202.80 380.21 1122.59 492.83 1154.39 485.01
00029610 00000107 885.05 117.56 313.83 503.24 1070.08 312.14 1117.65 300.24 1201.33 381.22 1120.20 493.41 1153.74 485.06
00029611 00000108 882.23 112.80 314.76 508.45 1068.24 313.01 1116.71 300.31 1200.26 381.85 1117.73 494.52 1152.12 485.57
00029612 00000109 880.67 115.60 315.01 505.28 1067.44 313.28 1116.04 300.99 1199.07 381.69 1117.10 493.79 1151.50 485.20
00029613 00000110 880.63 116.33 315.15 504.82 1067.52 313.27 1115.99 300.98 1199.10 381.62 1117.24 493.86 1151.53 485.24
00029614 00000111 881.00 119.27 313.83 504.66 1065.67 314.28 1114.38 302.33 1197.71 382.43 1115.57 495.80 1149.53 487.14
00029615 00000112 879.13 119.65 312.71 503.79 1063.68 315.42 1112.91 302.82 1195.08 381.22 1114.90 494.70 1149.79 485.75
00029616 00000113 880.96 118.54 312.59 512.40 1065.69 321.91 1109.73 299.81 1191.63 378.30 1114.18 499.41 1148.48 486.00
00029617 00000114 877.36 115.71 313.69 513.32 1063.20 322.48 1108.88 299.54 1190.03 378.28 1111.56 498.76 1147.28 484.95
00029618 00000115 877.09 114.03 313.44 515.33 1062.72 322.24 1107.80 299.11 1189.92 378.75 1111.11 499.48 1146.06 485.51
00029619 00000116 876.57 112.78 313.79 516.95 1062.49 322.54 1107.68 299.27 1190.21 378.98 1111.10 499.76 1146.16 485.77
00029620 00000117 875.71 113.07 313.50 518.27 1061.93 323.23 1107.90 300.16 1189.93 379.73 1110.17 501.05 1145.91 487.26
00029621 00000118 878.44 119.09 310.58 512.72 1063.16 323.74 1107.55 301.25 1189.78 380.25 1108.81 500.07 1144.32 486.76
00029622 00000119 879.23 122.67 309.93 509.84 1063.76 324.68 1107.57 302.15 1190.22 380.60 1108.80 500.46 1144.14 487.21
00029623 00000120 878.89 124.40 308.85 508.72 1063.33 325.53 1108.09 302.89 1189.76 381.74 1109.08 502.05 1144.54 488.69
00029624 00000121 874.90 123.22 310.80 513.78 1061.58 325.64 1106.09 303.33 1187.69 381.69 1107.61 503.41 1142.84 490.34
00029625 00000122 874.97 122.21 310.58 514.67 1061.67 325.40 1105.99 303.43 1187.71 381.72 1107.71 503.28 1142.83 490.41
00029626 00000123 871.25 120.67 313.44 516.60 1060.39 326.35 1105.58 303.92 1186.06 382.16 1106.69 503.73 1142.44 490.64
00029627 00000124 870.27 119.61 313.35 518.89 1059.33 326.34 1105.72 304.86 1186.12 382.65 1104.80 504.13 1141.71 491.68
00029628 00000125 871.02 122.80 311.60 515.91 1059.33 326.56 1106.03 304.96 1185.84 383.19 1103.87 504.70 1140.68 492.11
00029629 00000126 872.24 123.20 310.68 516.26 1059.37 328.19 1106.80 305.40 1186.30 383.55 1104.78 505.79 1142.12 492.50
00029630 00000127 870.75 120.98 311.71 516.14 1058.80 329.96 1109.33 306.15 1185.38 384.28 1104.94 505.90 1144.63 492.04
00029631 00000128 871.12 121.97 311.44 515.59 1059.04 329.85 1109.26 306.38 1185.61 384.42 1104.79 505.97 1144.33 492.34
00029632 00000129 873.40 122.13 308.52 517.52 1060.28 329.84 1109.25 308.65 1185.44 385.63 1105.65 507.09 1144.19 494.87
00029633 00000130 873.49 123.96 308.38 516.95 1059.70 330.75 1109.56 308.94 1185.58 386.44 1105.94 508.81 1144.65 496.19
00029634 00000131 873.62 125.05 308.07 515.62 1059.24 332.07 1110.50 310.21 1185.31 387.21 1105.58 509.36 1145.21 496.73
00029635 00000132 873.00 124.65 309.20 517.10 1059.28 333.07 1110.03 310.88 1185.81 387.69 1106.24 509.95 1145.55 497.19
00029636 00000133 870.83 130.35 313.90 505.06 1058.23 329.37 1112.15 310.65 1185.63 387.75 1107.38 506.85 1145.94 495.02
00029637 00000134 871.08 130.69 313.68 505.03 1058.31 329.43 1112.30 310.70 1185.68 387.84 1107.46 506.94 1146.10 495.09
00029638 00000135 871.06 130.18 313.08 505.17 1058.02 329.53 1110.98 310.43 1185.27 387.32 1107.00 506.41 1145.17 494.37
00029639 00000136 870.65 129.67 313.61 505.64 1058.00 329.59 1112.01 310.55 1185.37 387.55 1107.31 506.73 1146.02 494.71
00029640 00000137 871.28 129.38 313.81 506.05 1058.35 329.28 1112.26 310.93 1185.98 388.23 1107.66 507.29 1146.24 495.68
00029641 00000138 866.45 125.73 319.35 504.83 1059.42 322.94 1109.90 308.84 1187.55 389.67 1108.86 504.26 1146.69 495.45
00029642 00000139 874.01 124.29 309.02 517.29 1059.44 332.90 1111.00 310.99 1186.53 389.10 1106.18 510.97 1145.74 498.31
00029643 00000140 873.62 124.62 309.59 516.85 1059.32 333.26 1111.32 310.87 1186.92 389.12 1106.55 511.21 1146.30 498.22
00029644 00000141 875.94 124.55 307.95 516.80 1060.04 331.67 1111.69 309.61 1187.91 388.28 1106.11 509.89 1146.56 497.05
00029645 00000142 877.00 122.68 307.50 518.42 1061.02 331.41 1112.08 308.46 1188.97 387.16 1107.72 510.14 1147.51 496.74
00029646 00000143 878.28 125.61 307.17 515.83 1061.73 331.84 1112.99 309.00 1189.28 387.72 1109.04 510.95 1148.61 497.50
00029647 00000144 877.91 125.83 307.94 513.84 1062.48 333.56 1114.55 310.14 1189.28 388.96 1108.71 509.69 1149.10 495.94
00029648 00000145 874.00 130.60 317.87 499.83 1063.55 324.90 1114.78 309.43 1190.81 392.01 1110.74 504.96 1151.20 495.20
00029649 00000146 873.62 129.99 318.16 500.51 1063.53 325.11 1114.78 309.46 1190.63 392.09 1110.69 504.96 1151.17 495.11
00029650 00000147 873.80 130.10 318.19 504.29 1063.86 326.51 1114.20 310.81 1192.23 393.69 1111.08 507.52 1150.49 497.69
00029651 00000148 874.56 134.00 317.95 502.87 1064.85 328.18 1115.29 311.74 1193.52 395.79 1111.94 509.78 1151.57 499.41
00029652 00000149 876.42 136.28 317.28 501.08 1065.58 330.73 1115.93 313.68 1193.87 396.96 1111.84 510.50 1151.34 499.86
00029653 00000150 875.76 138.74 318.71 502.15 1066.06 332.33 1115.54 315.28 1194.59 398.48 1112.81 512.76 1151.51 502.14
00029654 00000151 879.86 137.17 311.79 506.91 1065.37 333.12 1115.35 318.75 1198.86 401.29 1113.69 514.78 1150.33 505.23
00029655 00000152 881.58 143.99 314.73 494.90 1069.96 337.59 1116.35 319.99 1191.95 403.93 1114.47 516.79 1150.87 506.29
00029656 00000153 881.26 137.54 312.80 509.95 1066.97 334.37 1116.34 320.70 1200.72 404.42 1115.25 518.92 1150.83 509.54
00029657 00000154 882.88 140.82 313.48 508.37 1068.43 337.71 1118.97 323.94 1201.67 408.16 1117.07 522.26 1152.67 512.65
00029658 00000155 884.33 148.62 315.04 503.66 1069.54 342.01 1122.21 328.45 1201.01 411.71 1121.00 525.74 1156.56 516.10
00029659 00000156 883.63 152.55 315.86 501.95 1069.99 343.52 1120.95 330.80 1200.93 414.47 1120.15 527.09 1154.70 517.98
00029660 00000157 881.47 150.70 317.35 505.53 1070.58 345.87 1121.29 333.57 1200.83 418.06 1118.18 529.82 1152.46 521.03
00029661 00000158 881.49 150.59 317.42 505.82 1070.51 345.78 1121.42 333.38 1200.92 418.07 1118.54 530.00 1153.02 521.13
00029662 00000159 881.77 148.12 315.13 511.75 1068.60 348.47 1119.60 336.16 1198.97 421.08 1114.95 533.05 1149.62 524.14
00029663 00000160 876.55 151.58 324.70 518.28 1070.91 361.66 1111.32 342.03 1192.07 422.89 1111.54 535.03 1157.15 521.42
00029664 00000161 874.79 151.84 325.01 521.35 1070.38 360.79 1109.85 341.31 1191.41 422.82 1109.02 536.24 1153.28 522.83
00029665 00000162 874.45 155.08 324.67 519.37 1070.32 362.17 1110.81 342.91 1190.18 422.77 1108.32 536.14 1153.45 522.78
00029666 00000163 876.40 156.61 323.35 519.47 1070.62 363.28 1111.59 341.91 1191.98 423.17 1106.44 536.96 1152.61 522.17
00029667 00000164 876.54 156.53 323.40 520.09 1071.08 362.74 1111.23 341.81 1192.11 422.98 1106.65 536.80 1152.46 522.38
00029668 00000165 883.42 149.47 310.78 525.35 1068.25 357.19 1115.36 339.61 1196.26 424.32 1108.24 542.77 1143.42 532.06
00029669 00000166 880.22 154.16 320.58 524.41 1074.01 366.14 1114.94 344.92 1193.02 426.02 1107.99 537.86 1155.38 522.96
00029670 00000167 883.56 155.35 310.91 512.08 1068.14 356.79 1118.75 342.66 1197.26 426.30 1112.31 536.47 1148.21 526.98
00029671 00000168 884.97 154.02 309.74 512.75 1068.49 358.00 1119.44 343.03 1197.24 426.95 1112.99 537.78 1148.91 527.62
00029672 00000169 885.39 154.45 309.71 511.33 1069.23 357.77 1119.28 343.07 1197.27 427.20 1114.20 537.60 1149.06 527.60
00029673 00000170 884.97 153.89 310.13 512.21 1069.10 357.93 1119.01 343.15 1197.61 427.25 1113.89 537.59 1148.88 527.57
00029674 00000171 885.79 153.27 309.63 513.46 1069.08 358.11 1118.86 342.76 1197.83 427.41 1114.08 538.31 1149.05 527.88
00029675 00000172 885.99 155.35 308.21 510.63 1068.06 359.53 1118.26 344.20 1196.41 427.98 1112.78 538.02 1148.08 527.74
00029676 00000173 884.03 153.67 309.27 515.65 1067.56 359.85 1118.16 344.66 1196.33 428.05 1111.72 538.74 1147.60 528.70
00029677 00000174 884.08 153.82 308.77 516.50 1067.10 359.56 1117.66 343.92 1196.27 427.89 1110.69 538.65 1146.96 528.28
00029678 00000175 883.43 157.27 316.33 521.45 1070.69 368.95 1116.78 342.23 1190.38 424.89 1103.57 538.46 1156.24 518.97
00029679 00000176 883.49 157.76 316.37 521.96 1070.71 369.07 1117.05 342.65 1190.71 425.35 1102.93 538.64 1155.99 519.49
00029680 00000177 881.68 153.97 318.41 524.50 1070.02 367.94 1116.04 342.21 1189.77 425.11 1102.59 537.56 1155.32 518.82
00029681 00000178 883.44 155.75 318.07 522.02 1070.69 365.86 1114.84 339.49 1190.34 422.69 1102.40 535.87 1154.04 516.72
00029682 00000179 883.71 159.23 317.71 518.85 1071.54 362.34 1114.49 338.26 1190.48 418.73 1104.89 532.86 1156.40 515.62
00029683 00000180 883.65 157.17 320.16 518.95 1074.00 360.73 1113.22 338.91 1191.91 417.16 1109.75 531.28 1157.96 516.01
00029684 00000181 885.41 156.55 322.03 515.28 1075.46 359.47 1115.48 338.22 1192.99 415.79 1111.29 528.71 1159.57 513.81
00029685 00000182 886.05 147.29 313.53 516.19 1072.68 348.99 1120.90 334.93 1202.97 417.22 1118.81 531.30 1152.77 521.66
00029686 00000183 886.74 146.38 314.43 514.10 1073.13 346.70 1120.68 332.77 1204.09 415.59 1121.13 529.21 1154.59 519.65
00029687 00000184 888.54 145.49 313.63 514.76 1073.41 345.12 1121.01 330.78 1205.53 413.96 1121.99 528.49 1155.67 518.52
00029688 00000185 888.79 148.13 313.07 512.79 1072.95 345.22 1120.53 330.92 1205.13 413.12 1121.54 528.16 1155.23 518.20
00029689 00000186 888.38 144.04 313.23 517.42 1072.93 344.80 1119.38 330.59 1205.36 413.16 1121.49 528.15 1154.59 518.31
00029690 00000187 888.26 151.46 322.24 516.94 1074.35 355.53 1116.11 331.47 1193.66 410.27 1112.59 526.86 1160.90 509.76
00029691 00000188 888.12 149.81 322.51 518.08 1073.97 356.06 1116.15 331.64 1193.37 410.68 1112.68 526.84 1160.90 509.40
