Video ID: 	X26YUS04Pa0
H: 	1080
W: 	1920
FPS: 	23.976023976023978

FRAME INDEX X0 Y0 W H [Landmarks (5 Points)]

00016359 00000000 514.55 194.78 359.28 520.99 640.00 439.16 798.93 409.71 755.10 532.20 659.54 585.72 814.95 564.14
00016360 DELETE   511.60 183.52 361.68 518.36 633.32 431.00 793.64 400.10 749.46 515.31 663.87 579.01 813.07 555.85
00016361 DELETE   512.64 171.48 358.42 516.77 630.52 414.95 785.43 379.00 745.48 493.21 667.13 565.36 810.87 537.69
00016362 DELETE   511.29 161.90 358.93 523.35 624.73 393.12 783.07 363.30 739.16 472.25 658.43 551.71 808.61 528.86
00016363 00000004 513.17 159.12 357.55 528.79 624.03 387.16 785.39 361.19 739.10 468.57 653.73 546.58 812.12 526.68
00016364 00000005 515.85 160.43 355.28 540.66 628.92 392.31 785.90 366.48 740.22 477.80 652.18 551.95 808.99 532.54
00016365 DELETE   514.81 168.38 354.30 534.13 635.13 402.87 790.52 379.53 748.66 492.62 652.47 558.79 805.98 542.62
00016366 00000007 512.61 170.40 356.06 527.73 631.87 409.90 790.60 383.29 746.58 500.37 650.14 563.32 805.70 544.77
00016367 00000008 510.66 169.11 353.52 521.30 631.49 406.07 787.02 381.27 743.86 496.01 650.17 556.56 801.24 539.70
00016368 00000009 505.30 162.48 353.71 526.36 628.32 406.26 787.75 384.82 737.19 488.14 646.74 552.96 800.49 535.51
00016369 00000010 502.56 167.07 354.04 520.15 625.50 404.49 786.46 382.58 735.92 487.93 644.82 552.46 799.66 534.81
00016370 00000011 500.97 165.38 353.99 520.31 623.84 404.23 784.90 383.26 732.90 486.49 643.24 551.67 797.67 534.86
00016371 00000012 500.20 166.01 352.40 520.46 622.72 404.18 784.08 383.61 732.10 487.17 640.03 550.63 797.59 534.24
00016372 00000013 498.00 165.80 353.16 532.18 622.45 402.49 781.44 381.97 731.86 484.78 637.80 554.08 795.20 537.48
00016373 00000014 499.62 169.57 354.83 530.04 621.44 395.26 774.72 378.90 730.19 485.72 638.22 552.03 789.56 541.20
00016374 00000015 497.06 168.14 354.68 528.71 618.37 395.04 772.55 377.73 728.93 485.62 636.03 552.98 787.86 541.46
00016375 00000016 491.91 170.57 353.08 518.80 614.23 401.18 771.92 379.78 725.66 482.25 636.25 553.96 786.13 536.42
00016376 00000017 488.46 169.52 355.95 511.32 611.42 401.56 770.83 381.08 720.29 482.56 635.26 551.70 782.15 534.92
00016377 00000018 486.91 169.69 356.56 508.86 609.67 402.62 767.82 382.52 716.27 482.72 633.88 550.00 779.57 533.74
00016378 00000019 487.38 169.04 355.14 508.58 609.59 402.91 767.34 382.95 715.87 482.43 634.54 549.77 779.07 533.56
00016379 00000020 486.85 168.56 355.62 509.64 609.77 403.46 766.62 382.79 715.99 482.15 634.66 549.94 779.28 533.16
00016380 00000021 488.18 170.07 354.07 508.83 613.61 405.62 767.21 385.11 719.86 481.35 640.85 551.28 781.39 534.22
00016381 00000022 490.16 167.86 350.89 518.78 615.93 407.36 766.65 385.36 723.34 474.80 642.74 554.05 782.64 536.00
00016382 00000023 487.41 162.34 352.32 514.23 613.11 405.50 768.47 383.76 722.55 472.72 644.82 553.96 779.97 536.37
00016383 00000024 486.79 158.22 354.15 512.57 610.92 396.79 773.79 374.20 722.89 469.85 647.97 554.53 782.52 535.89
00016384 00000025 486.13 157.50 354.29 514.96 611.41 393.45 772.20 370.42 723.14 468.81 651.43 554.58 781.87 535.48
00016385 00000026 487.61 157.12 352.51 516.40 611.70 391.08 770.64 367.06 722.91 466.90 651.63 552.62 782.38 532.80
00016386 00000027 489.85 153.73 352.36 516.75 612.74 389.23 770.75 363.34 724.50 462.62 654.03 548.93 786.39 527.47
00016387 00000028 491.50 152.19 349.76 513.13 613.55 384.05 772.38 359.03 725.09 457.61 655.10 545.66 787.28 524.86
00016388 00000029 490.48 151.54 351.25 514.68 612.92 380.57 771.33 354.88 724.63 455.36 648.81 541.31 785.09 520.24
00016389 00000030 489.96 152.33 351.89 512.82 611.58 376.80 770.69 351.83 723.68 451.99 645.92 538.19 785.70 517.75
00016390 00000031 487.92 150.57 354.51 513.24 609.80 372.09 769.82 347.45 721.70 449.23 644.14 534.88 786.04 514.75
00016391 00000032 487.71 147.39 354.08 513.31 607.73 369.92 770.15 346.87 719.65 446.94 642.08 533.10 785.62 514.30
00016392 00000033 486.93 148.40 353.33 509.47 606.06 368.60 768.94 347.28 717.40 445.27 640.31 531.51 785.17 514.13
00016393 00000034 484.74 149.93 355.00 506.79 603.40 367.53 766.97 347.27 714.57 444.02 638.56 530.94 783.56 514.38
00016394 00000035 485.32 148.99 353.42 505.60 602.08 366.56 764.54 346.06 712.20 443.23 638.79 530.21 780.75 513.71
00016395 00000036 485.12 148.06 354.35 505.59 600.94 365.30 763.62 346.01 708.82 439.91 638.18 528.68 778.63 513.29
00016396 00000037 485.75 146.04 349.54 503.37 595.07 366.15 751.37 334.99 702.97 431.40 629.02 528.30 773.59 504.61
00016397 00000038 483.38 145.68 351.55 505.09 595.24 366.59 749.46 335.56 700.82 429.49 632.28 528.35 770.39 503.91
00016398 00000039 482.11 142.98 350.84 507.07 594.65 366.81 745.05 337.21 697.11 430.02 634.51 529.02 766.01 505.39
00016399 00000040 479.88 141.48 351.06 505.88 592.87 368.17 741.92 338.89 694.59 430.18 638.37 532.92 763.06 508.23
00016400 00000041 477.77 136.64 351.39 513.31 588.76 370.08 743.73 337.94 693.86 431.46 634.10 537.85 766.06 510.71
00016401 00000042 474.73 135.38 352.61 514.81 585.93 371.49 740.74 338.59 690.17 433.38 633.74 539.83 764.65 512.01
00016402 00000043 472.15 139.59 354.29 510.43 583.58 372.90 738.59 340.26 687.49 433.46 633.32 540.31 763.20 512.62
00016403 00000044 469.21 139.55 355.49 511.50 581.16 374.56 736.44 340.40 686.27 434.23 632.68 541.92 764.48 513.08
00016404 00000045 469.31 140.85 359.65 517.52 577.22 377.35 740.21 347.42 688.12 444.19 628.24 543.59 766.02 518.10
00016405 00000046 468.06 147.95 358.61 520.81 573.86 384.86 729.25 349.37 682.10 452.03 630.08 555.44 757.13 525.74
00016406 00000047 463.55 150.64 356.40 523.36 570.86 401.23 721.76 365.25 675.57 465.96 626.92 566.99 747.32 536.94
00016407 00000048 459.68 155.06 360.34 523.90 560.25 403.70 712.12 366.25 667.38 467.80 625.70 575.06 744.69 543.27
00016408 00000049 453.05 159.45 364.29 519.92 553.87 405.81 710.51 367.16 661.82 480.35 619.30 579.35 740.69 546.69
00016409 00000050 446.77 161.22 370.23 522.60 547.73 411.56 705.96 369.96 655.98 487.60 613.98 583.70 738.53 548.41
00016410 00000051 448.27 160.75 369.22 522.11 547.94 410.65 708.93 371.54 655.93 491.77 614.59 585.95 738.84 552.58
00016411 00000052 448.96 160.20 367.69 520.64 549.23 409.34 710.45 371.84 656.94 490.63 614.60 584.57 738.35 552.67
00016412 00000053 452.25 159.10 363.52 517.75 550.58 405.19 712.84 370.60 657.57 486.67 614.90 583.85 737.29 554.39
00016413 00000054 454.85 159.46 361.25 517.77 552.42 402.08 713.20 367.39 659.64 482.92 616.75 583.17 737.59 553.69
00016414 00000055 456.85 161.59 360.47 524.65 555.71 401.31 711.34 366.93 662.04 479.37 619.36 580.73 739.44 551.39
00016415 00000056 458.23 161.02 363.22 536.23 555.76 402.58 714.67 369.33 663.98 482.13 615.97 581.85 746.54 553.13
00016416 00000057 460.55 160.95 363.26 537.57 556.36 404.58 716.39 369.66 664.10 484.30 615.56 581.61 750.88 551.60
00016417 00000058 463.54 161.89 359.07 518.20 560.32 402.89 719.24 368.23 668.59 479.90 618.40 575.64 747.88 546.34
00016418 00000059 465.10 158.72 354.06 512.75 559.61 401.99 723.09 369.10 670.61 480.71 616.29 574.63 748.30 546.78
00016419 00000060 464.65 158.47 354.32 510.03 561.48 402.36 721.50 367.49 672.50 474.47 619.78 571.07 749.20 541.58
00016420 00000061 467.76 160.90 350.22 507.95 567.98 404.69 724.70 372.85 678.26 470.22 622.89 568.41 750.43 542.03
00016421 00000062 470.03 155.95 351.00 510.06 569.41 403.32 726.02 368.72 681.01 467.21 625.11 567.48 752.58 538.60
00016422 00000063 457.95 135.83 362.71 527.77 572.96 395.58 721.53 357.62 672.90 462.00 633.07 561.12 757.87 529.50
00016423 00000064 457.67 137.22 364.89 519.72 571.82 388.78 721.99 347.06 675.39 452.06 637.71 554.28 761.65 519.44
00016424 00000065 465.02 143.12 362.09 507.87 573.02 385.61 723.67 342.03 679.16 445.67 642.13 551.35 763.92 515.15
00016425 00000066 469.36 137.53 359.71 509.00 576.56 380.65 724.94 335.75 683.45 437.31 647.17 546.87 763.72 509.21
00016426 00000067 472.44 136.12 361.37 509.78 580.89 376.82 728.01 333.48 688.28 432.83 652.76 543.74 763.89 507.56
00016427 00000068 473.00 135.30 368.94 516.60 588.53 368.58 743.20 332.00 695.13 431.79 656.95 542.57 775.50 512.58
00016428 00000069 480.52 133.69 365.93 518.71 593.72 368.20 750.39 334.08 699.76 432.48 655.36 540.38 778.67 512.64
00016429 00000070 488.05 136.44 361.54 516.01 597.74 367.37 757.58 334.74 703.29 433.23 654.54 539.62 781.53 513.43
00016430 00000071 490.88 135.15 360.72 514.99 600.57 367.16 760.14 334.81 705.34 437.51 659.14 539.37 784.15 513.23
00016431 00000072 493.97 136.70 361.11 512.10 603.97 368.45 765.13 337.21 708.77 440.18 659.19 539.10 786.42 513.92
00016432 00000073 492.86 137.93 365.33 512.95 604.93 369.45 765.57 335.48 710.82 439.89 661.35 538.89 789.87 511.21
00016433 00000074 495.38 140.90 364.93 509.49 608.46 369.98 767.23 334.86 715.40 441.63 664.73 538.22 792.90 509.34
00016434 00000075 497.96 141.21 363.61 508.37 610.29 370.43 768.33 334.23 716.86 440.79 666.17 538.02 794.10 508.34
00016435 00000076 500.26 139.28 362.96 512.01 611.22 370.28 769.67 334.05 718.26 441.25 667.12 538.87 796.09 509.08
00016436 00000077 500.71 136.89 363.36 514.44 611.11 369.95 771.09 334.29 718.95 441.76 668.85 541.53 796.72 512.26
00016437 00000078 502.33 137.51 362.03 512.80 612.59 369.84 771.04 334.56 718.91 442.84 671.61 542.50 796.17 513.67
00016438 00000079 501.45 139.03 362.83 513.63 612.03 370.98 769.62 336.35 717.04 443.91 670.03 542.92 794.37 514.54
00016439 00000080 498.35 142.57 365.36 510.22 613.35 378.16 768.12 346.95 714.57 444.55 666.79 541.62 789.52 516.30
00016440 00000081 500.25 143.06 362.70 510.34 614.61 378.63 768.98 348.09 715.72 444.36 668.11 542.07 790.15 517.29
00016441 00000082 500.38 139.75 361.67 512.48 614.65 377.34 772.30 347.77 717.91 446.34 667.31 543.32 790.33 519.35
00016442 00000083 499.39 141.61 362.23 511.39 611.93 378.90 771.88 344.73 718.44 449.06 668.72 547.32 793.68 519.33
00016443 00000084 499.89 144.89 359.60 508.53 609.75 379.29 770.10 345.09 715.49 452.74 668.31 548.66 792.49 520.61
00016444 00000085 498.54 146.24 359.58 511.11 605.49 381.35 766.09 349.53 708.14 453.96 661.15 550.14 787.63 523.99
00016445 00000086 490.34 143.47 372.79 518.27 594.58 377.09 760.39 348.09 694.95 451.26 652.73 551.56 781.02 527.57
00016446 00000087 481.87 142.26 376.83 524.04 587.21 372.32 755.56 348.87 687.16 450.27 643.33 548.92 774.06 529.06
00016447 00000088 483.32 142.88 368.99 526.46 583.25 368.06 751.63 351.17 682.08 449.90 635.37 545.35 769.80 531.05
00016448 00000089 482.21 138.46 370.22 529.67 586.70 364.01 754.13 348.97 685.48 441.64 638.44 542.17 769.20 529.60
00016449 00000090 490.58 138.63 361.24 516.86 597.60 364.35 764.59 346.81 699.52 438.60 649.03 538.92 780.54 524.60
00016450 00000091 495.17 135.43 355.58 524.43 603.51 361.11 769.19 345.17 709.75 432.54 651.28 537.25 784.22 524.48
00016451 00000092 496.94 129.83 354.57 539.51 607.60 356.18 766.05 338.37 714.28 426.97 651.50 535.58 785.45 521.72
00016452 00000093 500.40 131.56 347.29 538.68 608.70 349.78 768.18 336.13 715.86 424.08 645.45 530.24 784.38 519.81
00016453 00000094 498.95 130.52 347.27 531.28 609.52 347.85 769.51 333.99 717.48 421.58 645.99 526.52 784.96 516.08
00016454 00000095 497.77 127.41 347.87 529.91 613.46 350.01 765.78 335.07 719.69 421.92 655.22 530.06 777.14 519.00
00016455 00000096 495.12 125.61 347.60 529.33 614.02 352.34 767.83 335.22 723.80 425.24 657.45 535.38 776.72 522.65
00016456 00000097 492.05 126.94 346.99 531.81 612.90 356.20 763.28 338.87 720.45 426.95 657.78 538.26 772.34 525.20
00016457 00000098 491.04 136.12 347.25 524.37 609.20 361.85 763.22 342.08 715.66 432.78 657.72 542.54 772.27 526.85
00016458 00000099 487.61 143.53 350.01 516.06 607.20 364.99 763.01 344.99 713.08 438.70 656.76 544.40 772.12 528.22
00016459 00000100 482.87 148.21 351.31 506.37 602.26 370.99 747.41 342.71 704.86 434.80 652.95 542.13 764.52 518.61
00016460 00000101 478.39 143.71 351.63 507.80 594.96 374.02 740.99 344.77 694.27 436.27 646.31 541.92 757.99 517.52
00016461 00000102 468.68 140.35 354.14 513.20 582.08 376.61 731.99 346.25 681.94 442.10 636.69 547.18 753.55 521.77
00016462 00000103 461.11 148.10 361.73 517.64 564.09 383.18 721.85 355.99 665.26 454.52 618.48 554.18 741.61 531.59
00016463 00000104 451.07 151.26 366.86 520.27 551.52 386.20 717.37 360.53 650.85 462.21 606.47 562.43 734.25 541.02
00016464 00000105 445.66 149.99 367.23 524.43 544.86 393.51 710.30 366.70 641.97 470.16 597.60 564.83 727.33 542.56
00016465 00000106 454.77 147.25 363.39 534.64 541.41 388.48 707.79 359.93 643.05 466.42 595.01 572.43 729.66 548.13
00016466 00000107 455.25 152.31 361.59 525.74 545.60 388.22 710.06 360.48 646.76 464.64 599.74 569.73 729.94 546.51
00016467 00000108 458.82 152.16 360.54 522.84 548.25 386.08 714.74 359.38 649.50 461.81 601.32 568.65 732.66 546.26
00016468 00000109 460.90 147.52 361.06 523.84 551.21 386.84 716.78 361.24 652.73 462.73 604.98 568.02 733.84 546.40
00016469 00000110 460.00 155.58 363.67 512.26 557.77 392.82 721.73 370.01 653.08 474.17 608.45 563.49 735.57 544.46
00016470 00000111 463.71 155.20 362.69 511.46 562.32 390.39 725.21 368.45 658.14 472.94 611.59 559.89 739.99 541.45
00016471 00000112 464.75 144.87 363.02 522.86 565.52 385.38 724.68 362.63 657.90 465.70 611.46 557.60 744.60 538.55
00016472 00000113 464.70 144.27 364.50 524.64 566.76 385.05 725.08 362.04 659.71 465.17 613.87 558.92 744.52 539.72
00016473 00000114 467.12 140.89 363.36 523.91 568.23 385.60 725.91 362.14 661.31 465.65 615.67 559.37 744.89 540.02
00016474 00000115 467.62 140.47 364.40 524.03 569.87 384.96 728.09 361.64 664.15 465.66 617.52 558.36 747.22 539.00
00016475 00000116 468.70 140.34 364.80 523.75 572.62 385.83 729.44 361.25 667.43 463.80 621.77 558.76 748.93 538.28
00016476 00000117 469.11 140.98 364.97 523.11 574.21 385.97 730.17 361.03 669.54 463.08 623.32 557.92 749.81 537.11
00016477 00000118 469.48 139.27 365.34 525.78 575.43 386.77 731.00 361.78 670.78 462.90 624.88 557.79 751.38 536.78
00016478 00000119 469.61 139.33 365.74 525.43 575.57 387.28 732.63 362.71 671.85 463.77 624.00 558.08 754.06 537.38
00016479 00000120 470.52 137.36 364.76 523.66 575.74 387.96 734.47 363.00 672.62 464.71 623.67 555.00 757.58 533.88
00016480 00000121 471.39 138.34 366.32 525.44 577.37 388.33 736.22 363.06 675.32 464.64 625.10 554.56 759.17 533.00
00016481 00000122 471.65 139.04 366.62 528.26 578.68 388.58 737.63 363.58 676.75 464.65 625.43 555.45 759.84 534.08
00016482 00000123 471.82 140.38 367.30 528.56 579.54 388.57 737.97 363.80 677.24 463.91 625.48 554.80 759.43 533.53
00016483 00000124 471.22 141.43 368.00 528.83 579.46 388.37 737.35 364.04 676.53 463.84 625.53 554.99 758.41 533.96
00016484 00000125 472.17 141.44 367.17 528.86 580.19 388.13 739.11 363.62 678.15 463.26 625.37 553.75 759.64 532.54
00016485 00000126 472.46 138.22 365.86 531.66 580.55 387.23 740.10 362.33 679.71 464.30 625.04 552.79 760.26 531.30
00016486 00000127 473.44 135.15 366.22 536.82 582.61 387.01 741.34 360.68 681.58 463.37 624.69 550.08 763.54 526.97
00016487 00000128 474.41 132.31 366.13 537.96 582.31 388.59 742.20 360.35 679.83 463.50 621.27 546.68 765.92 522.02
00016488 00000129 476.07 134.95 365.13 533.70 582.22 387.84 741.25 356.39 678.31 459.81 620.53 543.13 768.11 515.47
00016489 00000130 474.86 134.56 368.01 535.06 580.04 380.60 739.97 348.11 681.51 456.12 619.06 541.19 770.48 512.59
00016490 00000131 475.25 137.19 368.71 536.03 579.97 378.28 742.66 346.24 683.70 452.92 618.17 542.50 770.62 514.22
00016491 00000132 477.74 137.50 366.63 537.43 581.61 379.72 745.85 346.32 686.24 452.34 619.29 543.11 774.15 513.55
00016492 00000133 477.73 135.97 367.70 541.56 582.68 381.48 748.39 346.55 689.75 453.13 620.60 544.75 776.21 513.98
00016493 00000134 479.76 138.56 366.87 539.13 583.78 384.27 749.30 349.80 689.54 456.04 621.49 545.23 777.05 514.88
00016494 00000135 479.86 135.42 364.57 540.60 587.60 388.24 748.96 355.42 689.31 459.88 619.79 543.66 775.16 515.03
00016495 00000136 481.62 134.30 363.93 539.28 586.66 388.29 750.31 356.35 687.86 461.93 618.93 544.55 773.45 516.79
00016496 00000137 481.86 136.40 363.74 534.07 586.73 388.82 748.73 358.72 684.76 459.17 623.18 545.59 767.73 519.61
00016497 00000138 481.48 137.35 363.74 532.28 586.95 389.79 746.16 360.82 684.91 458.50 629.38 548.14 764.76 523.37
00016498 00000139 484.14 136.37 361.15 532.85 588.68 388.50 747.12 360.72 687.10 458.21 631.73 549.17 764.82 525.70
00016499 00000140 485.34 135.22 359.57 534.28 590.01 387.03 748.90 359.62 689.09 456.44 633.23 549.68 765.62 526.79
00016500 00000141 487.52 136.69 362.00 531.11 592.76 379.70 755.58 365.84 689.27 456.23 634.09 544.73 767.37 533.44
00016501 00000142 486.85 136.81 364.60 527.87 593.25 378.60 756.79 364.09 689.89 455.73 636.97 545.36 768.01 533.47
00016502 00000143 486.87 131.44 364.37 532.62 591.08 383.49 750.55 360.31 688.43 454.63 635.23 548.69 761.31 529.02
00016503 00000144 489.47 138.33 365.51 524.91 594.94 380.85 759.34 367.27 690.49 458.84 638.36 547.32 766.48 536.28
00016504 00000145 489.72 144.76 363.64 517.45 597.82 387.33 761.12 374.72 692.36 465.90 640.74 549.85 765.15 539.53
00016505 00000146 490.62 149.87 362.95 516.01 601.85 392.08 764.14 380.38 697.07 470.19 642.04 551.49 767.66 541.87
00016506 00000147 492.05 151.88 363.53 516.62 605.49 394.22 766.98 382.14 700.78 471.90 644.76 554.48 770.72 544.50
00016507 00000148 494.31 150.54 363.13 523.47 607.43 398.07 767.68 381.05 704.33 473.48 649.14 557.81 778.51 543.40
00016508 00000149 495.22 149.86 363.70 523.25 608.14 397.78 770.91 380.47 706.22 472.16 646.95 554.01 782.96 539.08
00016509 00000150 498.10 149.53 361.78 523.15 611.78 395.16 774.39 378.27 710.59 470.81 648.91 551.76 786.10 537.01
00016510 00000151 497.55 151.53 363.17 519.03 613.71 392.59 773.10 376.17 712.79 466.50 649.24 546.24 784.93 532.02
00016511 00000152 499.55 150.00 362.27 517.49 615.93 390.77 772.60 373.50 713.88 465.49 650.01 543.53 783.31 528.80
00016512 00000153 500.28 146.29 360.84 517.29 617.34 386.83 775.04 369.23 716.88 463.53 652.07 543.14 783.65 528.46
00016513 00000154 500.99 143.75 358.69 515.81 614.29 384.45 775.96 364.68 715.63 461.06 652.86 543.24 787.31 526.63
00016514 00000155 500.03 144.18 359.54 524.24 610.97 380.33 774.54 359.84 713.00 458.52 646.46 541.89 789.64 524.74
00016515 00000156 500.15 144.48 358.77 529.24 610.03 378.65 771.28 358.01 711.05 456.05 645.74 542.02 788.26 524.98
00016516 00000157 498.64 145.19 359.68 525.43 608.95 378.94 769.88 358.67 710.58 457.51 648.29 543.27 786.53 526.42
00016517 00000158 497.10 141.46 360.51 523.89 609.17 382.47 771.63 360.80 713.97 460.14 653.74 549.47 784.81 531.60
00016518 00000159 496.18 138.00 359.81 527.28 608.68 383.03 771.01 361.24 713.09 461.09 654.51 552.20 783.23 534.23
00016519 00000160 494.45 138.56 361.63 527.94 607.62 382.74 769.01 360.06 710.33 460.82 657.24 555.75 780.21 537.24
00016520 00000161 494.20 138.40 359.96 525.27 607.87 380.56 769.95 359.94 709.64 460.34 655.45 554.88 776.34 538.42
00016521 00000162 495.54 137.68 359.25 525.44 606.99 379.69 769.47 359.97 708.23 459.50 653.68 553.24 775.95 537.50
00016522 00000163 495.71 139.18 359.47 524.78 606.24 379.40 769.49 359.23 707.73 459.00 654.11 552.82 777.83 536.58
00016523 00000164 494.79 139.72 360.78 523.52 605.26 378.32 770.51 358.67 707.11 457.24 653.35 552.78 778.18 536.92
00016524 00000165 494.45 139.72 360.84 525.95 603.78 378.78 768.56 357.78 705.35 456.43 655.34 555.48 778.37 538.46
00016525 00000166 495.81 138.16 360.63 525.48 602.35 379.96 770.56 359.01 705.49 455.95 653.97 556.11 780.88 538.87
00016526 00000167 494.78 139.43 361.45 521.77 602.10 378.69 770.15 357.93 704.66 454.77 652.21 553.89 779.89 536.84
00016527 00000168 493.84 139.41 363.42 524.43 601.22 379.08 768.06 358.26 703.29 456.22 651.41 553.44 779.55 536.18
00016528 00000169 492.68 138.42 363.98 527.26 600.84 376.95 765.42 356.33 701.60 455.19 652.51 553.30 777.08 536.25
00016529 00000170 493.42 139.45 363.93 526.23 601.57 376.99 766.03 356.71 702.38 455.40 652.83 552.92 777.43 536.22
