Video ID: 	o9rzFQXVuIc
H: 	1080
W: 	1920
FPS: 	25.0

FRAME INDEX X0 Y0 W H [Landmarks (5 Points)]

00003426 00000000 768.89 176.30 380.57 551.57 812.75 355.10 964.13 385.48 816.57 459.08 807.12 569.70 920.16 596.17
00003427 00000001 761.21 187.17 384.84 538.25 814.27 372.38 964.14 387.00 827.16 468.65 811.58 577.85 924.24 590.02
00003428 00000002 751.37 192.43 393.57 537.11 798.05 356.59 969.25 387.93 824.25 467.13 797.95 574.12 926.18 601.38
00003429 00000003 749.18 195.08 396.68 541.23 797.15 358.47 973.52 386.69 828.03 466.17 798.25 578.25 933.28 602.51
00003430 DELETE   754.89 191.98 387.09 543.59 797.74 349.51 973.41 379.94 828.66 460.81 800.66 573.95 934.07 600.20
00003431 DELETE   760.77 190.56 383.43 529.09 806.77 330.43 975.90 360.89 836.36 444.07 806.98 553.64 938.22 581.08
00003432 00000006 760.19 187.79 380.61 519.87 808.08 328.47 975.26 350.12 838.62 435.80 809.27 549.65 941.65 570.22
00003433 00000007 757.57 185.51 382.32 515.58 805.54 327.66 977.61 347.75 840.31 433.32 804.25 544.47 944.69 563.82
00003434 DELETE   753.15 176.51 386.02 524.12 804.04 326.48 973.26 352.58 835.55 441.49 802.73 545.22 936.99 569.54
00003435 DELETE   750.01 181.96 388.84 518.73 796.08 335.94 969.47 368.19 826.88 452.15 794.47 548.57 932.36 577.62
00003436 DELETE   740.73 177.56 394.36 537.66 786.35 351.53 964.18 380.31 822.12 465.82 791.01 564.69 930.95 590.34
00003437 00000011 740.72 185.18 397.40 539.61 798.42 375.12 964.42 385.16 820.51 469.41 796.33 575.23 935.21 584.92
00003438 00000012 741.14 196.16 392.91 534.03 801.44 378.97 965.84 390.06 824.38 469.71 795.29 577.34 933.67 588.91
00003439 00000013 744.57 191.30 392.68 538.36 807.09 375.86 965.92 388.28 824.53 468.65 798.14 573.29 931.64 585.90
00003440 00000014 744.26 179.63 394.96 544.80 793.98 362.11 964.25 388.45 826.42 469.13 796.37 568.22 928.28 591.91
00003441 00000015 743.74 180.52 399.19 544.08 798.96 353.93 975.49 386.56 836.18 468.55 797.98 565.42 934.29 594.08
00003442 00000016 750.76 189.64 397.10 539.63 810.80 370.41 977.27 384.63 842.62 469.47 808.54 574.03 933.91 585.93
00003443 00000017 745.97 193.56 397.78 546.57 804.56 359.67 980.72 388.17 843.43 469.54 805.63 576.00 942.92 600.48
00003444 00000018 746.12 184.04 397.76 541.23 799.43 356.50 977.98 384.49 840.76 470.06 804.07 570.96 943.37 595.37
00003445 00000019 746.96 191.32 394.84 525.27 799.17 351.42 975.39 381.06 840.46 468.69 803.62 565.95 941.45 592.04
00003446 00000020 749.28 194.42 394.05 520.51 802.83 349.35 977.70 378.94 844.60 465.53 806.06 562.67 940.47 588.94
00003447 00000021 753.05 197.13 390.29 516.77 804.33 348.42 979.45 378.23 846.95 464.05 808.06 561.85 943.50 588.42
00003448 00000022 757.67 196.89 387.08 513.27 805.55 344.93 980.32 373.55 848.77 462.60 809.43 559.96 945.52 585.81
00003449 00000023 761.66 198.17 386.13 515.09 807.50 339.79 982.76 367.25 849.37 457.13 811.36 556.84 947.17 581.82
00003450 00000024 765.58 195.03 384.08 520.74 812.99 335.98 983.63 360.89 850.21 452.74 817.88 552.92 952.50 575.52
00003451 00000025 766.48 189.99 382.34 524.21 814.29 334.22 982.39 356.64 849.81 449.34 819.22 550.91 954.09 571.36
00003452 00000026 767.88 192.09 380.05 520.21 814.99 332.13 983.18 355.42 851.51 447.86 819.09 549.76 955.36 571.05
00003453 00000027 767.15 191.11 382.30 519.55 815.08 333.07 982.14 354.02 851.33 446.10 817.73 549.67 954.02 569.16
00003454 00000028 764.45 186.59 383.60 522.57 812.70 331.77 978.61 352.08 848.67 443.72 818.16 548.18 953.23 567.19
00003455 00000029 764.07 185.98 380.55 520.15 812.41 332.37 978.82 352.33 848.14 441.13 815.87 546.60 951.35 565.54
00003456 00000030 762.55 187.93 380.54 515.26 811.59 332.55 978.70 352.71 849.17 441.57 815.31 545.44 950.80 564.78
00003457 00000031 761.56 187.47 380.69 514.03 810.52 332.04 979.11 352.91 849.56 442.75 814.53 545.47 950.98 565.47
00003458 00000032 758.25 187.76 381.44 511.42 807.63 332.12 978.72 353.28 848.64 443.60 812.05 547.42 946.78 567.76
00003459 00000033 756.74 184.38 380.03 512.81 809.35 330.12 976.96 354.57 846.86 442.28 809.58 544.49 940.72 567.55
00003460 00000034 759.34 186.60 376.21 510.25 809.64 333.05 972.05 357.45 841.32 441.38 808.21 543.62 936.63 566.85
00003461 00000035 761.18 186.30 375.03 510.07 812.18 332.36 972.26 359.03 840.61 440.12 809.90 543.82 932.93 568.80
00003462 00000036 761.74 184.42 375.13 515.48 809.11 334.55 970.94 358.24 837.20 440.51 808.43 547.73 932.45 570.40
00003463 00000037 764.23 185.56 374.49 518.97 810.58 335.66 970.59 358.95 835.28 439.94 809.80 549.05 931.99 571.30
00003464 00000038 764.97 188.40 376.00 515.31 811.11 336.19 971.72 358.37 835.30 439.83 810.75 550.61 930.76 572.02
00003465 00000039 765.60 185.81 377.37 518.50 813.24 334.27 972.83 355.55 839.29 439.51 814.70 548.77 935.15 569.15
00003466 00000040 767.68 186.61 379.21 515.86 815.92 333.27 973.36 353.58 839.81 438.18 817.59 548.39 935.78 567.87
00003467 00000041 768.71 187.68 377.59 513.24 816.94 333.25 975.43 352.72 842.85 437.91 817.84 547.47 937.02 566.37
00003468 00000042 770.21 189.77 376.94 510.77 819.33 334.13 977.32 353.34 845.55 438.32 819.61 547.84 938.58 566.40
00003469 00000043 771.05 192.37 375.99 506.85 819.17 333.78 976.15 352.05 845.65 438.20 820.03 547.71 938.10 565.60
00003470 00000044 769.81 190.98 377.29 503.55 819.75 334.13 977.39 352.62 847.02 438.21 820.07 542.99 941.61 560.77
00003471 00000045 770.24 187.49 377.66 505.32 818.19 334.52 977.50 350.98 846.93 437.26 818.56 542.13 944.37 558.38
00003472 00000046 766.02 182.32 381.54 506.84 817.44 333.02 976.33 350.66 843.98 432.57 816.26 537.73 941.10 554.98
00003473 00000047 759.87 171.29 387.76 511.96 819.67 334.71 977.99 336.97 851.64 418.87 815.66 535.21 937.29 536.54
00003474 00000048 760.65 169.55 383.79 514.95 822.41 328.10 977.47 326.74 855.96 410.55 823.18 531.06 941.98 529.75
00003475 00000049 761.50 171.33 386.35 517.44 823.54 324.36 986.10 324.80 858.10 410.46 830.05 530.25 957.63 531.75
00003476 00000050 763.03 177.95 386.84 509.40 822.13 327.87 985.76 324.96 858.37 412.43 829.66 531.42 959.36 530.02
00003477 DELETE   769.56 181.65 384.61 509.58 825.99 323.43 985.33 332.80 856.61 415.96 830.25 529.30 957.38 534.66
00003478 DELETE   780.26 177.69 379.39 517.07 839.34 341.59 993.03 341.39 877.48 419.33 840.35 532.26 972.01 531.51
00003479 00000053 784.58 190.13 380.60 500.08 845.50 344.38 1000.08 344.25 887.11 421.28 848.84 532.97 977.92 532.69
00003480 00000054 778.54 193.98 387.17 497.61 842.93 348.37 1002.32 346.19 892.27 423.92 848.38 539.11 979.51 537.25
00003481 00000055 780.27 187.79 383.94 507.58 840.89 345.44 993.95 345.56 882.74 424.25 844.90 538.79 972.96 538.70
00003482 00000056 780.00 188.46 379.77 504.24 839.20 346.91 989.56 346.16 878.41 423.92 843.28 539.65 970.96 538.72
00003483 00000057 779.43 197.37 380.78 493.30 838.57 350.24 991.64 347.39 881.42 425.18 845.10 542.07 973.12 539.25
00003484 DELETE   783.83 193.34 381.47 500.33 845.41 348.45 1004.75 348.29 894.15 427.53 851.99 539.87 984.49 539.73
00003485 DELETE   791.27 185.15 384.89 508.34 854.94 355.91 1025.25 352.68 908.13 431.91 862.02 542.67 1006.17 541.54
00003486 00000060 791.72 198.43 387.25 494.64 858.21 356.68 1030.98 349.23 916.39 433.99 872.23 549.85 1015.45 545.00
00003487 DELETE   791.83 191.02 386.41 499.55 855.49 359.88 1028.69 351.84 911.91 437.05 868.79 552.62 1015.36 547.35
00003488 DELETE   789.06 194.27 381.90 489.87 844.93 364.59 1011.42 355.35 892.74 438.87 854.65 553.20 997.59 546.23
00003489 DELETE   780.02 182.21 384.21 502.34 832.93 364.72 994.97 358.26 876.03 444.08 842.31 552.88 980.17 547.12
00003490 00000064 780.47 202.15 376.10 482.03 830.37 368.88 984.85 360.30 872.76 446.31 838.67 557.89 970.76 549.36
00003491 DELETE   779.76 198.65 381.92 493.07 834.44 367.79 994.10 359.80 879.03 444.58 844.51 556.33 983.66 548.92
00003492 00000066 781.61 204.51 380.70 485.55 838.20 367.71 999.25 359.21 886.70 445.73 850.38 556.81 989.84 549.27
00003493 DELETE   781.73 202.29 380.57 490.42 836.10 368.47 994.74 359.81 884.16 446.10 846.23 556.95 984.61 549.41
00003494 00000068 780.03 198.88 380.00 494.89 833.60 370.26 989.96 363.74 877.14 451.93 842.71 561.10 977.18 554.60
00003495 00000069 782.10 195.76 375.48 500.92 833.51 366.92 988.37 361.78 871.92 452.40 842.68 566.63 971.35 561.59
00003496 00000070 783.42 194.29 379.72 510.15 837.01 362.97 996.33 358.37 880.72 450.44 850.97 563.89 983.33 559.98
00003497 00000071 786.49 203.03 375.94 506.28 839.09 364.66 990.26 357.92 881.74 448.27 859.54 565.31 981.26 559.93
00003498 DELETE   781.83 199.72 377.79 517.22 832.68 367.73 981.75 361.57 872.02 451.08 852.50 570.83 971.30 565.28
00003499 00000073 778.58 196.51 378.75 513.97 822.09 353.58 981.69 360.25 853.96 451.47 836.71 566.39 955.45 573.08
00003500 00000074 771.02 188.33 385.51 523.07 818.87 364.17 989.52 368.82 855.46 459.85 829.24 566.64 960.93 570.17
00003501 00000075 777.36 204.77 384.22 503.77 831.63 369.42 992.96 364.35 876.85 455.90 845.32 569.96 976.33 564.81
00003502 00000076 776.40 200.79 387.42 506.54 831.52 370.02 991.79 365.05 876.72 455.66 846.34 567.93 973.39 563.24
00003503 00000077 774.29 194.63 385.23 509.86 818.10 356.26 987.46 364.02 856.98 457.28 833.94 565.44 961.19 572.80
00003504 00000078 773.17 192.87 386.29 511.29 816.98 355.29 988.72 366.48 856.05 458.90 830.27 564.73 960.10 574.92
00003505 00000079 776.01 198.14 385.46 509.08 832.83 369.35 992.56 367.33 874.52 456.16 845.47 567.73 972.87 565.52
00003506 00000080 779.09 200.99 382.30 504.18 834.78 366.79 994.94 364.34 878.16 455.23 849.89 566.25 977.15 563.75
00003507 00000081 778.57 198.75 381.71 506.30 833.56 366.68 993.24 365.32 876.07 454.24 846.36 565.86 972.91 564.13
00003508 00000082 774.68 191.46 384.91 509.75 817.61 350.96 988.12 363.73 855.58 457.51 832.00 560.32 961.75 571.80
00003509 00000083 776.66 191.79 381.06 511.97 829.82 366.64 988.85 366.85 868.33 455.55 840.66 565.50 966.27 564.83
00003510 00000084 776.95 198.97 380.59 504.62 831.23 369.85 989.58 368.70 870.80 456.84 843.00 566.35 969.76 564.67
00003511 00000085 777.21 195.86 379.95 513.48 831.40 367.78 989.50 367.14 869.53 456.65 843.79 567.95 973.55 566.66
00003512 00000086 775.00 191.03 381.17 517.02 816.73 351.90 987.79 364.34 855.12 458.62 831.57 564.67 965.84 575.61
00003513 00000087 778.55 190.26 375.33 517.11 819.16 348.85 987.52 362.27 854.79 457.31 832.04 561.98 966.43 573.94
00003514 00000088 776.56 194.27 381.68 514.29 831.27 369.67 992.89 367.15 871.92 456.48 842.67 567.17 978.91 564.17
00003515 00000089 776.30 194.63 381.53 515.16 831.72 368.97 994.31 367.39 872.91 456.74 843.86 566.92 980.76 564.85
00003516 00000090 776.14 192.27 381.70 518.40 832.57 372.23 991.67 371.48 869.29 461.21 842.08 567.04 975.69 565.86
00003517 00000091 776.28 186.42 374.31 524.49 830.88 369.50 986.92 371.72 861.10 459.31 836.40 567.05 967.15 568.43
00003518 00000092 776.19 188.80 374.26 524.04 816.57 352.38 986.12 363.33 854.19 457.11 831.94 566.50 964.92 576.95
00003519 00000093 780.44 200.59 367.49 516.94 829.98 361.19 980.45 360.03 863.44 449.68 844.58 569.76 969.04 567.74
00003520 00000094 779.68 198.81 372.77 514.28 821.31 350.48 982.22 360.62 852.11 450.72 834.70 564.46 956.53 574.48
00003521 00000095 777.93 191.94 371.62 510.39 817.09 348.74 976.49 361.14 844.86 450.22 825.29 558.81 945.41 571.74
00003522 00000096 774.01 191.74 373.26 508.56 811.98 347.41 974.81 361.07 843.01 450.14 820.55 557.63 943.60 571.41
00003523 00000097 771.64 193.67 376.36 507.76 810.03 350.95 974.44 361.61 844.94 450.36 821.22 559.94 944.33 571.33
00003524 00000098 774.20 189.58 373.86 514.34 812.19 350.97 972.75 361.89 842.35 451.91 824.01 563.12 942.26 574.70
00003525 00000099 771.16 190.16 376.98 526.93 812.39 349.36 975.65 361.24 844.47 452.48 827.58 567.92 947.08 579.42
00003526 00000100 769.62 188.51 378.16 534.05 814.72 351.59 978.30 363.78 847.62 455.88 828.68 568.45 952.86 580.17
00003527 00000101 767.22 186.60 380.18 533.86 811.73 353.32 979.81 367.03 848.06 460.03 826.07 569.48 956.46 582.44
00003528 00000102 768.79 194.98 378.24 523.81 813.17 355.93 981.11 369.75 850.54 460.83 826.07 568.63 956.95 581.77
00003529 00000103 770.07 193.75 375.26 520.83 812.76 355.83 981.79 370.37 850.66 461.59 824.09 566.95 957.68 580.72
00003530 00000104 765.88 190.21 380.33 521.10 811.59 353.00 982.89 368.32 851.23 460.18 825.19 562.66 959.70 576.88
00003531 00000105 765.35 189.51 380.21 520.46 813.11 352.36 981.90 367.97 850.82 459.40 826.52 559.23 960.58 573.56
00003532 00000106 762.54 189.91 382.26 518.49 810.53 353.19 981.56 367.65 851.33 461.51 825.61 559.83 961.34 573.21
00003533 00000107 760.75 189.53 384.44 520.19 810.60 355.87 980.84 369.08 851.62 462.83 824.57 559.57 961.45 571.88
00003534 00000108 764.51 190.99 379.96 518.37 812.83 353.84 980.52 370.35 850.38 462.32 824.96 557.00 960.91 571.83
00003535 00000109 764.63 191.86 376.30 521.32 811.62 355.11 978.84 370.87 850.17 462.33 822.15 559.47 958.81 574.04
00003536 00000110 764.40 188.05 376.20 528.06 812.23 353.43 978.72 370.62 849.29 459.49 821.35 558.55 956.61 574.17
00003537 00000111 769.22 200.15 375.39 512.83 821.55 373.93 989.88 377.80 861.14 462.36 819.93 561.91 967.33 567.40
00003538 00000112 767.64 205.42 376.68 509.05 822.74 372.33 991.22 377.65 859.65 460.37 821.99 563.43 966.09 570.27
00003539 00000113 768.16 199.39 379.05 516.02 824.15 369.03 993.73 376.57 859.79 460.51 820.83 563.16 964.97 571.83
00003540 00000114 770.94 198.08 368.78 516.06 826.78 364.29 979.73 367.93 853.36 454.97 830.14 564.46 959.59 567.30
00003541 00000115 764.34 189.98 375.51 524.72 811.85 354.13 975.73 370.73 844.34 462.32 825.39 563.30 955.86 578.24
00003542 00000116 762.66 202.27 380.13 513.13 820.37 366.36 977.22 371.09 848.08 458.15 829.49 564.79 959.58 567.86
00003543 00000117 764.58 197.42 375.33 521.24 813.04 355.27 972.95 376.23 842.25 465.74 825.74 560.19 958.82 578.20
00003544 00000118 766.97 193.32 373.88 526.80 821.44 367.40 973.92 377.07 841.74 461.11 827.88 564.81 959.53 571.70
00003545 00000119 763.89 189.57 376.44 532.03 807.83 361.37 971.06 378.75 840.34 468.81 821.52 565.26 958.91 580.35
00003546 00000120 763.53 191.57 377.27 530.09 806.67 365.04 968.97 380.77 838.28 469.93 820.71 566.52 957.81 580.47
00003547 00000121 763.19 191.36 378.09 530.63 807.45 363.64 970.35 380.50 839.47 470.13 821.03 565.76 957.41 580.59
00003548 00000122 763.56 193.24 377.43 529.66 806.81 364.63 969.68 380.55 839.20 469.87 820.44 565.52 958.11 579.56
00003549 00000123 761.18 188.80 380.26 532.89 806.89 363.45 972.48 379.93 841.15 469.50 820.67 565.71 959.18 580.12
00003550 00000124 760.74 186.58 383.24 528.54 804.97 363.85 975.14 378.48 841.77 469.53 821.12 566.75 961.65 579.84
00003551 00000125 759.50 189.26 389.25 524.91 805.74 361.89 977.44 374.45 846.36 465.47 822.40 563.56 963.58 574.97
CROP_BBOX: 526 0 1468 947
