Video ID: 	A493y390eD0
H: 	1080
W: 	1920
FPS: 	25.0

FRAME INDEX X0 Y0 W H [Landmarks (5 Points)]

00009813 00000000 672.82 128.47 390.01 575.88 800.65 366.81 994.29 356.40 929.49 450.67 835.27 581.31 986.02 572.46
00009814 DELETE   685.17 133.16 388.04 585.17 816.61 364.43 1001.08 365.19 940.10 444.57 850.65 578.87 988.79 579.77
00009815 DELETE   687.36 137.21 390.79 587.97 824.15 364.65 1009.96 364.26 952.37 446.81 857.90 581.16 999.79 580.39
00009816 DELETE   692.33 134.37 393.00 593.36 832.95 356.16 1018.43 355.18 967.68 445.69 868.26 582.16 1009.19 580.41
00009817 00000004 698.76 128.38 392.01 597.94 840.75 355.89 1021.91 353.78 978.53 443.43 878.93 581.20 1016.86 578.35
00009818 00000005 701.28 129.29 393.24 595.86 844.75 357.57 1023.05 352.00 984.37 443.17 886.16 580.20 1023.31 574.40
00009819 00000006 706.06 131.87 391.17 589.19 847.64 359.59 1026.68 351.15 990.18 439.82 891.74 577.49 1031.62 569.11
00009820 00000007 705.84 129.07 393.15 590.18 849.87 359.31 1029.42 348.29 995.35 436.11 896.53 574.66 1039.20 563.81
00009821 00000008 707.32 129.35 394.95 591.56 852.13 361.24 1033.05 348.34 998.98 433.27 900.51 574.69 1045.76 562.33
00009822 00000009 709.56 131.58 397.70 590.81 856.80 362.99 1037.75 348.06 1009.66 431.91 906.74 575.74 1055.85 561.93
00009823 00000010 712.03 135.48 400.12 587.30 859.91 364.10 1043.49 346.81 1017.07 432.29 911.11 576.86 1064.08 561.19
00009824 00000011 714.33 136.40 400.53 586.50 862.31 365.46 1050.38 346.93 1023.51 433.21 911.51 577.44 1070.21 560.93
00009825 00000012 715.09 137.05 402.36 585.94 866.29 366.14 1053.52 346.69 1028.97 432.25 914.14 576.84 1073.04 559.86
00009826 00000013 715.56 135.85 405.49 587.01 871.57 365.84 1057.02 347.18 1035.61 429.60 919.69 575.99 1077.88 559.72
00009827 00000014 717.46 137.56 405.47 580.99 876.33 366.47 1060.56 347.34 1040.01 429.72 924.42 575.31 1078.92 558.94
00009828 00000015 723.80 140.10 401.87 581.69 879.85 370.03 1063.72 352.76 1042.53 424.11 929.00 574.38 1085.08 559.59
00009829 00000016 721.67 140.77 405.11 578.18 880.62 370.05 1064.51 353.47 1043.99 423.66 932.22 573.11 1087.58 558.33
00009830 00000017 718.73 140.02 407.38 574.90 880.30 371.41 1061.74 350.20 1044.74 422.98 934.58 570.97 1087.77 552.02
00009831 00000018 716.46 140.20 408.16 568.18 878.93 371.25 1060.87 352.09 1041.31 419.37 934.56 567.31 1086.70 549.79
00009832 00000019 712.63 138.74 409.53 566.35 875.02 368.57 1059.33 351.36 1039.04 415.66 930.04 564.74 1085.28 548.44
00009833 00000020 710.73 135.38 407.13 566.01 872.66 365.31 1055.61 350.26 1034.78 410.43 927.06 560.83 1081.34 545.87
00009834 00000021 705.65 136.10 409.60 555.58 870.16 360.18 1050.06 346.85 1030.29 404.44 928.75 554.30 1077.60 540.46
00009835 00000022 705.01 133.24 408.29 551.94 865.08 355.63 1042.92 343.31 1023.83 396.78 926.79 548.67 1072.92 535.71
00009836 00000023 697.86 129.58 414.21 554.69 858.92 349.68 1036.09 341.12 1015.39 393.57 920.93 544.35 1066.36 533.85
00009837 00000024 691.01 132.00 416.17 557.25 851.52 345.79 1027.48 340.59 1008.52 392.24 912.91 541.56 1058.92 533.33
00009838 00000025 685.90 131.94 415.47 556.81 845.59 344.37 1022.70 343.40 1003.47 390.65 905.94 538.96 1054.05 534.13
00009839 00000026 683.85 132.58 415.10 552.85 841.22 341.95 1017.74 339.63 995.26 390.04 900.46 536.72 1048.12 531.01
00009840 00000027 681.06 132.00 412.54 552.32 837.60 333.40 1015.75 327.13 990.47 391.10 897.78 535.40 1043.56 526.66
00009841 00000028 679.68 127.23 412.47 558.20 834.77 330.37 1013.82 324.11 986.12 389.90 892.76 533.24 1040.03 524.76
00009842 00000029 676.90 124.47 412.91 558.02 830.70 329.31 1011.66 321.84 981.47 388.06 889.29 532.40 1037.26 523.01
00009843 00000030 680.02 117.97 407.20 562.13 824.78 328.14 1011.44 317.73 977.29 385.97 880.48 529.22 1037.89 520.38
00009844 00000031 677.44 116.92 408.10 563.88 821.55 327.29 1010.20 315.58 973.28 386.70 877.63 530.76 1036.21 521.10
00009845 00000032 675.99 115.91 408.09 562.70 818.79 325.79 1008.03 314.52 971.79 384.36 877.52 530.44 1035.93 521.01
00009846 00000033 674.54 115.99 409.46 564.78 816.29 325.73 1005.68 313.80 970.25 382.20 876.50 530.51 1036.70 520.41
00009847 00000034 673.35 116.49 410.25 561.88 815.09 324.50 1003.29 313.91 970.03 379.76 877.15 529.34 1035.75 520.38
00009848 00000035 673.35 115.36 409.39 562.45 814.28 323.75 1000.93 312.40 969.71 377.79 879.31 529.33 1035.80 519.62
00009849 00000036 674.72 114.05 406.41 562.67 813.92 322.55 1000.32 311.78 969.03 376.62 878.76 529.21 1034.25 520.03
00009850 00000037 674.53 113.44 406.49 560.90 812.57 322.98 999.28 310.48 966.92 376.35 879.24 529.72 1034.08 519.11
00009851 00000038 675.74 115.21 404.05 560.34 810.81 322.71 997.79 309.85 965.85 376.45 878.22 530.41 1033.36 519.48
00009852 00000039 675.01 117.34 403.99 559.33 809.59 323.55 997.62 311.13 965.10 377.37 876.27 531.29 1032.50 521.00
00009853 00000040 677.41 116.56 401.66 562.30 811.81 324.85 997.77 311.32 966.15 377.94 876.68 531.84 1031.77 520.46
00009854 00000041 676.71 119.75 402.03 562.95 813.70 326.56 998.77 315.19 969.79 380.52 877.16 533.74 1031.05 524.33
00009855 00000042 677.51 122.45 399.33 561.74 811.99 328.21 996.87 316.06 968.37 383.02 877.91 536.75 1030.47 526.63
00009856 00000043 673.84 123.54 402.84 568.87 809.98 330.35 996.79 318.05 968.78 387.28 877.08 542.12 1031.76 531.89
00009857 00000044 673.81 124.94 400.28 573.95 809.56 330.23 995.74 319.37 969.46 387.90 875.33 544.23 1030.72 535.18
00009858 00000045 671.61 126.18 400.48 578.30 808.01 331.51 993.28 319.61 969.26 388.60 874.63 546.52 1029.61 536.72
00009859 00000046 672.61 126.70 398.91 576.76 808.37 333.37 993.25 323.06 968.17 390.45 871.20 545.81 1026.84 537.47
00009860 00000047 668.67 126.44 401.44 581.50 805.37 337.53 990.35 323.48 968.38 392.75 871.19 550.92 1027.27 539.46
00009861 00000048 669.52 129.03 398.62 573.62 805.81 337.75 989.40 323.20 969.69 393.39 875.45 551.08 1026.19 539.17
00009862 00000049 670.35 128.14 394.89 561.14 806.35 340.00 988.82 324.70 967.29 397.28 877.95 550.21 1023.27 537.87
00009863 00000050 669.54 129.00 394.27 558.47 805.52 343.11 989.08 323.47 964.48 403.66 878.34 552.50 1023.34 536.57
00009864 00000051 668.46 129.63 393.57 564.21 803.78 342.12 988.33 324.45 961.81 404.87 874.90 556.57 1021.59 542.07
00009865 00000052 665.63 126.08 399.69 573.85 803.48 348.41 988.69 338.81 959.49 402.90 864.69 556.56 1015.46 549.14
00009866 00000053 656.80 128.47 397.50 571.97 799.59 359.75 984.15 352.18 958.39 406.52 854.73 562.97 1007.26 554.72
00009867 00000054 650.93 123.76 400.50 578.30 794.76 361.66 983.08 355.16 951.24 414.36 843.99 564.07 999.56 556.55
00009868 00000055 649.59 126.99 397.22 576.89 792.08 362.65 977.70 354.54 947.58 418.10 841.89 567.04 994.37 558.69
00009869 00000056 642.23 123.26 402.65 580.36 788.57 364.75 975.30 356.74 944.33 419.57 842.11 569.41 992.39 560.70
00009870 00000057 645.35 124.70 398.13 579.22 788.69 366.96 973.30 356.41 939.75 425.24 842.39 572.65 989.90 561.96
00009871 00000058 645.94 126.70 396.86 578.08 786.85 369.38 968.55 358.70 934.98 429.29 843.10 578.17 984.98 567.54
00009872 00000059 643.19 130.06 398.02 583.54 782.77 371.48 964.49 358.36 929.26 432.01 835.19 578.13 981.09 565.79
00009873 00000060 636.45 131.54 401.31 589.04 779.21 372.26 961.72 358.43 926.87 433.76 832.25 580.46 979.49 567.40
00009874 00000061 630.98 132.20 404.93 590.60 774.97 373.59 959.02 361.20 924.13 435.38 828.56 581.84 978.48 569.68
00009875 00000062 623.06 134.00 411.83 590.30 773.10 374.65 956.89 363.07 922.76 434.95 825.82 579.63 977.28 567.96
00009876 00000063 621.51 133.74 415.34 593.28 774.78 374.18 958.02 362.93 924.23 435.54 827.10 579.24 977.94 567.66
00009877 00000064 621.01 136.34 416.16 587.78 776.96 373.18 960.09 363.31 925.62 436.69 829.78 579.49 978.59 569.17
00009878 00000065 620.96 134.66 418.24 593.56 777.20 376.58 963.80 367.47 928.11 438.75 828.30 581.59 981.61 571.81
00009879 00000066 622.46 131.76 419.34 595.67 781.09 378.01 966.65 368.88 930.75 442.93 830.27 581.74 982.22 571.91
00009880 00000067 627.50 129.76 417.39 595.06 786.86 378.38 971.74 367.52 937.84 444.24 832.94 581.30 986.27 570.51
00009881 00000068 636.88 126.69 412.19 595.70 795.34 378.90 979.92 367.32 945.52 447.23 837.72 580.61 991.81 569.78
00009882 00000069 644.14 130.47 406.29 596.59 797.20 379.59 982.35 365.37 947.47 451.69 837.21 584.79 992.99 572.69
00009883 00000070 645.26 131.02 406.90 612.86 790.55 375.38 976.20 361.88 938.67 447.24 828.57 587.33 989.93 576.06
00009884 00000071 642.46 132.96 408.87 607.87 784.09 371.22 972.44 357.86 929.32 441.27 821.68 581.98 987.15 570.28
00009885 00000072 639.36 132.07 413.47 606.70 777.77 368.36 965.98 353.30 918.61 436.39 814.99 578.37 980.57 564.93
00009886 00000073 635.82 127.54 413.04 604.75 771.68 367.35 960.79 352.29 908.48 432.68 812.89 575.81 975.13 561.58
00009887 00000074 637.54 125.60 410.09 602.33 768.53 364.60 960.25 351.09 902.21 428.60 807.49 572.08 972.89 559.21
00009888 00000075 642.66 123.24 409.85 605.14 771.64 365.40 963.64 348.69 903.62 429.20 810.85 574.02 976.48 558.44
00009889 00000076 647.87 125.88 410.65 600.33 777.03 366.19 970.00 347.77 912.45 427.99 816.51 573.45 984.20 556.90
00009890 00000077 651.73 128.25 410.91 595.72 780.44 364.44 975.21 344.30 919.94 424.56 819.70 571.95 990.17 554.05
00009891 00000078 658.24 131.16 409.35 587.23 788.75 362.92 982.40 345.33 928.82 426.47 824.59 568.55 994.61 552.95
00009892 00000079 664.89 127.45 410.79 587.70 797.18 363.04 994.05 348.96 936.36 426.96 832.56 568.28 1003.68 555.50
00009893 00000080 676.10 121.81 404.68 595.26 803.74 361.29 1007.11 357.76 934.54 434.08 837.82 563.96 1013.05 560.96
00009894 00000081 684.79 134.83 402.50 582.27 816.64 367.44 1010.68 361.13 945.19 435.53 851.44 567.45 1013.67 561.67
00009895 00000082 687.67 136.44 402.73 579.59 822.43 368.71 1016.23 361.94 952.70 437.04 858.44 569.81 1017.31 563.61
00009896 00000083 693.90 136.07 403.05 584.19 828.20 367.50 1020.25 361.80 958.86 435.49 863.09 571.06 1021.89 565.60
00009897 00000084 698.67 134.08 403.36 586.19 832.83 365.72 1023.76 358.51 964.26 437.05 868.01 570.96 1027.02 563.85
00009898 00000085 701.11 132.75 405.45 589.93 837.77 366.58 1028.66 360.90 973.77 439.00 872.56 571.52 1032.98 565.54
00009899 00000086 704.78 133.58 404.84 588.97 842.37 368.60 1031.01 362.23 978.65 441.23 877.50 572.21 1036.39 565.69
00009900 00000087 706.75 132.31 405.93 591.10 845.91 370.73 1033.87 364.33 981.77 440.05 881.57 573.25 1039.75 566.58
00009901 00000088 710.28 130.58 405.52 592.72 848.53 373.35 1036.25 363.83 985.21 442.42 885.84 576.46 1043.89 567.15
00009902 00000089 712.48 129.38 404.09 595.65 852.37 372.98 1039.86 364.58 990.61 442.86 890.16 578.87 1045.76 570.56
00009903 00000090 714.82 129.40 402.82 600.76 855.58 371.60 1041.04 363.99 993.46 443.58 893.34 582.39 1044.47 575.15
00009904 00000091 714.35 129.78 403.60 603.78 853.71 369.41 1039.24 361.07 991.86 442.58 892.91 585.23 1042.63 577.42
00009905 00000092 714.45 125.67 401.33 599.75 853.80 370.32 1042.00 361.28 993.33 442.23 897.02 583.96 1046.61 574.95
00009906 00000093 714.73 126.06 401.65 596.02 851.83 371.46 1042.07 360.86 990.64 442.42 895.78 582.66 1047.50 572.31
00009907 00000094 714.99 126.15 401.68 594.25 852.34 372.05 1042.47 359.99 991.38 442.93 898.21 583.77 1048.29 572.16
00009908 00000095 712.77 129.10 402.28 593.71 851.94 370.98 1040.80 360.87 991.24 441.64 895.73 583.61 1046.02 573.80
00009909 00000096 710.05 127.73 405.15 594.33 849.85 370.03 1038.89 360.88 988.41 440.02 891.97 581.04 1043.65 571.91
00009910 00000097 706.93 126.29 406.59 590.98 846.43 366.75 1037.11 359.43 987.25 434.80 887.38 574.33 1043.83 566.32
00009911 00000098 705.37 126.64 405.35 586.37 844.25 364.95 1032.55 356.01 983.28 432.71 884.89 570.19 1040.12 560.86
00009912 00000099 704.49 125.88 404.97 585.60 843.29 364.68 1030.52 355.85 981.82 430.77 885.01 568.68 1039.04 559.42
00009913 00000100 702.99 124.25 404.94 583.62 841.43 363.29 1028.24 355.28 980.09 428.41 884.10 566.87 1037.60 558.16
00009914 00000101 701.73 125.31 403.13 584.34 839.91 362.29 1026.17 355.23 978.48 427.68 882.02 566.98 1035.19 559.27
00009915 00000102 699.61 127.37 403.41 582.82 838.86 361.67 1025.36 355.33 977.42 427.81 880.35 566.81 1033.33 559.76
00009916 00000103 698.38 127.81 403.88 584.31 837.69 361.01 1025.10 355.26 977.16 427.36 879.11 567.51 1032.58 560.93
00009917 00000104 697.49 129.42 402.47 584.13 837.71 361.73 1024.48 356.07 976.06 429.88 877.03 568.27 1029.85 562.14
00009918 00000105 697.19 130.04 403.31 585.55 837.87 362.75 1025.14 356.97 975.47 431.62 876.03 569.30 1029.59 563.06
00009919 00000106 696.67 131.76 402.91 583.91 837.60 363.36 1025.31 357.50 975.39 432.00 875.72 569.71 1029.72 563.47
00009920 00000107 697.35 132.19 401.77 581.86 837.67 363.33 1025.88 357.63 975.48 432.43 875.22 569.37 1030.16 563.28
00009921 00000108 698.03 129.61 402.47 584.25 837.97 362.11 1026.32 357.11 976.40 429.79 875.80 568.14 1031.16 562.59
00009922 00000109 698.87 124.71 402.27 589.92 837.19 360.96 1026.08 356.27 976.81 427.10 875.30 566.74 1032.08 561.26
00009923 00000110 699.20 122.65 402.56 591.84 837.18 359.76 1027.65 355.69 978.06 426.73 874.42 565.33 1034.11 560.24
00009924 00000111 699.19 120.32 402.10 591.72 837.53 358.51 1028.19 354.52 977.59 427.59 873.33 564.31 1032.95 559.31
00009925 00000112 697.48 120.10 405.21 597.47 837.60 360.57 1026.99 355.77 977.79 430.82 872.86 565.42 1032.95 559.80
00009926 00000113 697.99 121.89 406.39 596.22 839.01 361.98 1028.99 355.96 979.60 435.58 874.57 568.44 1034.11 561.83
00009927 00000114 698.74 128.14 404.65 595.72 839.85 364.00 1028.17 356.70 980.77 437.14 875.61 572.31 1033.41 564.84
00009928 00000115 699.00 128.37 406.15 598.21 841.47 365.79 1029.22 358.57 981.59 439.63 876.56 574.65 1033.88 567.23
00009929 00000116 698.98 128.63 405.77 595.85 841.62 365.99 1028.55 358.22 981.26 440.31 876.72 574.38 1033.01 566.49
00009930 00000117 698.48 129.49 405.67 594.08 840.81 365.19 1027.95 357.10 980.34 438.26 876.75 573.36 1032.99 565.21
00009931 00000118 698.56 129.97 405.76 589.89 841.50 365.82 1027.74 357.10 979.84 438.49 878.82 573.47 1032.44 564.76
00009932 00000119 699.34 130.21 403.46 587.73 842.32 365.13 1026.62 356.02 979.18 439.02 881.05 573.93 1030.45 564.87
00009933 00000120 699.53 128.81 402.18 589.68 842.61 364.31 1026.95 356.34 979.44 438.38 880.80 573.47 1030.23 565.35
00009934 00000121 700.05 129.58 401.67 583.90 843.04 361.60 1028.21 356.87 981.29 435.71 883.06 572.54 1031.26 566.88
00009935 00000122 700.23 120.92 402.10 589.08 842.71 356.54 1028.38 354.58 983.27 429.97 885.88 571.42 1031.87 567.62
00009936 00000123 700.33 120.56 401.99 583.28 842.32 350.04 1029.36 350.44 985.03 422.11 886.23 565.82 1033.26 563.89
00009937 00000124 701.76 117.14 401.85 577.20 844.10 342.82 1035.77 347.52 986.03 416.81 885.30 559.97 1034.08 561.46
00009938 00000125 700.71 108.35 403.57 578.23 843.71 333.69 1037.83 346.24 983.36 406.75 877.22 544.20 1032.85 554.12
00009939 00000126 699.43 106.95 404.02 571.93 847.16 329.31 1038.40 344.80 983.99 399.85 876.70 535.21 1031.51 547.74
00009940 00000127 699.65 105.62 403.13 575.35 847.91 321.04 1041.79 342.13 985.59 394.84 869.05 527.58 1030.86 544.69
00009941 00000128 697.64 105.94 404.69 575.27 849.61 315.12 1044.71 342.98 987.99 389.29 865.24 520.47 1030.87 543.01
00009942 00000129 696.90 106.08 404.82 575.36 853.44 312.93 1047.41 346.15 991.37 388.53 862.11 515.51 1028.74 542.50
00009943 00000130 695.81 103.51 405.98 581.62 856.10 311.47 1045.41 348.45 990.30 390.20 859.61 515.59 1021.19 546.05
00009944 00000131 695.34 103.84 406.04 578.87 857.43 311.72 1047.50 351.98 990.64 393.58 856.91 513.95 1019.48 547.16
00009945 00000132 693.48 104.87 407.74 586.39 856.80 312.46 1047.92 356.95 989.23 399.16 850.81 517.16 1015.44 553.89
00009946 00000133 694.50 104.95 409.47 592.59 855.03 314.54 1046.89 361.67 984.41 405.83 845.69 522.32 1011.83 561.39
00009947 00000134 694.73 109.34 409.15 589.68 853.96 315.01 1047.43 364.69 983.71 406.51 842.68 523.52 1010.50 564.82
00009948 00000135 697.06 122.13 409.90 577.64 855.48 323.97 1048.51 371.22 982.63 413.21 842.48 531.47 1006.53 571.29
00009949 00000136 694.74 121.63 411.42 577.33 854.58 324.26 1047.77 371.84 981.33 414.83 839.85 532.07 1004.49 572.32
00009950 00000137 695.36 121.33 410.13 590.90 853.50 324.00 1046.22 370.44 982.62 413.38 840.37 537.20 1003.77 576.21
00009951 00000138 697.28 120.73 410.83 596.31 855.82 325.46 1048.44 369.84 985.42 414.63 845.81 541.47 1006.89 578.14
00009952 00000139 697.43 124.56 416.01 584.87 860.34 329.89 1053.09 371.69 991.88 413.81 858.50 541.25 1015.82 575.32
00009953 00000140 700.87 128.07 416.54 577.21 866.27 330.97 1054.85 372.30 996.27 416.85 866.43 538.53 1019.46 572.07
00009954 00000141 704.14 131.40 417.62 574.98 869.99 331.76 1058.16 373.92 999.07 419.21 866.40 540.61 1018.61 575.14
00009955 00000142 708.69 135.80 414.12 572.25 873.28 334.55 1057.85 374.13 1002.89 420.16 869.90 541.55 1021.63 574.31
00009956 00000143 709.63 136.82 413.28 572.37 874.34 336.29 1059.22 375.12 1007.36 420.46 868.76 540.88 1025.97 573.28
00009957 00000144 711.43 137.85 412.40 573.89 876.15 337.87 1060.74 374.14 1012.37 421.39 871.04 541.94 1030.45 572.38
00009958 00000145 716.01 135.39 410.64 577.42 878.62 340.22 1063.07 373.70 1016.04 423.18 873.65 543.29 1034.08 571.73
00009959 00000146 722.22 135.65 406.22 577.23 883.65 342.47 1069.29 375.77 1021.66 427.71 877.53 545.56 1038.46 574.23
00009960 00000147 726.57 140.93 404.93 574.51 887.65 346.26 1073.91 377.49 1025.40 434.23 880.88 549.60 1043.31 576.99
00009961 00000148 729.04 144.37 405.34 572.44 890.50 349.76 1076.67 379.50 1027.29 441.23 883.09 551.82 1046.42 578.02
00009962 00000149 730.11 147.63 404.96 570.75 892.34 353.98 1077.39 382.90 1028.11 445.36 884.78 553.06 1048.53 578.60
00009963 00000150 728.91 147.29 405.21 571.43 891.53 354.47 1077.00 381.89 1028.16 445.35 885.17 553.89 1049.21 578.15
00009964 00000151 727.70 145.28 405.57 573.67 891.54 354.24 1075.73 379.93 1028.34 446.12 886.87 554.86 1048.84 577.56
00009965 00000152 725.66 141.48 405.47 575.88 891.31 353.03 1074.79 378.71 1028.96 444.50 888.41 555.14 1047.19 577.55
00009966 00000153 723.17 135.37 406.40 578.83 888.33 350.11 1073.19 374.39 1027.02 438.41 894.46 557.14 1046.99 577.36
00009967 00000154 722.32 131.36 406.92 581.87 887.58 343.35 1074.22 366.50 1027.94 433.03 899.53 555.96 1050.51 574.68
00009968 00000155 721.58 126.55 406.03 582.84 886.66 338.39 1072.93 362.05 1029.73 426.52 901.43 552.22 1051.17 571.14
00009969 00000156 721.43 126.09 401.95 580.01 884.33 335.16 1069.09 360.14 1028.12 422.57 902.12 552.26 1047.72 572.48
00009970 00000157 719.21 126.19 401.14 576.09 882.26 335.55 1064.13 360.56 1026.00 419.35 901.66 548.17 1044.73 568.32
00009971 00000158 713.30 129.54 402.58 570.50 879.17 334.21 1061.04 362.97 1026.64 416.96 896.24 543.54 1042.85 567.01
00009972 00000159 708.51 126.21 404.99 573.75 876.92 332.21 1059.63 363.90 1026.88 415.52 892.37 541.07 1042.08 566.78
00009973 00000160 704.42 129.48 406.93 569.96 874.76 330.36 1057.15 364.19 1023.45 414.48 887.42 538.51 1037.87 565.93
00009974 00000161 704.44 131.01 402.46 563.32 872.95 329.13 1055.79 366.25 1020.36 414.36 883.42 535.64 1034.69 566.24
00009975 00000162 702.69 129.03 401.92 561.28 869.66 328.28 1055.13 365.41 1015.82 416.18 878.78 534.82 1032.79 565.64
00009976 00000163 702.51 129.24 400.73 559.16 870.04 325.64 1055.61 366.30 1014.21 415.45 876.63 532.55 1030.03 566.14
00009977 00000164 701.70 128.40 401.62 563.67 871.05 324.10 1055.03 366.53 1013.56 413.79 875.19 530.82 1027.92 565.79
00009978 00000165 701.29 129.51 401.68 558.03 871.31 325.49 1056.26 368.50 1013.59 416.27 874.55 530.37 1028.79 565.86
00009979 00000166 702.56 130.31 400.91 557.11 872.72 326.62 1056.22 367.87 1016.59 416.31 877.48 530.67 1031.00 564.73
00009980 00000167 703.27 131.08 400.57 556.81 874.32 326.48 1056.51 368.04 1019.07 415.81 880.10 530.52 1031.61 564.73
