Video ID: 	5FnM131hiH0
H: 	1080
W: 	1920
FPS: 	29.97002997002997

FRAME INDEX X0 Y0 W H [Landmarks (5 Points)]

00002523 00000000 683.37 295.30 412.03 588.11 809.11 528.82 1001.50 496.79 945.83 631.65 863.89 743.54 1021.21 716.10
00002524 00000001 683.37 295.33 412.06 588.10 809.11 528.81 1001.52 496.79 945.82 631.65 863.87 743.55 1021.22 716.12
00002525 DELETE   685.90 298.26 413.23 589.57 810.67 529.77 1004.35 499.33 947.23 635.66 864.55 746.63 1023.36 720.22
00002526 00000003 686.12 301.57 414.52 589.98 811.93 533.10 1007.54 503.97 949.38 642.38 866.20 752.28 1025.14 726.86
00002527 00000004 686.12 310.27 414.43 583.57 811.64 539.26 1007.60 510.43 949.77 650.65 867.91 757.78 1026.08 732.72
00002528 00000005 687.85 316.27 412.79 582.60 809.28 547.54 1004.50 515.95 946.26 662.74 867.93 765.38 1026.06 738.05
00002529 00000006 687.79 316.17 412.85 582.78 809.27 547.55 1004.50 515.92 946.25 662.74 867.92 765.40 1026.10 738.04
00002530 00000007 687.06 326.32 412.42 577.86 809.04 554.43 1003.17 523.67 943.15 673.55 865.65 770.78 1022.81 744.46
00002531 00000008 685.34 335.41 412.61 569.35 808.32 560.74 1002.31 529.74 941.32 681.16 863.13 773.74 1020.60 747.36
00002532 00000009 685.97 338.01 413.16 564.26 808.52 561.07 1003.19 531.56 939.80 681.88 862.48 772.11 1021.43 746.79
00002533 00000010 689.10 328.24 414.00 568.52 807.81 554.96 1005.13 527.06 938.63 673.23 860.73 765.10 1023.93 740.88
00002534 00000011 689.07 328.32 414.01 568.59 807.83 554.90 1005.22 526.98 938.71 673.24 860.67 765.10 1023.99 740.88
00002535 00000012 692.53 319.49 411.95 575.25 809.87 546.84 1003.35 522.58 937.95 661.86 864.20 759.91 1021.13 738.50
00002536 00000013 694.45 311.60 410.35 579.76 811.78 532.32 1003.51 513.67 936.97 650.96 863.57 752.78 1014.34 736.04
00002537 00000014 694.35 301.05 406.03 589.41 806.29 520.28 1002.13 504.46 932.08 638.70 857.31 751.14 1008.21 736.84
00002538 00000015 694.17 294.96 405.36 582.04 801.94 512.94 1000.38 500.49 922.11 623.98 847.44 735.70 1004.80 723.87
00002539 00000016 694.19 294.95 405.35 582.05 801.96 512.95 1000.41 500.52 922.12 624.00 847.44 735.70 1004.80 723.89
00002540 00000017 691.26 290.81 403.99 579.25 800.33 507.63 995.47 496.15 917.89 617.56 838.93 726.50 994.63 716.48
00002541 00000018 686.96 291.66 404.61 581.26 795.90 505.42 990.33 493.81 912.65 613.77 835.74 725.48 986.73 715.16
00002542 00000019 678.37 280.54 407.82 578.39 789.93 511.21 989.22 495.01 908.56 621.25 832.98 719.15 998.80 706.18
00002543 00000020 676.40 282.52 409.52 578.44 787.05 515.97 986.70 499.38 904.97 625.26 830.36 721.32 996.54 708.19
00002544 00000021 676.38 282.62 409.54 578.35 787.00 515.98 986.56 499.31 904.91 625.28 830.47 721.40 996.52 708.20
00002545 00000022 675.11 289.67 408.82 584.88 781.97 522.91 978.39 503.14 901.47 632.52 832.01 733.49 990.89 717.91
00002546 00000023 669.15 301.30 404.68 575.12 777.73 532.08 972.31 509.31 895.78 645.19 822.43 746.31 983.48 726.45
00002547 00000024 663.81 307.51 407.45 573.23 773.17 537.35 969.36 512.84 892.25 652.15 820.05 751.01 982.57 729.44
00002548 00000025 662.85 312.40 409.10 568.26 770.18 541.88 965.32 514.74 889.24 656.87 820.98 752.59 982.61 728.55
00002549 00000026 662.75 312.33 409.12 568.43 770.25 541.89 965.44 514.70 889.44 656.96 821.01 752.67 982.76 728.57
00002550 00000027 657.66 308.41 412.20 569.10 765.30 541.62 962.94 514.46 884.97 656.46 813.28 750.09 979.57 726.03
00002551 00000028 655.17 306.27 410.90 570.61 762.56 538.62 960.47 511.79 883.12 654.43 810.94 751.99 974.18 728.21
00002552 00000029 652.56 303.10 411.35 572.34 760.68 537.38 958.15 510.91 882.66 652.05 814.29 754.02 972.14 730.13
00002553 00000030 650.23 299.75 413.36 578.29 758.56 533.99 957.26 506.41 882.91 649.06 812.58 751.00 974.13 726.18
00002554 00000031 649.92 299.81 413.72 578.37 758.38 533.89 957.23 506.39 882.84 649.18 812.57 751.07 974.16 726.34
00002555 00000032 650.28 297.53 409.66 584.40 761.89 531.89 957.91 505.39 886.29 647.91 818.13 754.91 971.13 731.01
00002556 00000033 651.83 298.87 407.50 583.63 767.73 537.37 957.27 511.13 889.69 645.36 822.81 757.08 968.06 734.05
00002557 00000034 653.35 298.93 407.20 582.99 770.75 541.14 959.65 514.47 894.07 645.44 825.87 758.23 970.08 735.16
00002558 00000035 652.32 299.07 408.45 586.65 771.98 537.31 961.10 512.43 895.85 647.12 827.29 760.40 968.57 738.60
00002559 00000036 652.56 299.15 408.18 586.52 772.16 537.31 961.21 512.37 895.70 647.15 827.23 760.46 968.56 738.56
00002560 00000037 654.35 308.03 407.87 585.09 772.37 541.42 966.14 515.58 897.68 655.71 824.73 763.99 977.08 740.79
00002561 00000038 652.62 313.02 408.13 587.50 769.26 549.88 968.20 522.42 898.89 664.67 817.93 766.89 983.72 742.70
00002562 00000039 652.12 316.13 408.42 587.15 769.01 552.43 968.85 524.08 900.05 666.57 814.54 766.19 986.40 741.63
00002563 00000040 649.75 313.15 409.72 590.53 769.24 550.95 968.30 522.44 901.90 664.64 815.24 764.64 986.10 739.78
00002564 00000041 649.80 313.01 409.69 590.82 769.27 550.98 968.30 522.41 901.91 664.74 815.21 764.73 986.09 739.80
00002565 00000042 647.45 307.32 408.89 587.05 769.96 542.68 967.73 515.68 903.62 657.54 822.56 763.28 981.82 739.09
00002566 00000043 643.73 300.29 410.62 584.16 765.58 532.89 966.86 508.41 901.19 647.29 817.44 754.93 978.75 732.88
00002567 00000044 640.40 295.58 413.20 586.95 762.84 528.43 961.77 505.36 895.95 640.89 813.14 749.72 972.48 728.36
00002568 00000045 637.26 295.33 415.71 589.23 760.26 527.47 961.40 505.65 894.28 642.61 806.90 749.12 970.74 728.70
00002569 00000046 637.26 295.21 415.72 589.36 760.27 527.48 961.41 505.69 894.28 642.64 806.90 749.13 970.73 728.73
00002570 00000047 634.71 300.72 417.83 588.51 758.55 532.01 961.10 509.39 893.42 648.05 807.30 753.96 971.23 732.88
00002571 00000048 636.12 308.95 413.74 586.18 758.90 541.98 956.96 517.56 891.58 659.50 812.37 763.92 969.55 741.67
00002572 00000049 634.88 310.49 413.22 587.48 757.39 546.67 956.12 521.21 891.37 663.92 812.99 768.53 970.87 745.39
00002573 00000050 633.81 308.65 414.69 592.46 757.32 546.33 955.39 520.01 891.23 662.85 814.34 769.70 971.22 745.66
00002574 00000051 633.63 308.67 414.96 592.32 757.09 546.21 955.38 519.86 891.17 662.84 814.34 769.70 971.39 745.62
00002575 00000052 632.97 307.57 414.64 598.75 759.81 542.73 954.91 517.31 892.61 659.37 816.62 770.35 968.51 747.06
00002576 00000053 634.24 304.15 413.85 595.49 761.96 539.59 957.97 514.75 895.55 656.62 818.69 767.03 969.85 743.97
00002577 00000054 637.30 303.28 411.61 590.25 764.92 540.50 962.50 514.78 899.82 657.07 824.43 768.41 973.75 744.60
00002578 00000055 640.65 307.03 409.51 589.82 767.01 545.51 963.90 517.09 902.64 663.76 828.04 774.08 976.20 748.31
00002579 00000056 640.61 307.08 409.53 589.80 766.97 545.48 963.87 517.08 902.62 663.74 828.00 774.09 976.19 748.33
00002580 00000057 644.90 313.31 405.76 600.50 769.65 554.70 963.91 526.21 906.51 671.79 827.43 786.90 974.19 761.92
00002581 00000058 647.02 317.19 408.28 587.24 770.75 557.82 971.25 527.93 911.61 673.87 826.08 784.35 981.20 758.51
00002582 00000059 648.55 313.77 408.63 588.35 773.94 554.30 973.47 525.16 913.96 667.25 827.26 778.47 983.89 753.21
00002583 00000060 648.30 308.35 409.38 599.23 775.55 546.50 974.39 518.38 916.52 660.41 826.32 774.38 984.34 749.56
00002584 00000061 648.29 308.34 409.40 599.10 775.49 546.59 974.29 518.45 916.41 660.46 826.34 774.32 984.37 749.48
00002585 00000062 650.22 303.13 408.60 597.52 778.53 540.63 976.08 513.03 920.58 653.61 826.72 764.64 987.32 740.23
00002586 00000063 650.98 300.54 409.95 586.69 780.59 536.87 979.46 508.42 924.12 649.84 828.70 756.61 990.83 731.80
00002587 00000064 653.20 301.00 408.45 583.34 781.79 539.29 980.14 510.56 923.56 653.00 831.67 757.33 991.82 732.17
00002588 00000065 652.16 306.23 408.55 584.17 780.32 546.53 979.28 516.37 921.55 658.38 832.15 764.82 991.37 738.59
00002589 00000066 652.14 306.17 408.48 584.20 780.34 546.50 979.32 516.46 921.67 658.41 832.14 764.89 991.35 738.77
00002590 00000067 653.31 313.27 406.19 579.88 780.98 551.77 980.64 522.28 922.37 664.10 833.22 771.09 992.36 745.57
00002591 00000068 652.53 313.82 405.67 578.60 779.76 552.82 980.86 524.03 921.69 665.18 831.04 770.78 992.56 745.97
00002592 DELETE   652.20 312.83 405.26 578.89 779.66 551.04 979.58 522.98 921.67 662.17 830.92 769.90 990.42 745.64
00002593 00000070 649.65 308.91 407.53 582.36 778.98 547.97 978.86 519.41 922.53 659.05 831.21 768.12 989.30 743.24
00002594 00000071 649.72 309.13 407.82 582.09 779.16 547.88 979.19 519.05 922.76 658.90 831.64 768.20 989.52 743.07
00002595 00000072 649.70 307.75 407.21 584.41 779.87 546.98 977.99 517.61 923.26 657.60 832.18 767.68 988.19 742.15
00002596 00000073 649.68 308.73 405.36 590.12 780.05 547.00 976.13 517.89 922.41 657.79 832.19 770.81 986.26 745.36
00002597 00000074 648.03 319.20 407.31 588.05 779.26 556.00 971.94 524.32 921.67 662.86 828.90 778.54 978.20 750.74
00002598 00000075 647.51 324.32 403.90 583.36 780.32 561.93 968.69 528.59 921.48 667.62 831.23 782.62 974.38 753.48
00002599 00000076 647.36 324.28 403.91 582.93 780.18 562.10 968.78 528.59 921.59 667.64 831.22 782.62 974.48 753.34
00002600 00000077 646.59 326.08 402.99 579.68 779.48 564.47 967.19 530.56 919.71 669.15 832.67 785.89 970.98 756.03
00002601 00000078 645.90 318.03 400.77 582.45 777.90 558.75 968.95 527.52 917.37 669.90 835.28 781.52 978.49 754.63
00002602 00000079 644.38 315.37 398.18 592.81 776.10 555.57 965.61 526.81 915.96 667.99 834.75 785.34 973.87 760.48
00002603 00000080 642.93 311.79 399.56 594.67 773.59 553.16 966.63 526.57 914.09 666.48 830.20 783.01 973.06 759.93
00002604 00000081 642.45 311.45 399.93 594.59 773.23 553.11 966.29 526.59 913.87 666.26 830.24 782.92 973.06 759.88
00002605 00000082 639.05 310.48 404.85 588.34 770.85 551.30 966.86 524.75 912.41 662.60 827.54 776.56 975.67 753.25
00002606 00000083 635.69 312.12 404.14 593.75 767.94 552.76 961.24 525.05 908.71 666.06 824.39 779.15 970.31 755.01
00002607 00000084 633.82 315.91 402.54 599.46 765.79 555.40 957.11 527.03 905.99 670.74 822.88 784.08 967.84 759.35
00002608 00000085 631.35 315.50 403.01 598.65 764.01 557.94 955.43 527.92 904.19 673.11 822.02 784.91 966.55 758.73
00002609 00000086 631.42 315.50 402.95 598.70 764.09 558.03 955.46 528.03 904.26 673.10 822.01 784.97 966.58 758.83
00002610 DELETE   631.03 317.83 402.85 592.27 763.47 562.05 954.87 529.55 903.48 675.53 821.62 783.78 968.04 755.73
00002611 00000088 630.72 321.61 401.85 586.36 763.17 564.12 955.23 531.00 903.77 677.86 820.54 783.26 968.52 754.82
00002612 00000089 630.66 325.75 401.44 581.63 762.60 565.32 955.70 531.99 903.42 679.00 819.92 783.62 968.73 755.06
00002613 00000090 630.78 326.78 400.78 579.57 762.01 565.33 956.07 532.75 902.61 679.77 819.32 783.81 968.83 755.84
00002614 00000091 629.70 326.81 401.54 579.92 761.89 565.47 955.72 532.78 902.53 680.04 819.00 783.61 968.40 755.55
00002615 00000092 630.68 327.89 400.70 578.49 761.14 565.92 955.49 533.86 901.17 679.48 818.11 783.23 968.15 755.72
00002616 00000093 628.96 328.17 402.80 577.06 757.85 573.75 950.34 539.50 894.64 679.48 815.59 785.09 964.23 755.66
00002617 DELETE   624.76 331.57 403.91 574.75 751.98 576.48 944.16 543.34 886.03 679.33 808.67 784.31 959.32 756.10
00002618 DELETE   621.13 331.95 405.64 573.92 744.23 573.80 937.78 543.94 875.74 678.93 801.12 782.80 952.90 757.34
00002619 00000096 621.20 332.10 405.41 573.84 744.17 573.76 937.76 543.94 875.76 678.96 800.99 782.90 952.84 757.45
00002620 00000097 618.19 332.04 406.65 570.97 736.99 569.03 930.87 542.10 864.79 676.24 794.20 779.02 945.81 756.35
00002621 00000098 614.09 330.05 406.38 568.10 731.26 564.95 925.74 539.37 857.29 671.75 789.45 774.56 942.14 752.83
00002622 00000099 610.90 326.89 407.66 572.85 725.42 562.28 920.83 537.46 849.02 670.16 784.39 772.52 939.21 751.60
00002623 00000100 609.43 326.72 407.47 581.25 721.02 565.48 914.43 542.53 841.23 671.25 780.31 778.28 932.06 759.10
00002624 00000101 609.23 326.71 407.74 581.32 720.93 565.42 914.46 542.42 841.26 671.15 780.41 778.34 932.22 759.09
00002625 00000102 606.82 328.39 409.42 584.49 717.73 570.71 912.12 547.81 836.30 673.87 773.76 779.89 929.56 761.02
00002626 00000103 604.44 330.30 410.16 583.14 714.72 570.95 909.50 548.36 832.59 674.04 769.66 779.93 926.01 761.47
00002627 00000104 601.03 330.41 410.96 579.98 708.77 569.72 903.96 544.32 826.95 673.65 767.12 779.12 922.36 758.01
00002628 DELETE   598.10 324.16 413.26 582.05 700.05 563.74 898.62 536.05 818.33 667.79 761.58 776.42 916.36 753.27
00002629 00000106 598.13 324.18 413.21 581.99 700.04 563.74 898.65 536.06 818.32 667.76 761.55 776.41 916.36 753.28
00002630 00000107 595.05 317.20 415.04 579.83 692.71 556.33 893.01 526.15 809.60 661.86 755.70 770.04 910.60 745.06
00002631 00000108 591.23 313.20 412.37 569.56 693.88 556.40 887.84 523.57 806.39 664.81 752.19 766.18 904.47 738.42
00002632 DELETE   593.65 309.47 412.88 571.50 695.46 551.86 889.17 518.15 807.32 658.03 753.10 761.25 905.88 732.69
00002633 00000110 595.63 305.07 411.99 571.60 696.16 547.33 891.50 516.31 808.30 654.29 751.32 756.62 906.57 730.09
00002634 00000111 595.53 305.11 412.10 571.59 696.13 547.32 891.50 516.28 808.30 654.30 751.29 756.64 906.63 730.09
00002635 00000112 602.39 298.23 416.48 582.89 697.93 547.19 895.14 515.55 809.47 648.21 760.78 751.35 915.07 725.43
00002636 00000113 608.82 306.19 408.55 574.33 697.00 549.30 896.73 519.00 810.17 650.70 757.83 757.52 914.25 732.74
00002637 00000114 610.31 311.37 412.36 570.91 702.22 556.89 900.32 528.04 813.70 660.45 764.26 761.94 917.58 738.28
00002638 00000115 612.27 318.29 415.84 578.51 710.30 564.12 905.44 536.40 821.70 671.55 775.23 772.65 923.47 749.10
00002639 00000116 612.36 318.16 415.49 578.57 710.30 564.12 905.50 536.37 821.72 671.56 775.18 772.66 923.46 749.06
00002640 00000117 617.32 329.63 414.84 585.90 716.15 570.88 907.13 546.06 824.11 682.67 777.10 783.91 926.83 762.60
00002641 00000118 617.29 337.30 420.69 581.57 719.57 579.36 912.31 552.19 829.52 689.89 777.76 786.10 935.26 762.76
00002642 00000119 622.40 339.79 416.63 574.38 723.33 583.35 917.22 555.03 835.18 693.46 780.17 784.08 942.05 759.50
00002643 00000120 626.20 343.43 419.13 568.14 727.40 581.56 922.77 554.18 840.84 692.28 780.93 780.93 945.91 757.00
CROP_BBOX: 401 63 1294 1046
