Video ID: 	XjOOyZdWVCM
H: 	1080
W: 	1920
FPS: 	25.0

FRAME INDEX X0 Y0 W H [Landmarks (5 Points)]

00002056 00000000 539.76 169.71 506.79 766.98 666.44 473.19 908.47 477.97 780.44 606.28 678.71 737.93 880.39 742.16
00002057 00000001 545.86 171.15 512.01 775.54 682.27 474.31 922.28 488.15 791.96 613.16 690.29 730.03 894.28 740.65
00002058 00000002 559.53 182.47 504.21 755.14 695.22 473.22 939.92 490.41 808.66 619.46 699.10 733.51 908.42 746.23
00002059 00000003 575.08 188.58 502.32 746.18 711.41 475.80 959.23 492.85 831.43 617.00 714.07 732.49 932.82 744.41
00002060 00000004 591.27 190.95 499.38 744.37 723.43 475.34 972.45 492.42 844.98 617.43 725.76 731.66 946.93 744.09
00002061 00000005 600.43 183.85 501.05 754.58 742.77 477.90 989.31 490.93 868.71 617.91 735.76 733.11 964.54 743.38
00002062 DELETE   612.27 183.66 499.96 754.83 752.89 476.29 997.67 491.60 878.94 618.77 745.98 732.37 972.05 744.83
00002063 00000007 613.23 182.32 504.07 751.05 758.31 475.07 1000.98 486.39 888.13 614.88 758.17 731.35 982.81 739.96
00002064 00000008 613.78 177.29 504.16 749.05 757.49 472.77 1001.05 480.01 890.08 609.16 763.80 729.75 986.11 735.09
00002065 00000009 609.81 170.27 503.94 750.82 752.28 471.99 994.02 475.87 883.72 606.10 760.57 727.53 980.12 730.02
00002066 00000010 596.21 166.47 508.14 744.33 735.36 473.40 986.01 472.23 868.77 602.30 745.85 724.88 971.78 722.98
00002067 00000011 582.06 172.39 503.93 731.78 717.90 471.48 965.86 470.35 849.52 595.38 736.51 721.43 958.26 720.13
00002068 00000012 565.84 160.02 512.03 755.81 699.50 469.03 946.12 464.72 825.29 596.60 719.90 724.52 935.20 721.53
00002069 DELETE   549.13 165.29 512.58 746.96 679.68 476.93 918.73 466.87 804.78 593.31 712.67 730.97 904.53 722.81
00002070 DELETE   539.43 166.83 512.52 745.21 658.61 481.23 898.41 460.60 779.60 593.37 702.21 737.38 890.08 720.31
00002071 DELETE   535.41 165.93 512.52 751.15 648.26 486.91 889.70 458.24 766.68 597.24 690.69 745.56 886.26 722.24
00002072 00000016 523.64 177.94 510.57 730.38 632.66 490.26 873.11 463.32 752.80 602.70 688.74 746.27 878.80 724.19
00002073 00000017 514.11 169.24 523.82 766.65 623.23 500.62 862.47 466.44 735.15 610.39 667.57 759.44 867.10 730.78
00002074 00000018 506.50 180.58 516.75 758.61 611.50 502.54 851.16 470.25 724.14 613.09 664.53 755.79 869.08 726.65
00002075 00000019 497.46 182.97 519.57 760.66 600.85 503.27 838.67 469.69 711.67 615.59 652.80 756.14 859.76 726.34
00002076 00000020 490.75 181.39 515.19 761.36 594.48 500.97 829.61 466.80 704.42 614.37 642.45 751.65 851.03 721.70
00002077 00000021 484.66 178.28 517.78 761.66 589.26 496.34 825.99 465.92 697.17 613.99 633.18 746.68 843.24 719.57
00002078 00000022 479.82 178.47 520.58 758.26 588.69 491.03 825.48 466.80 693.40 610.56 625.84 741.54 834.54 718.46
00002079 00000023 478.47 178.69 512.59 756.46 576.23 494.77 815.68 464.60 687.99 609.59 621.33 743.62 835.26 718.22
00002080 00000024 483.74 172.83 507.97 748.87 576.34 495.24 814.89 464.95 686.56 612.63 619.86 745.24 827.75 720.26
00002081 00000025 478.44 173.65 507.06 743.48 573.30 497.79 812.54 467.38 684.84 615.69 616.59 747.83 820.33 722.79
00002082 00000026 471.19 173.36 513.22 742.33 569.91 501.07 811.11 470.36 681.94 616.76 613.37 750.23 816.57 724.64
00002083 00000027 467.06 175.07 515.81 747.31 569.07 502.32 810.07 471.86 682.21 618.80 612.56 753.34 816.59 727.73
00002084 00000028 463.69 177.44 519.15 754.81 572.06 503.50 812.95 475.02 687.68 618.37 614.82 757.24 818.43 733.14
00002085 00000029 463.64 181.14 516.46 756.13 571.53 504.11 817.24 475.14 692.86 624.51 617.48 758.59 827.31 734.55
00002086 00000030 467.49 184.09 518.39 751.69 576.72 505.48 823.46 477.22 700.59 628.56 621.95 758.29 835.18 734.81
00002087 00000031 471.05 184.59 512.34 749.03 584.36 505.00 831.87 479.49 711.77 632.36 625.20 757.53 839.41 736.41
00002088 00000032 477.11 183.00 506.66 751.86 590.88 504.09 840.21 482.16 720.93 634.26 627.85 756.02 845.62 737.80
00002089 00000033 479.04 184.49 515.11 751.58 597.75 504.81 848.22 483.90 728.49 630.22 634.80 755.43 854.89 737.94
00002090 00000034 489.23 182.67 510.36 748.14 606.41 501.53 857.63 482.85 737.34 628.32 640.33 751.27 864.08 735.80
00002091 00000035 496.78 180.56 506.42 746.21 616.63 497.53 865.49 480.22 746.31 622.11 647.73 746.11 870.24 731.63
00002092 00000036 504.27 180.71 504.05 740.61 624.19 496.39 872.62 481.52 751.75 617.56 654.92 744.29 873.48 731.73
00002093 00000037 508.84 182.41 504.57 734.27 628.48 494.36 877.43 482.54 754.62 617.83 661.35 743.24 874.53 733.27
00002094 00000038 515.23 184.80 500.47 727.99 629.27 492.97 879.44 482.89 753.20 618.78 664.12 747.16 869.54 738.58
00002095 00000039 518.95 184.95 501.86 724.22 630.90 491.29 883.19 483.04 753.99 623.67 668.86 751.53 871.01 744.32
00002096 00000040 525.65 189.98 497.39 718.20 633.95 489.10 882.79 481.85 754.15 622.37 673.17 751.73 867.13 745.41
00002097 00000041 528.62 188.24 496.16 718.45 637.59 483.87 885.92 478.51 757.90 618.93 677.86 752.29 865.41 747.58
00002098 00000042 536.87 175.94 502.13 742.63 653.75 481.17 894.55 479.61 766.77 608.02 681.31 754.30 854.91 754.15
00002099 00000043 538.36 179.55 504.71 760.61 661.98 482.12 897.58 476.23 777.17 611.99 699.74 756.01 862.63 752.42
00002100 00000044 542.09 176.48 507.87 787.15 676.82 484.58 910.28 481.99 793.26 610.29 703.78 761.65 876.64 760.58
00002101 DELETE   556.77 183.63 502.67 784.82 693.65 490.75 923.20 490.13 806.21 615.73 718.25 760.17 897.84 758.92
00002102 00000046 567.80 187.98 495.22 769.30 709.19 490.73 938.28 492.21 829.91 614.83 725.56 751.84 915.56 751.94
00002103 00000047 578.88 184.35 502.80 755.27 716.84 478.61 964.62 489.46 848.87 613.62 732.40 749.26 935.86 756.57
00002104 DELETE   584.71 185.90 496.73 751.64 725.32 478.44 970.80 491.50 856.11 614.37 742.07 750.03 936.29 759.31
00002105 DELETE   588.34 182.77 486.83 744.76 722.47 495.12 966.29 505.75 847.72 618.32 729.40 748.60 935.08 757.36
00002106 DELETE   586.45 186.97 490.38 743.60 716.57 493.02 963.08 507.47 839.08 621.09 718.42 750.38 924.79 762.70
00002107 00000051 571.93 191.12 501.56 746.69 712.81 486.20 955.52 508.89 828.67 618.48 707.03 745.43 908.27 764.94
00002108 00000052 565.60 194.20 505.21 748.14 708.35 482.98 947.33 508.33 818.22 619.90 696.24 741.46 896.59 763.34
00002109 00000053 560.43 196.67 505.73 747.39 704.73 480.96 941.66 509.02 808.90 618.60 686.61 735.67 890.65 759.39
00002110 00000054 555.99 196.78 510.41 742.41 700.96 479.88 938.21 509.38 802.35 619.94 681.75 731.58 889.05 756.42
00002111 00000055 556.88 197.82 509.50 741.11 701.25 480.97 939.09 511.47 802.22 621.31 680.55 731.14 890.17 756.73
00002112 00000056 564.85 199.79 506.72 739.71 705.16 482.19 944.75 511.63 807.70 622.79 685.57 733.12 898.48 757.79
00002113 00000057 574.20 198.72 504.41 739.77 710.58 482.40 954.99 511.81 816.03 622.03 692.23 735.21 907.98 759.92
00002114 00000058 584.97 200.79 498.40 735.53 721.84 478.70 964.30 512.11 831.14 626.25 712.49 736.12 918.23 762.54
00002115 00000059 589.48 193.84 499.35 739.82 725.60 479.52 969.94 509.64 839.31 628.67 721.23 741.09 924.81 764.76
00002116 00000060 596.07 196.61 497.06 735.75 732.10 478.98 975.14 509.64 845.39 627.60 728.30 740.46 925.88 765.01
00002117 00000061 599.88 194.53 494.46 737.83 735.80 480.14 977.01 510.71 848.56 629.62 731.96 742.47 923.03 766.85
00002118 00000062 598.83 195.00 495.22 737.21 733.47 480.92 975.03 510.77 845.33 631.60 732.20 746.99 918.89 770.90
00002119 00000063 593.71 198.36 495.63 735.52 728.89 479.71 970.84 509.24 841.33 631.32 728.10 748.30 915.36 771.91
00002120 00000064 588.03 202.06 497.37 733.33 723.45 480.25 963.30 511.86 833.51 632.10 719.98 746.18 905.26 771.25
00002121 00000065 581.59 208.00 498.10 726.83 717.85 484.28 956.87 516.12 825.26 634.90 713.10 746.92 895.93 772.31
00002122 00000066 578.19 211.71 500.38 724.81 715.30 485.70 952.31 517.99 820.39 634.44 709.59 747.58 889.36 773.58
00002123 00000067 577.93 210.94 501.80 731.22 714.17 486.60 951.94 517.85 819.37 635.73 709.62 751.97 891.84 777.35
00002124 00000068 578.38 211.07 501.04 735.32 716.56 486.90 955.12 519.41 823.26 639.14 709.42 750.62 899.09 776.84
00002125 00000069 577.18 211.20 503.45 739.37 716.48 489.12 955.95 519.13 825.89 639.75 710.37 751.52 904.71 775.43
00002126 00000070 577.44 212.27 500.87 737.97 714.78 489.96 952.76 519.63 821.83 640.00 707.13 750.67 902.01 774.35
00002127 00000071 570.87 211.83 502.56 737.98 708.92 489.31 944.55 517.77 813.41 637.65 700.92 749.46 891.71 772.31
00002128 00000072 565.03 206.29 508.95 743.61 704.16 486.30 938.68 512.46 808.48 633.95 699.01 750.30 883.50 771.36
00002129 00000073 565.56 205.68 508.40 744.92 705.71 483.77 938.92 510.77 809.34 632.21 700.32 749.74 881.03 771.68
00002130 00000074 570.25 204.30 508.45 743.60 710.41 483.51 946.71 514.00 814.50 632.62 704.65 750.56 885.17 775.43
00002131 00000075 572.89 202.68 505.33 741.33 712.61 483.47 953.22 515.35 820.64 632.75 708.70 751.41 890.21 777.04
00002132 00000076 573.78 194.51 504.52 743.38 707.38 485.89 953.46 512.21 817.67 628.44 702.96 749.78 898.43 772.15
00002133 00000077 571.90 194.51 503.56 743.86 706.68 485.75 950.36 511.71 816.40 627.04 699.49 747.58 894.49 769.72
00002134 00000078 569.67 195.52 505.01 745.87 706.02 485.69 947.34 512.12 813.23 626.16 696.84 747.50 891.14 770.33
00002135 00000079 562.11 194.90 506.00 745.00 701.43 484.12 941.92 509.66 810.24 624.57 690.48 741.25 891.94 763.08
00002136 00000080 558.03 191.97 506.80 746.41 696.44 483.39 939.25 508.19 806.55 626.72 684.74 738.18 894.50 759.08
00002137 00000081 554.75 189.88 508.67 746.28 692.39 482.57 936.90 506.79 803.75 627.72 681.45 735.38 894.91 755.66
00002138 00000082 554.00 187.93 506.48 747.27 690.77 481.78 934.53 505.59 801.96 628.03 680.18 733.57 894.00 753.51
00002139 00000083 551.64 185.98 505.00 747.56 687.40 481.24 929.26 503.36 798.34 627.32 677.93 731.83 890.71 750.23
00002140 00000084 550.52 185.34 505.66 748.28 684.34 481.06 926.93 502.65 796.00 628.96 677.12 732.74 890.15 750.73
00002141 00000085 549.89 185.25 507.17 748.27 681.86 482.40 925.82 502.56 793.78 629.65 675.65 733.55 890.88 750.31
00002142 00000086 549.17 185.20 508.12 748.98 680.72 482.69 925.06 502.98 792.87 629.90 674.79 732.75 892.75 749.42
00002143 00000087 548.91 184.59 509.53 749.17 679.93 483.45 925.67 502.26 793.48 629.85 675.45 732.87 896.57 748.20
00002144 00000088 549.90 186.97 505.99 746.49 681.98 481.20 926.45 500.84 794.91 626.50 676.45 729.29 899.44 745.18
00002145 00000089 550.87 186.33 507.58 746.42 683.18 479.64 928.08 499.63 796.29 625.06 677.32 728.29 900.79 744.43
00002146 00000090 553.14 190.41 514.06 743.82 685.50 477.23 926.63 498.22 793.48 623.03 682.95 729.31 899.96 745.80
00002147 00000091 553.11 187.95 508.43 747.12 685.98 479.61 931.00 501.22 798.07 626.08 678.57 728.81 902.63 746.31
00002148 DELETE   557.81 187.35 506.74 747.33 688.30 489.49 931.88 508.25 799.12 624.84 680.88 730.61 905.31 745.97
00002149 DELETE   559.95 188.93 504.10 743.90 693.58 489.04 934.33 507.40 804.72 622.31 685.08 728.90 907.45 744.08
00002150 00000094 559.86 190.34 509.50 743.40 696.55 481.85 938.45 502.59 807.75 621.26 687.80 728.09 908.58 745.21
00002151 00000095 559.13 188.64 514.83 745.96 696.20 474.43 937.38 495.13 804.19 616.07 692.55 729.88 907.48 746.48
00002152 00000096 557.20 184.39 511.94 747.71 694.73 474.39 939.90 498.32 805.55 617.61 684.62 727.85 901.95 747.87
00002153 00000097 555.10 181.09 511.78 752.86 691.60 473.30 937.06 496.92 802.18 618.44 681.44 728.52 897.40 748.41
00002154 00000098 555.12 180.20 510.11 755.59 690.78 472.05 934.67 495.61 799.98 617.58 679.80 728.43 894.63 748.29
00002155 00000099 554.92 180.06 510.29 757.21 689.62 471.16 932.98 494.15 798.42 617.87 680.13 728.82 895.29 748.10
00002156 00000100 555.68 178.64 506.82 757.36 687.88 470.81 931.38 492.26 797.49 617.19 679.57 728.88 894.17 746.93
00002157 00000101 556.69 175.22 506.00 755.27 687.22 469.22 930.71 489.94 796.15 613.78 680.00 727.05 891.29 744.52
00002158 00000102 556.19 174.31 506.45 753.71 686.33 467.57 930.10 488.48 795.45 612.64 679.28 726.24 888.55 743.87
00002159 00000103 556.60 173.36 507.11 754.15 686.68 468.16 931.37 487.64 796.31 611.54 681.33 729.52 886.72 746.15
00002160 00000104 556.40 173.14 505.51 751.64 687.72 467.61 931.01 486.26 797.53 610.84 684.75 732.36 879.10 748.53
00002161 00000105 556.54 173.80 504.82 749.13 685.22 469.28 930.73 485.79 796.82 612.77 687.95 737.73 878.72 752.09
00002162 00000106 557.43 173.34 503.71 745.40 683.90 467.06 933.28 483.30 798.37 612.66 687.80 737.72 881.68 751.89
00002163 00000107 560.12 173.93 504.33 741.44 683.84 465.85 935.38 481.68 798.48 610.61 688.75 736.97 882.72 750.83
00002164 00000108 559.50 172.53 505.98 742.73 685.25 464.68 935.06 480.80 798.56 608.48 689.21 734.99 882.55 749.04
00002165 00000109 559.93 171.95 504.56 743.14 684.18 463.40 934.97 478.57 798.17 606.42 688.88 734.36 884.44 747.55
00002166 00000110 560.58 172.33 504.44 740.61 683.80 462.72 934.93 477.10 798.31 604.83 689.48 733.78 884.54 746.32
00002167 00000111 559.93 170.45 505.42 742.75 685.01 462.40 934.82 476.96 798.48 604.69 690.23 733.50 884.51 746.15
00002168 00000112 559.03 170.44 506.19 743.39 684.98 461.43 934.73 476.52 798.35 604.87 690.42 732.85 884.98 745.83
00002169 00000113 559.49 169.13 506.12 743.15 685.44 460.74 935.09 475.59 798.81 602.44 690.30 730.85 884.87 743.58
00002170 00000114 559.65 168.57 505.77 742.92 685.81 460.23 935.12 474.63 799.15 601.53 691.40 730.79 885.04 743.09
00002171 00000115 559.85 169.89 505.73 741.15 686.14 461.13 933.71 474.53 799.64 601.69 693.65 732.01 882.97 743.68
00002172 DELETE   560.00 172.03 503.96 742.69 691.51 474.12 930.02 487.00 804.24 603.51 702.90 736.73 882.47 747.87
00002173 DELETE   571.91 181.03 495.39 732.99 709.97 475.56 942.77 492.11 821.50 599.08 716.08 734.81 892.47 749.12
00002174 DELETE   578.46 176.80 500.46 729.34 722.50 466.30 959.05 483.86 839.20 587.43 734.37 730.83 906.76 746.17
00002175 00000119 583.93 173.61 495.22 728.85 730.65 462.83 963.47 478.80 848.03 584.26 744.05 726.77 914.71 740.78
00002176 00000120 587.83 175.81 490.90 725.83 729.19 458.74 960.61 474.54 845.83 584.59 742.03 725.05 911.20 738.80
00002177 00000121 578.98 174.77 502.45 731.93 718.21 457.65 957.90 480.38 830.32 590.04 723.21 725.31 901.29 745.41
00002178 00000122 567.40 166.71 516.21 747.94 704.42 456.94 947.01 476.35 813.64 590.71 707.70 725.70 901.45 743.01
00002179 00000123 559.55 165.50 505.58 748.36 690.13 460.56 930.03 477.29 798.64 591.20 690.39 723.01 889.86 737.61
00002180 00000124 552.14 161.22 505.81 751.95 679.64 462.98 918.99 478.04 787.95 592.98 679.92 721.60 881.73 734.47
00002181 00000125 543.96 168.50 508.48 745.56 677.69 467.09 915.31 480.69 786.58 595.06 678.87 721.02 875.37 732.50
00002182 00000126 541.33 171.28 505.84 742.61 671.61 470.28 908.26 479.44 780.02 596.65 676.79 723.79 872.37 731.70
00002183 00000127 540.10 172.35 504.38 739.93 670.45 471.24 908.24 481.58 780.36 600.18 675.88 724.42 871.97 733.27
00002184 00000128 546.15 170.32 503.04 741.57 671.05 469.16 911.16 484.99 778.13 601.38 671.63 728.02 869.85 741.54
00002185 00000129 543.81 170.99 506.98 741.90 678.97 471.83 921.33 485.92 796.30 603.74 682.60 726.89 880.43 738.64
00002186 00000130 551.60 174.80 504.11 739.06 686.15 473.07 931.97 487.71 806.96 607.97 691.19 729.20 892.25 741.30
00002187 00000131 561.24 181.58 504.07 733.12 698.74 477.38 946.23 493.33 821.56 609.53 703.58 732.97 909.20 746.12
00002188 00000132 566.67 175.21 507.65 745.03 712.55 479.71 956.57 492.14 835.77 614.46 722.07 739.40 923.02 749.78
00002189 DELETE   574.08 176.85 500.58 744.07 722.19 480.43 966.64 495.34 847.88 618.20 731.54 740.63 932.11 753.24
00002190 00000134 582.47 186.61 491.45 727.05 735.85 481.97 977.27 505.23 864.03 617.57 736.20 736.10 938.34 754.78
00002191 00000135 586.20 182.37 492.14 729.56 750.51 477.51 986.79 502.91 883.81 616.24 746.71 731.33 947.64 751.83
00002192 00000136 587.11 178.79 497.34 731.18 756.52 472.00 993.19 498.85 893.62 609.57 751.31 726.07 955.47 747.95
00002193 00000137 589.21 175.90 499.02 732.56 759.50 466.52 997.40 495.91 898.96 599.38 752.96 720.55 960.97 744.95
00002194 00000138 587.56 174.32 500.24 733.43 760.47 459.24 997.48 496.39 895.15 592.95 744.37 710.65 955.82 741.63
00002195 00000139 581.02 165.78 511.07 746.56 757.34 454.57 999.57 494.45 885.67 597.25 734.10 709.43 947.85 743.91
00002196 00000140 574.42 163.41 517.48 750.78 752.97 451.37 996.39 493.25 879.27 598.39 727.98 708.62 943.14 744.70
00002197 00000141 574.29 165.21 516.99 748.76 750.86 447.62 994.71 491.92 873.50 598.02 722.23 705.42 939.98 743.59
00002198 00000142 579.48 170.90 507.48 738.80 745.28 445.45 989.95 494.92 868.95 586.01 714.60 701.39 937.09 742.60
00002199 00000143 573.64 164.82 517.19 749.56 744.79 443.25 991.37 488.66 863.71 591.05 713.37 700.30 938.65 738.83
00002200 00000144 581.79 173.57 505.16 735.88 740.42 441.91 985.59 493.37 857.41 581.10 706.56 694.08 934.44 736.99
00002201 00000145 576.98 168.26 514.30 747.93 737.13 441.77 985.49 488.79 849.11 590.62 704.32 697.47 936.36 737.03
00002202 00000146 576.34 170.44 511.71 744.85 731.67 441.52 981.03 487.74 843.57 591.68 699.83 697.52 933.87 736.27
00002203 00000147 576.54 168.05 508.71 746.53 728.13 440.18 976.39 485.01 838.94 588.30 697.23 695.25 931.58 732.68
00002204 00000148 573.07 168.53 510.47 750.63 726.52 439.07 973.88 484.88 836.61 588.46 694.80 694.86 930.69 732.89
00002205 00000149 572.96 175.50 511.18 746.38 730.03 447.79 975.69 496.36 841.35 588.85 692.70 694.66 927.31 733.94
00002206 00000150 571.72 179.80 510.68 753.64 732.02 453.65 971.31 498.39 841.69 590.86 695.71 700.82 923.35 736.60
00002207 DELETE   572.86 178.62 509.19 757.52 731.87 461.16 967.62 502.33 843.63 589.79 697.94 703.90 923.47 736.70
00002208 00000152 574.53 178.82 507.11 762.60 732.99 462.34 967.85 501.49 846.84 593.45 699.04 707.73 923.28 739.15
00002209 00000153 575.06 178.37 506.36 767.39 732.87 461.41 966.73 495.51 848.19 597.46 703.05 715.06 921.05 742.49
00002210 00000154 571.74 175.08 510.08 769.73 731.37 461.21 964.91 493.89 847.25 598.66 707.73 718.17 918.41 744.22
00002211 00000155 568.13 176.22 510.04 769.98 726.65 463.55 961.71 492.84 846.22 597.35 709.15 721.20 919.41 744.05
00002212 00000156 565.54 174.73 509.38 768.32 722.45 463.97 960.06 491.18 845.28 599.66 711.47 724.74 917.01 745.81
00002213 00000157 560.58 176.50 512.53 764.17 718.20 464.83 957.37 491.25 841.45 602.54 715.02 728.50 912.45 748.76
00002214 00000158 557.75 173.83 515.15 759.31 708.33 468.83 955.43 490.13 831.78 600.90 707.74 733.29 913.89 751.09
00002215 00000159 556.46 169.35 518.17 759.40 705.25 465.41 950.58 481.19 828.20 602.17 711.14 733.12 917.04 746.48
00002216 00000160 558.38 170.11 511.05 754.99 703.18 467.31 947.11 481.87 825.03 603.88 709.15 732.63 914.29 745.02
00002217 00000161 551.14 175.05 511.25 748.15 698.29 470.76 945.94 486.15 825.11 606.77 703.00 730.18 914.58 742.57
00002218 00000162 553.25 172.84 514.33 746.08 698.29 469.76 944.27 481.00 822.09 608.07 704.30 730.17 916.20 739.59
00002219 00000163 552.21 174.25 513.03 739.74 697.09 471.25 943.91 482.37 821.46 609.43 700.49 726.67 916.54 735.98
00002220 00000164 552.41 175.38 510.82 732.15 695.70 472.09 943.94 481.30 821.72 609.21 698.70 721.40 920.35 729.04
00002221 00000165 552.22 172.97 510.15 735.43 695.87 470.79 944.09 479.31 822.04 604.71 698.35 719.57 920.55 726.63
00002222 00000166 554.18 172.37 510.34 735.70 697.26 469.29 946.77 479.44 823.65 602.61 698.05 719.34 920.55 727.89
00002223 00000167 554.93 170.43 510.26 744.17 697.48 466.55 946.23 477.92 823.98 598.32 699.19 720.73 921.25 730.28
00002224 00000168 556.47 171.51 510.85 748.10 695.52 465.64 944.86 476.93 820.05 600.74 695.85 720.21 922.73 729.67
00002225 00000169 554.12 171.43 505.22 749.98 690.87 474.94 934.00 484.42 812.50 600.42 690.86 720.57 915.30 727.85
00002226 DELETE   553.72 179.02 499.45 737.55 686.34 491.10 926.01 498.33 804.17 604.66 684.57 719.47 910.91 724.42
