Video ID: 	_KKSYlyTRFI
H: 	2160
W: 	3840
FPS: 	23.976023976023978

FRAME INDEX X0 Y0 W H [Landmarks (5 Points)]

00000987 00000000 2274.94 323.61 501.44 712.08 2365.38 613.53 2567.67 600.90 2429.61 746.49 2390.09 874.15 2562.31 865.35
00000988 00000001 2273.52 323.06 505.14 717.00 2368.33 617.21 2574.41 602.45 2439.22 746.70 2395.17 873.80 2571.04 863.45
00000989 00000002 2274.02 324.51 507.72 720.57 2375.57 617.06 2592.73 599.28 2461.49 742.65 2405.81 872.11 2595.07 858.73
00000990 00000003 2274.60 324.73 510.93 729.54 2387.52 616.25 2609.12 593.51 2484.40 740.17 2420.08 874.10 2616.99 856.18
00000991 00000004 2277.26 323.24 509.20 727.77 2395.00 614.06 2616.29 587.54 2500.18 740.41 2428.32 874.29 2626.49 853.14
00000992 00000005 2279.14 321.44 506.39 711.52 2394.99 613.02 2616.46 586.67 2502.66 741.94 2428.27 868.71 2628.99 847.68
00000993 00000006 2274.48 319.49 510.01 714.50 2388.01 614.45 2611.03 588.43 2493.23 740.61 2423.27 870.07 2621.23 849.42
00000994 00000007 2268.99 321.70 512.66 717.51 2377.74 614.94 2599.35 592.45 2477.06 743.91 2412.70 871.63 2606.87 853.84
00000995 00000008 2272.33 325.50 509.19 705.69 2364.43 618.43 2584.06 596.86 2456.69 747.51 2400.69 874.49 2595.03 859.02
00000996 00000009 2269.83 323.89 506.88 716.57 2356.27 618.24 2569.34 597.27 2438.48 746.00 2391.58 877.74 2584.20 862.79
00000997 00000010 2265.45 325.59 506.11 721.85 2356.05 618.09 2565.26 594.83 2429.66 751.43 2390.95 882.11 2578.80 863.76
00000998 00000011 2267.64 323.54 507.45 721.48 2361.72 611.51 2568.46 592.13 2431.49 747.29 2391.17 874.11 2581.56 858.48
00000999 00000012 2272.55 320.46 508.04 710.26 2369.96 607.02 2582.86 589.79 2449.43 738.25 2398.16 868.20 2587.11 855.36
00001000 00000013 2281.72 311.76 510.25 697.24 2379.15 603.47 2602.75 584.18 2471.75 725.91 2409.17 859.49 2602.13 846.08
00001001 00000014 2287.52 305.47 512.24 697.21 2392.68 594.20 2621.48 575.29 2492.23 710.15 2430.37 846.71 2614.74 833.61
00001002 00000015 2294.44 302.97 513.57 699.34 2402.19 588.26 2631.81 570.05 2506.01 698.99 2440.60 841.54 2624.27 828.96
00001003 00000016 2296.82 301.39 512.33 703.84 2404.03 586.59 2633.98 567.75 2507.31 695.69 2441.14 839.09 2629.61 825.94
00001004 00000017 2296.43 302.59 508.71 704.71 2399.55 587.39 2627.44 570.07 2496.30 699.11 2430.89 841.10 2622.98 829.51
00001005 00000018 2287.69 305.03 509.42 705.28 2385.29 591.70 2611.44 573.97 2476.11 711.05 2412.64 847.66 2610.89 835.53
00001006 DELETE   2279.64 310.17 509.76 711.92 2371.78 602.68 2590.36 583.81 2452.25 722.94 2400.10 856.24 2590.94 842.88
00001007 DELETE   2269.23 318.61 508.89 722.12 2362.09 609.18 2570.03 591.82 2430.76 742.35 2389.37 871.81 2574.75 858.54
00001008 00000021 2268.76 327.57 497.56 726.05 2347.48 619.19 2551.04 598.18 2412.94 749.93 2382.41 883.63 2569.99 867.69
00001009 00000022 2258.78 332.03 502.98 738.09 2340.23 628.45 2542.72 604.78 2407.06 763.35 2381.26 890.72 2566.40 871.84
00001010 00000023 2250.83 338.91 511.65 744.11 2334.67 637.22 2540.89 612.21 2404.47 778.20 2380.43 897.67 2569.15 876.75
00001011 00000024 2250.21 342.25 514.33 738.12 2336.39 642.34 2544.58 617.92 2411.53 787.45 2382.52 898.09 2574.68 877.28
00001012 00000025 2250.01 343.00 515.77 740.10 2341.05 642.11 2549.08 618.10 2418.82 786.36 2386.41 897.73 2577.41 877.38
00001013 00000026 2253.13 338.41 514.98 741.26 2346.06 638.87 2555.71 612.67 2427.47 780.45 2391.77 891.51 2585.48 868.77
00001014 00000027 2259.25 329.93 511.34 735.63 2348.71 632.28 2557.67 602.11 2430.33 762.54 2393.09 881.35 2590.35 856.08
00001015 00000028 2262.35 325.40 511.46 727.50 2353.17 620.73 2562.14 592.42 2434.93 747.98 2393.98 871.73 2590.65 848.47
00001016 00000029 2265.01 319.05 509.93 718.70 2353.52 612.45 2563.47 585.07 2434.59 738.57 2391.59 861.79 2592.48 839.59
00001017 00000030 2270.37 314.83 505.42 700.48 2354.46 607.47 2566.90 580.91 2436.24 722.31 2393.74 853.11 2586.65 833.57
00001018 00000031 2274.12 309.75 504.25 696.84 2355.83 600.50 2569.29 577.55 2434.34 711.47 2397.74 845.76 2578.16 829.61
00001019 00000032 2274.59 307.46 505.16 700.86 2355.04 597.34 2568.47 573.72 2431.93 705.17 2396.26 843.58 2574.70 827.34
00001020 00000033 2275.80 304.44 502.18 703.56 2354.44 595.72 2565.82 571.14 2428.79 700.13 2394.47 839.13 2575.14 822.16
00001021 00000034 2276.46 307.36 500.53 699.68 2354.12 595.01 2563.71 570.43 2427.28 700.03 2394.28 838.83 2573.56 821.73
00001022 00000035 2272.47 310.56 500.58 694.20 2349.79 598.49 2561.59 571.04 2426.27 702.05 2389.87 840.26 2575.50 820.81
00001023 00000036 2265.58 310.33 501.78 689.42 2343.92 604.78 2555.39 570.87 2421.84 704.74 2385.08 839.93 2572.73 815.80
00001024 00000037 2257.94 311.45 501.69 691.13 2335.16 611.91 2547.69 575.06 2414.13 713.15 2378.41 847.60 2568.59 821.00
00001025 00000038 2247.32 311.34 503.09 695.43 2326.52 617.42 2535.50 579.08 2404.13 722.40 2374.05 852.39 2557.67 823.87
00001026 00000039 2235.95 316.84 500.46 698.40 2317.09 626.26 2521.74 585.91 2392.68 737.32 2369.80 863.63 2547.40 833.39
00001027 00000040 2224.04 319.66 504.28 715.09 2303.66 644.18 2508.60 597.39 2380.36 752.64 2360.72 882.02 2540.88 846.63
00001028 00000041 2207.67 325.84 498.30 729.82 2284.43 650.40 2487.90 598.92 2357.62 768.43 2350.67 892.04 2525.86 850.33
00001029 00000042 2187.73 340.83 510.61 719.91 2271.39 663.67 2475.51 607.23 2348.52 778.01 2348.64 901.77 2519.11 855.89
00001030 00000043 2175.90 345.67 512.10 725.04 2258.76 671.00 2457.06 610.06 2332.50 787.91 2341.80 914.04 2507.71 864.36
00001031 00000044 2170.78 351.50 506.32 715.04 2255.38 686.66 2447.36 623.08 2334.82 789.03 2332.13 916.43 2503.56 868.55
00001032 00000045 2161.78 351.33 509.23 724.17 2251.82 691.41 2441.46 624.67 2332.93 788.94 2333.48 914.98 2504.19 864.04
00001033 00000046 2161.16 352.34 506.58 726.57 2248.14 686.58 2435.01 616.20 2321.64 784.22 2327.49 910.86 2501.35 855.29
00001034 00000047 2158.11 346.01 503.61 718.49 2240.58 681.69 2424.69 605.28 2309.75 778.66 2320.06 905.57 2495.31 844.01
00001035 00000048 2156.46 345.71 499.58 700.88 2236.79 677.71 2416.81 599.46 2303.58 767.60 2317.03 899.66 2484.16 837.54
00001036 00000049 2154.42 340.87 501.06 700.67 2231.96 675.99 2413.03 589.61 2295.60 756.89 2314.19 900.96 2479.39 832.07
00001037 00000050 2155.30 340.75 500.71 697.63 2232.10 669.09 2409.62 581.06 2292.44 748.58 2311.31 891.70 2481.16 820.07
00001038 00000051 2155.91 342.73 500.85 690.78 2230.90 667.00 2405.47 572.69 2289.26 738.61 2309.30 883.96 2482.40 806.01
00001039 00000052 2155.98 345.72 504.17 686.73 2232.20 665.39 2403.34 571.17 2283.87 726.68 2310.85 879.75 2477.50 801.10
00001040 00000053 2159.02 337.92 504.72 681.22 2234.72 665.91 2406.52 568.90 2281.40 719.03 2309.38 873.08 2477.82 792.43
00001041 00000054 2162.25 337.47 502.01 678.57 2235.63 663.24 2408.34 563.58 2280.11 712.35 2310.01 872.46 2475.71 789.67
00001042 00000055 2161.37 330.96 502.67 681.65 2235.66 659.95 2409.42 559.08 2280.55 707.27 2311.95 868.24 2474.89 784.78
00001043 00000056 2162.47 327.89 497.62 677.07 2236.40 653.68 2411.96 555.16 2286.40 700.72 2314.14 858.69 2471.81 777.91
00001044 00000057 2163.36 327.66 496.09 668.64 2236.84 651.16 2417.88 554.14 2292.12 695.66 2314.10 854.49 2470.40 775.44
00001045 00000058 2161.51 320.56 503.05 679.92 2233.83 641.59 2424.56 546.90 2302.70 690.90 2313.27 853.78 2469.08 777.91
00001046 00000059 2161.18 324.71 505.48 681.34 2237.86 640.27 2427.36 549.54 2309.03 693.02 2319.12 852.19 2472.50 779.39
00001047 00000060 2163.04 324.48 505.29 692.81 2240.13 641.19 2429.40 550.58 2307.77 698.58 2317.69 858.99 2486.06 785.19
00001048 00000061 2166.73 331.42 502.39 686.22 2244.78 645.81 2430.55 556.60 2310.93 708.64 2318.90 860.89 2495.05 787.24
00001049 00000062 2164.59 338.36 503.84 674.80 2245.02 647.40 2432.22 563.57 2318.07 717.78 2321.99 858.58 2494.33 790.15
00001050 00000063 2164.99 343.27 501.71 672.47 2241.82 650.36 2429.84 568.64 2313.18 724.69 2316.07 862.81 2489.83 796.37
00001051 00000064 2160.04 343.01 505.48 682.76 2238.00 658.55 2422.57 577.44 2305.80 737.02 2314.67 876.57 2483.03 811.18
00001052 00000065 2157.08 340.15 498.98 692.40 2231.73 666.69 2411.89 583.34 2292.04 749.32 2308.14 887.96 2476.14 821.04
00001053 00000066 2152.19 341.19 496.46 699.25 2226.58 672.49 2400.12 592.40 2283.86 762.81 2308.78 899.78 2462.20 836.72
00001054 00000067 2148.44 343.97 496.04 701.66 2221.83 677.81 2392.62 598.65 2275.18 774.76 2308.48 908.49 2460.05 846.25
00001055 00000068 2141.55 345.09 498.50 708.44 2218.78 684.14 2389.71 610.04 2273.81 789.88 2309.40 917.62 2458.82 860.60
00001056 00000069 2134.65 355.67 504.22 702.94 2217.64 702.12 2388.79 627.00 2281.03 801.13 2319.11 926.01 2459.08 869.57
00001057 00000070 2131.85 361.77 505.75 695.09 2219.23 710.05 2394.16 637.72 2289.12 810.36 2319.22 926.97 2463.22 872.32
00001058 00000071 2127.49 362.59 511.99 695.79 2217.88 713.67 2398.37 639.68 2294.92 812.97 2319.05 929.24 2472.23 872.66
00001059 00000072 2123.98 360.79 517.20 701.08 2218.79 715.56 2401.60 641.16 2300.95 813.47 2319.73 929.08 2476.41 872.05
00001060 00000073 2120.70 361.61 525.89 712.42 2223.46 709.73 2410.70 638.09 2313.85 811.69 2321.02 924.02 2487.44 867.84
00001061 00000074 2122.25 360.46 528.77 725.65 2231.32 707.75 2419.61 632.70 2327.32 809.73 2326.86 923.71 2500.09 864.13
00001062 00000075 2139.35 354.87 521.19 733.31 2240.78 699.61 2430.15 624.34 2332.61 807.33 2336.04 920.61 2511.52 860.37
00001063 00000076 2137.22 350.00 525.14 728.44 2246.91 693.98 2432.83 620.56 2339.16 803.33 2341.25 910.82 2517.56 851.38
00001064 00000077 2139.09 349.72 527.58 724.69 2247.34 691.61 2436.70 615.46 2339.56 795.56 2340.20 910.02 2519.38 848.34
00001065 00000078 2146.73 347.60 519.22 720.32 2249.51 684.92 2437.96 609.78 2338.16 788.08 2338.36 903.59 2516.71 842.35
00001066 00000079 2150.69 348.02 512.81 704.76 2245.86 681.14 2433.18 605.67 2329.62 779.88 2329.93 897.79 2508.35 836.42
00001067 00000080 2154.00 347.61 507.34 699.32 2241.20 681.12 2427.66 599.29 2319.81 770.41 2324.30 898.41 2502.02 832.12
00001068 00000081 2152.79 345.73 504.03 698.45 2235.97 674.27 2419.88 592.87 2307.30 763.91 2316.88 893.49 2491.37 827.26
00001069 00000082 2155.08 339.60 499.17 697.42 2233.87 670.43 2415.50 587.36 2299.84 755.85 2312.77 890.31 2484.32 823.46
00001070 00000083 2155.63 342.64 497.00 691.75 2229.58 666.52 2407.32 581.00 2288.16 752.17 2304.73 886.49 2481.60 816.06
00001071 00000084 2157.60 342.45 494.73 699.34 2228.88 666.34 2398.79 575.69 2279.61 748.49 2304.83 881.06 2480.38 803.93
00001072 00000085 2159.89 343.91 494.28 691.91 2228.54 664.36 2399.49 568.98 2280.49 739.74 2306.25 879.27 2482.54 798.55
00001073 00000086 2161.63 341.10 497.96 692.40 2234.15 666.01 2402.59 567.73 2279.74 730.36 2313.10 874.28 2487.15 789.74
00001074 00000087 2170.68 338.56 493.86 687.95 2244.63 659.42 2418.53 564.31 2292.02 720.50 2319.15 867.90 2497.21 786.16
00001075 00000088 2180.40 331.51 491.50 686.12 2251.53 652.06 2435.54 560.69 2309.66 713.45 2323.17 865.23 2505.60 788.88
00001076 00000089 2183.46 323.83 495.30 673.78 2255.20 635.83 2452.55 551.26 2333.22 699.15 2326.05 853.92 2510.85 786.21
00001077 00000090 2182.05 323.70 507.63 670.69 2259.58 632.25 2463.90 545.23 2348.85 694.97 2336.95 851.24 2519.50 782.43
00001078 00000091 2187.40 323.27 505.92 673.35 2269.67 629.06 2470.75 545.64 2359.15 691.86 2353.04 852.72 2524.51 787.53
00001079 00000092 2189.79 327.88 509.83 669.21 2273.54 625.25 2476.85 549.17 2361.75 695.71 2357.45 845.41 2536.81 784.27
00001080 00000093 2193.23 326.62 511.43 669.90 2277.50 625.40 2483.19 550.47 2366.76 698.83 2356.31 845.89 2542.97 785.70
00001081 00000094 2195.28 324.75 509.03 668.54 2279.06 625.88 2487.19 553.68 2370.29 705.71 2355.97 846.72 2543.05 789.21
00001082 00000095 2194.66 325.10 509.43 678.20 2278.69 628.54 2484.11 560.00 2363.75 714.24 2350.30 850.20 2541.73 795.25
00001083 00000096 2192.74 327.57 512.81 692.75 2274.89 636.77 2475.43 566.32 2355.90 726.33 2349.65 860.67 2543.38 803.27
00001084 00000097 2189.53 333.18 511.44 700.54 2267.93 643.64 2468.12 573.39 2343.12 736.43 2344.01 874.86 2534.67 817.47
00001085 00000098 2183.15 328.47 509.26 715.13 2257.25 652.86 2454.73 580.91 2325.04 748.54 2341.15 885.93 2513.07 828.39
00001086 00000099 2176.97 337.79 505.76 699.96 2248.03 655.46 2444.10 589.79 2313.20 755.79 2325.35 889.35 2493.46 837.29
00001087 00000100 2171.89 339.06 506.62 700.28 2242.39 659.58 2435.45 595.50 2303.30 758.58 2316.29 895.85 2480.39 845.84
00001088 00000101 2169.14 336.38 499.16 719.22 2239.41 664.77 2421.94 600.94 2294.69 769.20 2312.59 907.02 2472.89 859.26
00001089 00000102 2163.08 343.08 495.72 720.24 2234.60 669.77 2413.09 605.36 2288.37 781.07 2313.38 913.72 2468.44 865.08
00001090 00000103 2161.63 345.21 499.40 715.74 2233.54 676.62 2415.52 612.17 2292.53 786.89 2312.82 916.48 2472.23 868.18
00001091 00000104 2161.17 346.29 502.62 715.01 2238.68 677.91 2427.73 614.87 2308.85 789.57 2316.46 914.89 2485.92 867.31
00001092 00000105 2163.26 350.80 506.49 718.32 2248.34 678.94 2437.68 616.82 2324.04 793.11 2327.13 913.18 2498.20 865.08
00001093 00000106 2164.35 350.91 513.74 724.23 2255.11 680.57 2445.48 615.92 2336.28 795.47 2336.08 912.49 2513.71 861.58
00001094 00000107 2167.45 354.10 516.79 725.46 2258.06 678.97 2452.20 616.09 2342.86 799.47 2338.72 908.49 2524.96 857.21
00001095 00000108 2168.94 348.31 519.22 729.03 2261.36 677.01 2460.31 613.37 2350.99 800.20 2344.49 910.15 2533.41 858.15
00001096 00000109 2170.75 349.75 518.39 727.38 2263.95 674.09 2462.69 610.73 2354.00 798.91 2346.84 906.26 2534.82 853.83
00001097 00000110 2170.21 343.55 520.32 730.61 2264.02 673.74 2463.32 609.28 2353.73 793.53 2346.04 902.89 2533.86 849.77
00001098 00000111 2171.69 347.17 513.79 719.41 2263.07 674.73 2457.81 610.18 2348.29 787.48 2342.03 896.50 2528.95 843.33
00001099 00000112 2171.88 352.45 507.72 704.59 2259.22 677.08 2448.52 611.24 2337.70 781.28 2334.92 891.82 2518.52 837.47
00001100 00000113 2168.64 353.37 503.81 696.75 2253.18 676.15 2439.58 609.51 2328.46 771.18 2329.38 892.84 2502.46 839.90
00001101 00000114 2163.18 353.33 505.56 691.68 2244.18 681.46 2428.96 606.80 2315.90 767.30 2320.46 896.13 2493.76 836.93
00001102 00000115 2160.67 346.35 504.04 692.90 2239.31 681.05 2418.51 603.89 2302.79 766.22 2315.76 896.17 2486.07 835.10
00001103 00000116 2162.04 344.94 500.20 693.86 2237.72 681.75 2408.77 600.01 2290.63 761.61 2313.53 896.00 2475.65 830.99
00001104 00000117 2163.55 346.82 496.28 690.74 2238.82 676.70 2410.53 592.24 2291.31 755.73 2314.34 892.47 2479.31 823.91
00001105 00000118 2167.26 340.02 500.46 702.62 2242.33 670.38 2418.95 585.35 2298.59 746.94 2320.54 891.94 2483.89 823.92
00001106 DELETE   2175.41 339.65 496.46 691.39 2250.92 664.89 2431.38 579.59 2314.25 733.94 2328.48 879.30 2491.46 810.94
00001107 DELETE   2184.60 340.39 493.83 675.91 2259.17 656.79 2447.24 573.78 2331.67 725.44 2333.16 868.48 2505.79 802.10
00001108 00000121 2188.11 332.20 503.42 683.59 2260.16 644.76 2456.45 572.27 2335.49 721.86 2340.31 858.51 2507.88 800.92
00001109 00000122 2193.23 327.79 503.13 678.23 2265.01 638.26 2468.58 570.15 2348.89 719.58 2343.35 853.54 2518.05 799.93
00001110 00000123 2192.62 331.98 503.15 672.46 2265.74 639.03 2472.08 571.69 2355.15 719.94 2345.69 853.24 2519.84 800.20
00001111 00000124 2192.57 332.45 502.30 683.98 2263.00 645.35 2466.90 572.94 2347.35 724.03 2342.57 860.58 2521.40 803.05
00001112 00000125 2190.93 345.51 501.15 678.11 2267.32 652.71 2459.19 572.50 2346.78 732.67 2343.09 875.69 2525.68 811.26
00001113 00000126 2188.93 346.15 497.13 695.92 2263.37 659.94 2449.18 576.53 2332.77 748.03 2338.03 881.85 2526.27 811.56
00001114 00000127 2185.09 350.75 496.91 700.02 2259.61 663.02 2440.46 583.35 2323.90 758.18 2336.10 887.16 2516.56 820.10
00001115 00000128 2178.14 348.51 498.63 703.32 2253.80 671.91 2438.42 592.42 2320.88 764.54 2328.45 893.01 2511.51 827.29
00001116 00000129 2172.46 349.00 500.65 700.08 2250.18 677.30 2432.93 599.72 2318.15 773.34 2324.69 893.14 2508.61 828.81
00001117 00000130 2166.59 351.65 505.82 695.38 2245.47 681.53 2427.57 603.08 2313.33 778.48 2323.32 895.17 2503.50 830.49
00001118 00000131 2163.13 351.41 508.38 697.98 2242.80 684.45 2425.23 604.09 2311.49 782.16 2322.60 897.83 2504.73 831.34
00001119 00000132 2160.10 352.90 511.52 696.50 2240.89 685.28 2424.98 605.10 2314.14 785.22 2324.57 901.26 2504.35 835.65
00001120 00000133 2156.35 354.04 515.44 696.11 2239.51 685.39 2424.56 604.61 2315.07 785.23 2324.76 902.07 2504.70 835.87
00001121 00000134 2156.69 355.30 515.18 692.54 2239.10 684.89 2425.72 601.58 2315.45 783.03 2323.74 900.35 2507.27 831.46
00001122 00000135 2158.29 357.11 512.86 677.18 2240.33 679.19 2426.22 597.89 2317.76 774.77 2322.72 892.15 2503.74 825.34
00001123 00000136 2159.02 349.64 513.46 680.93 2241.00 677.13 2425.61 590.76 2315.95 766.67 2323.34 882.40 2507.24 810.18
00001124 00000137 2158.35 347.96 512.05 678.02 2242.14 665.35 2428.22 586.06 2318.79 759.58 2321.61 869.88 2502.78 803.10
00001125 00000138 2164.70 343.91 507.37 674.10 2245.42 658.88 2433.59 578.85 2323.87 748.80 2320.86 866.61 2502.73 800.88
00001126 00000139 2169.81 341.42 503.83 668.72 2249.53 651.76 2437.17 573.79 2328.39 739.45 2325.95 859.66 2502.60 796.64
00001127 00000140 2170.20 344.81 503.76 666.09 2249.95 648.40 2440.37 570.59 2331.17 736.12 2328.02 855.47 2505.43 791.84
00001128 00000141 2173.64 342.61 501.93 667.33 2251.70 647.78 2441.09 567.68 2331.00 733.52 2329.40 857.80 2506.81 792.61
00001129 00000142 2176.36 344.05 500.38 667.96 2251.98 648.63 2442.98 568.30 2331.07 731.28 2327.72 860.68 2508.01 795.49
00001130 00000143 2177.70 344.31 499.64 671.19 2252.57 650.26 2443.95 567.08 2331.86 733.15 2328.69 862.70 2510.81 794.56
00001131 00000144 2177.26 347.12 501.71 668.94 2254.60 648.05 2444.52 570.44 2334.28 736.53 2332.76 861.14 2509.09 798.07
00001132 00000145 2177.68 347.26 504.69 669.94 2255.00 651.34 2445.17 571.81 2334.32 739.95 2332.52 864.35 2513.58 799.29
00001133 00000146 2177.77 344.25 503.89 681.69 2254.86 651.94 2446.61 572.89 2334.56 743.72 2330.78 868.04 2515.22 802.65
00001134 00000147 2178.46 343.81 503.68 693.53 2256.22 653.67 2447.42 574.52 2333.69 746.99 2330.57 868.96 2522.04 801.64
00001135 00000148 2180.30 347.07 501.49 695.98 2256.90 653.43 2445.17 578.03 2329.32 754.18 2330.57 874.61 2519.03 809.97
00001136 00000149 2179.37 345.16 502.43 696.61 2257.11 655.96 2444.55 579.10 2329.36 754.73 2330.92 876.39 2520.42 810.72
00001137 00000150 2179.16 345.27 502.08 691.85 2256.72 656.07 2445.31 578.95 2330.24 753.61 2331.00 875.34 2519.08 809.99
00001138 00000151 2178.25 346.00 503.82 681.67 2255.18 656.09 2446.25 580.17 2331.79 751.62 2328.27 873.84 2513.49 810.90
00001139 00000152 2178.39 345.99 502.95 677.30 2254.40 654.65 2445.43 580.56 2331.93 752.31 2326.72 869.65 2513.20 808.10
00001140 00000153 2177.14 346.32 503.77 668.52 2253.95 652.11 2444.75 580.95 2333.56 752.12 2327.15 865.64 2510.65 807.38
00001141 00000154 2178.40 346.03 502.59 667.16 2253.65 652.37 2444.13 579.72 2332.51 750.86 2325.55 867.33 2511.41 808.12
00001142 00000155 2177.54 345.39 504.43 667.21 2253.22 652.28 2443.98 579.74 2332.22 749.88 2325.16 866.74 2509.73 807.95
00001143 00000156 2176.93 345.27 504.89 663.65 2253.32 651.87 2443.87 581.04 2333.11 750.38 2325.66 866.17 2508.13 809.34
00001144 00000157 2176.23 343.77 507.69 664.62 2253.95 652.60 2444.09 581.08 2334.12 750.73 2327.22 867.98 2507.89 811.10
00001145 00000158 2175.93 342.53 508.17 665.77 2254.06 652.25 2443.44 580.35 2333.61 749.46 2327.10 867.30 2507.25 810.28
00001146 00000159 2175.91 343.84 507.52 666.61 2253.86 650.68 2443.94 579.96 2333.15 748.71 2326.62 866.89 2506.46 810.65
00001147 00000160 2176.55 343.51 507.59 665.79 2254.32 650.38 2444.55 579.88 2333.65 748.43 2327.03 867.36 2506.39 811.62
00001148 00000161 2177.31 343.19 507.03 665.49 2254.42 650.74 2445.01 579.74 2333.93 748.81 2327.29 867.94 2507.34 811.91
00001149 00000162 2177.43 340.51 506.97 675.36 2255.08 650.92 2445.65 579.12 2333.71 747.41 2326.15 868.33 2509.40 811.04
