Video ID: 	30BJmnXbkFk
H: 	1080
W: 	1920
FPS: 	25.0

FRAME INDEX X0 Y0 W H [Landmarks (5 Points)]

00001995 00000000 937.99 200.38 365.86 512.22 1013.50 389.91 1177.34 398.85 1065.42 476.38 1025.90 568.98 1168.89 578.17
00001996 00000001 938.36 200.49 367.23 512.81 1014.25 388.92 1177.38 397.80 1065.70 474.99 1026.09 568.26 1168.65 577.37
00001997 00000002 937.25 200.19 361.66 505.52 1013.43 390.14 1175.32 401.34 1065.86 474.92 1022.99 563.90 1165.86 574.95
00001998 00000003 931.45 199.31 365.20 507.38 1014.23 393.41 1175.86 402.42 1056.25 484.20 1017.75 569.31 1163.80 576.66
00001999 00000004 931.27 202.98 362.05 508.23 1013.03 401.35 1172.26 408.83 1053.51 487.80 1013.07 572.66 1161.15 579.12
00002000 00000005 930.88 211.20 360.92 506.61 1009.59 407.25 1168.78 416.03 1050.23 495.57 1008.96 577.38 1161.25 584.64
00002001 DELETE   927.67 212.39 359.60 513.86 1008.91 410.91 1167.59 424.15 1049.50 502.23 1006.28 581.27 1159.04 591.23
00002002 00000007 932.45 222.98 364.26 505.06 1003.37 415.33 1164.51 426.59 1040.91 512.36 1006.38 590.57 1156.24 598.81
00002003 00000008 931.30 224.32 360.69 508.58 1000.55 419.96 1161.99 431.91 1039.62 518.96 1008.76 597.09 1156.77 604.97
00002004 00000009 931.42 228.26 363.11 513.84 1000.25 428.48 1159.27 438.41 1038.68 521.72 1014.88 604.31 1157.43 609.74
00002005 DELETE   929.10 241.78 368.56 505.92 997.40 431.89 1157.51 441.34 1039.41 525.97 1016.80 609.71 1155.20 614.35
00002006 00000011 932.24 232.67 360.68 514.07 999.70 430.58 1157.14 440.08 1036.70 523.08 1014.73 605.86 1153.27 610.79
00002007 00000012 932.29 234.20 363.37 510.28 999.44 422.28 1160.02 429.27 1035.87 514.09 1014.44 607.81 1150.30 611.34
00002008 00000013 933.63 230.99 364.25 502.27 1005.86 415.94 1166.01 422.13 1042.93 501.46 1018.09 601.29 1151.27 605.78
00002009 00000014 932.76 221.82 358.09 502.41 1009.91 408.33 1174.92 414.33 1063.38 494.72 1025.03 593.79 1155.98 600.36
00002010 DELETE   935.66 212.83 355.80 509.56 1014.76 403.75 1178.22 410.02 1069.72 489.05 1027.07 587.58 1158.71 595.03
00002011 DELETE   942.01 209.75 350.77 507.13 1017.47 401.20 1177.23 410.03 1067.03 486.04 1024.55 580.05 1156.96 589.93
00002012 DELETE   942.81 208.19 347.46 508.45 1017.26 400.73 1177.09 410.08 1066.16 485.64 1023.09 579.40 1156.41 589.76
00002013 00000018 940.06 212.19 347.06 504.78 1016.10 402.39 1177.33 413.21 1065.80 488.99 1021.12 580.23 1155.40 591.49
00002014 DELETE   939.20 222.01 346.28 495.61 1011.62 411.81 1162.97 417.89 1055.03 496.55 1021.41 585.48 1146.89 591.93
00002015 DELETE   937.97 219.03 351.36 502.20 1012.53 410.48 1166.27 419.53 1047.80 495.71 1014.37 592.20 1146.81 599.87
00002016 DELETE   937.36 217.50 365.47 514.28 1008.14 417.23 1164.86 422.80 1039.40 501.71 1018.59 601.14 1149.39 605.25
00002017 00000022 939.21 220.72 363.20 507.83 1004.46 417.80 1161.34 423.52 1036.49 510.23 1023.05 606.47 1149.01 610.05
00002018 00000023 938.84 231.66 355.06 499.47 1002.30 423.18 1158.58 431.11 1035.89 519.27 1021.66 608.96 1151.34 613.69
00002019 00000024 937.16 231.83 356.39 504.98 1000.86 430.05 1158.18 437.59 1036.16 522.75 1020.11 609.85 1154.26 613.49
00002020 00000025 935.23 240.90 365.92 496.30 995.23 433.00 1155.72 439.84 1032.16 526.22 1016.29 611.12 1151.99 614.30
00002021 00000026 933.98 242.97 364.63 493.75 994.71 433.01 1154.40 440.67 1031.77 527.52 1015.07 609.14 1150.44 612.87
00002022 00000027 934.62 243.37 362.54 490.44 995.06 433.24 1154.70 440.22 1032.23 527.27 1014.60 608.26 1150.89 611.59
00002023 00000028 934.64 245.29 365.52 485.87 994.88 433.48 1155.85 439.93 1034.81 526.72 1016.10 609.76 1151.07 612.89
00002024 00000029 935.81 248.09 359.39 491.16 998.43 433.99 1158.18 440.44 1036.21 526.32 1018.46 611.93 1152.11 614.58
00002025 00000030 938.51 245.55 358.52 497.90 999.47 434.28 1159.18 439.48 1035.02 526.44 1022.03 616.08 1154.19 617.45
00002026 00000031 934.35 240.40 364.22 505.19 998.50 435.52 1162.81 441.29 1042.15 532.72 1016.67 612.42 1153.28 618.10
00002027 00000032 935.40 247.63 366.46 497.78 998.99 435.45 1159.58 441.45 1034.95 528.88 1020.40 613.58 1157.09 615.18
00002028 00000033 935.15 248.51 370.60 494.95 998.77 436.77 1159.72 443.11 1034.24 529.36 1018.66 612.33 1156.42 614.31
00002029 00000034 934.55 250.77 373.33 491.76 998.05 438.32 1160.07 445.33 1033.04 528.77 1015.66 610.43 1155.54 613.01
00002030 00000035 933.51 250.62 371.29 490.66 996.74 440.26 1158.74 444.29 1033.23 528.29 1015.76 613.39 1153.68 613.71
00002031 00000036 933.61 249.36 367.85 486.85 997.35 436.57 1159.30 444.15 1036.19 529.87 1016.61 611.36 1151.94 614.92
00002032 00000037 935.28 251.55 360.35 486.43 997.30 433.18 1161.37 443.86 1036.84 532.03 1014.48 611.15 1155.04 616.70
00002033 00000038 934.34 251.95 361.16 485.48 997.84 432.31 1161.59 444.99 1037.41 533.28 1012.48 608.49 1154.54 615.58
00002034 00000039 934.41 252.70 363.52 491.20 997.55 431.99 1161.48 444.80 1034.49 531.80 1010.70 609.15 1155.32 616.10
00002035 00000040 929.55 245.64 371.07 502.79 995.37 433.29 1163.56 443.00 1038.61 532.39 1005.61 608.00 1151.79 616.74
00002036 00000041 930.60 249.19 367.31 501.23 996.37 431.85 1158.78 443.45 1032.34 530.23 1011.01 609.13 1153.08 615.32
00002037 00000042 931.28 253.88 365.07 490.85 996.58 432.13 1156.64 444.31 1032.40 530.18 1012.18 608.20 1150.54 614.92
00002038 00000043 931.69 258.38 361.97 486.17 996.69 433.39 1156.45 447.24 1033.42 532.78 1011.99 607.79 1152.33 615.36
00002039 00000044 932.31 261.72 356.90 483.03 997.57 438.01 1157.65 451.32 1036.19 534.05 1011.28 608.74 1152.34 616.36
00002040 00000045 928.69 255.88 356.22 487.82 994.90 443.69 1165.30 453.64 1043.66 540.05 1005.77 610.46 1150.93 619.32
00002041 00000046 927.54 258.17 358.94 484.43 993.09 444.85 1162.87 453.02 1040.49 540.16 1004.03 610.14 1149.75 617.47
00002042 00000047 929.49 262.80 351.83 479.25 994.26 441.57 1153.47 453.22 1034.98 537.11 1009.27 608.20 1150.56 614.81
00002043 00000048 930.99 259.19 349.76 479.80 992.22 440.30 1151.45 450.12 1032.86 535.73 1009.03 608.16 1150.34 613.41
00002044 00000049 930.65 256.82 351.25 482.57 992.41 438.06 1149.31 447.82 1030.10 534.10 1007.62 605.33 1149.47 610.36
00002045 00000050 930.02 253.05 352.85 490.74 994.18 435.34 1148.84 447.07 1028.48 532.47 1007.53 603.80 1146.95 610.20
00002046 00000051 930.60 249.08 352.47 492.51 992.53 434.99 1146.04 445.78 1024.96 530.95 1006.81 605.43 1141.40 611.39
00002047 00000052 924.34 240.81 357.67 503.96 986.56 427.24 1149.61 439.50 1020.42 531.49 1004.09 611.17 1141.01 619.69
00002048 00000053 922.85 240.20 357.52 507.61 985.00 425.29 1148.63 438.78 1018.71 531.64 1001.65 611.07 1140.00 620.61
00002049 00000054 922.43 240.59 356.99 504.67 985.37 424.47 1148.70 440.32 1020.29 531.57 999.25 606.70 1138.46 618.39
00002050 00000055 923.46 238.79 359.36 503.60 986.35 430.39 1147.76 443.94 1028.65 531.93 999.27 605.13 1136.76 616.19
00002051 00000056 921.92 238.21 351.78 506.06 986.35 425.55 1147.53 441.57 1022.14 529.98 998.85 603.79 1135.92 615.79
00002052 00000057 922.70 239.53 353.48 506.96 986.59 424.77 1147.25 441.33 1020.81 528.58 998.73 604.76 1133.92 617.25
00002053 00000058 923.51 237.73 353.86 509.68 988.08 425.21 1149.59 442.05 1022.73 529.21 1000.18 606.34 1134.60 619.07
00002054 00000059 924.27 236.22 357.77 513.56 988.94 426.82 1151.98 441.71 1024.09 527.81 1000.46 608.92 1135.83 620.03
00002055 00000060 923.86 237.78 356.33 512.55 989.66 428.08 1154.05 441.14 1027.83 530.47 1002.16 612.90 1140.90 622.28
00002056 00000061 924.26 238.95 357.80 511.15 990.58 428.34 1155.16 441.39 1028.75 531.21 1004.28 615.00 1142.27 624.29
00002057 00000062 923.94 240.78 359.01 514.10 990.06 429.24 1154.90 441.18 1027.63 531.96 1003.85 616.33 1142.34 624.80
00002058 00000063 924.30 246.48 358.36 509.06 988.80 429.40 1154.04 440.68 1027.29 533.42 1003.56 617.98 1141.43 626.01
00002059 00000064 927.93 254.61 362.89 500.85 992.69 437.04 1149.06 444.09 1026.89 529.65 1009.26 616.55 1141.84 619.13
00002060 00000065 928.20 256.18 359.33 497.62 991.73 437.99 1146.96 443.19 1026.37 529.79 1011.31 616.75 1143.22 617.77
00002061 00000066 925.82 247.85 360.84 502.25 989.21 436.63 1152.83 445.11 1030.44 533.45 1002.05 610.92 1142.53 618.27
00002062 00000067 926.07 247.62 362.54 500.13 988.95 436.92 1152.92 446.44 1029.57 533.25 999.82 607.54 1142.90 615.56
00002063 00000068 929.16 249.39 361.97 495.43 991.95 432.28 1145.46 444.20 1022.99 529.63 1005.58 605.23 1141.82 611.73
00002064 00000069 929.82 248.25 358.02 496.91 993.93 431.22 1146.99 443.42 1024.84 527.18 1007.40 603.58 1142.87 610.41
00002065 00000070 929.75 243.24 357.58 501.89 994.86 431.60 1147.33 441.85 1027.36 526.85 1010.04 603.73 1145.90 609.15
00002066 00000071 931.09 242.03 356.20 498.40 994.46 432.44 1149.05 438.31 1030.87 528.09 1016.98 608.82 1151.67 610.56
00002067 00000072 934.58 242.43 348.78 494.42 997.75 433.21 1155.64 437.23 1039.32 526.23 1021.94 612.10 1156.38 612.59
00002068 00000073 935.38 241.68 351.80 499.96 1000.21 430.92 1159.94 434.89 1042.47 524.77 1022.76 609.87 1161.15 609.89
00002069 00000074 935.59 239.34 351.09 506.51 1002.92 431.43 1161.31 433.01 1044.87 523.84 1023.69 608.44 1161.87 606.56
00002070 00000075 935.69 234.28 354.06 503.81 1002.52 429.48 1162.44 433.10 1043.98 523.60 1021.21 607.41 1158.70 608.06
00002071 00000076 933.05 232.16 359.71 508.39 1001.79 429.17 1167.39 436.75 1052.30 526.39 1018.21 602.42 1160.69 609.94
00002072 00000077 936.26 232.32 355.38 506.47 1004.84 428.60 1172.73 438.61 1056.67 525.95 1020.08 600.05 1165.29 609.56
00002073 00000078 937.07 228.20 354.90 510.41 1007.89 427.11 1177.86 436.89 1063.48 523.67 1024.99 599.61 1171.42 608.91
00002074 00000079 937.70 227.04 355.65 511.13 1008.31 427.87 1179.60 436.11 1065.13 524.38 1027.80 600.46 1175.68 608.25
00002075 00000080 939.90 233.65 348.07 496.99 1012.09 430.64 1175.98 433.82 1063.24 525.66 1031.33 606.08 1169.35 607.17
00002076 00000081 936.72 232.30 357.97 501.13 1004.97 434.50 1171.70 434.33 1061.81 528.39 1033.17 606.17 1171.20 606.68
00002077 00000082 934.48 238.96 359.83 504.57 1002.39 437.79 1168.53 438.37 1056.08 531.47 1026.45 609.13 1167.70 610.43
00002078 00000083 933.18 254.09 359.05 493.52 1001.75 437.03 1162.63 441.50 1047.03 535.15 1024.55 610.86 1166.63 610.62
00002079 00000084 930.39 256.79 359.65 489.59 1000.73 445.02 1168.19 447.61 1053.21 534.93 1012.93 607.29 1162.33 610.49
00002080 00000085 929.73 256.46 359.38 487.79 1001.16 447.52 1169.82 450.79 1054.63 536.82 1010.38 605.69 1162.69 609.24
00002081 00000086 928.96 259.20 355.72 485.26 1000.90 449.20 1169.13 452.12 1055.86 538.37 1008.71 605.78 1161.41 609.00
00002082 00000087 928.58 256.98 354.83 488.29 1000.24 450.94 1167.76 454.27 1055.10 540.78 1008.75 606.48 1160.90 609.88
00002083 00000088 927.76 260.86 360.30 487.04 998.08 451.55 1165.27 455.42 1050.18 543.68 1007.41 609.36 1158.79 612.90
00002084 00000089 929.02 265.96 364.34 481.71 998.44 444.82 1161.56 456.05 1046.60 549.73 1010.89 609.26 1162.60 613.90
00002085 00000090 928.42 262.20 361.83 487.56 998.30 453.65 1163.91 458.30 1049.94 547.60 1008.64 611.23 1158.36 615.37
00002086 00000091 928.67 265.70 365.52 485.46 999.72 455.47 1164.16 458.36 1053.67 550.05 1012.62 614.65 1160.77 617.20
00002087 00000092 930.38 267.08 364.25 482.63 1001.03 457.27 1166.74 460.77 1056.54 552.28 1014.66 615.85 1162.67 618.81
00002088 00000093 930.02 266.52 365.18 486.90 999.24 458.54 1164.71 459.79 1053.88 553.93 1014.35 617.47 1164.76 618.54
00002089 00000094 927.92 265.63 368.07 490.15 997.70 457.20 1165.27 459.24 1052.12 555.28 1012.83 621.03 1161.16 622.91
00002090 00000095 929.14 264.79 370.29 492.40 996.76 457.39 1167.85 458.17 1051.49 553.13 1013.28 625.34 1161.74 626.08
00002091 00000096 929.29 258.82 367.67 501.63 998.80 456.32 1169.57 455.66 1054.76 551.81 1017.86 627.30 1165.74 627.07
00002092 00000097 930.72 259.36 364.13 497.81 999.85 454.81 1168.04 455.39 1054.67 551.16 1019.97 625.11 1163.02 625.96
00002093 00000098 929.56 257.21 362.97 500.38 1000.37 455.08 1166.95 455.71 1055.58 550.48 1018.95 622.67 1162.51 623.72
00002094 00000099 930.05 263.19 360.94 494.29 1000.55 455.25 1165.55 457.07 1053.22 548.70 1014.39 618.88 1160.64 620.81
00002095 00000100 928.77 262.27 363.28 495.17 999.70 454.18 1165.63 458.05 1051.16 550.81 1010.72 615.80 1161.17 619.28
00002096 00000101 927.08 262.99 367.52 499.33 995.69 455.30 1165.98 457.48 1048.55 552.91 1007.36 619.85 1163.93 621.81
00002097 00000102 926.27 258.61 368.14 498.35 991.50 457.19 1162.16 458.07 1047.25 559.39 1017.76 628.27 1162.24 628.73
00002098 00000103 925.87 259.37 370.64 504.34 987.85 461.21 1156.51 460.67 1041.32 568.25 1019.48 633.24 1163.75 632.73
00002099 00000104 918.11 268.05 374.92 503.24 991.25 462.89 1149.48 468.74 1047.25 569.35 1019.47 638.59 1154.56 643.54
00002100 00000105 916.94 273.31 372.19 504.53 987.96 462.42 1150.24 477.70 1032.19 576.25 1012.00 640.71 1150.77 651.29
00002101 00000106 913.90 276.00 377.13 510.12 984.32 463.22 1149.23 478.79 1028.86 577.44 1007.27 645.26 1148.37 656.41
00002102 00000107 913.05 274.64 376.07 510.20 981.43 466.52 1150.58 479.37 1025.05 579.21 1002.97 643.64 1146.44 653.24
00002103 00000108 913.86 272.65 372.40 501.17 982.70 461.66 1147.60 477.27 1029.97 577.27 1005.79 641.50 1145.35 652.91
00002104 00000109 912.81 281.29 377.25 489.31 982.37 470.04 1147.04 485.06 1026.09 582.20 999.54 636.14 1141.92 647.73
00002105 00000110 910.03 290.11 380.85 482.11 980.54 475.62 1146.54 489.75 1028.37 585.09 998.88 641.35 1141.68 652.33
00002106 00000111 909.19 292.23 379.50 480.62 975.70 482.60 1141.27 494.89 1024.16 589.07 997.48 646.84 1137.32 656.39
00002107 00000112 909.24 293.29 377.56 482.92 972.80 484.05 1138.79 498.14 1021.17 593.49 991.71 647.80 1137.70 658.68
00002108 00000113 909.30 298.82 367.71 483.69 969.02 487.11 1135.41 497.95 1018.16 596.99 996.55 655.97 1137.17 663.60
00002109 00000114 902.30 308.37 384.97 483.45 968.93 486.28 1130.96 504.42 1017.89 603.75 999.29 655.21 1137.55 667.16
00002110 00000115 900.04 308.01 380.11 483.37 966.98 486.55 1125.55 503.03 1016.58 606.45 1000.90 653.62 1138.97 663.81
00002111 00000116 899.01 306.60 382.58 482.27 966.11 484.41 1125.88 499.63 1015.43 601.43 999.02 652.35 1136.79 661.71
00002112 00000117 901.04 302.13 377.94 473.03 965.14 483.39 1127.18 497.59 1016.75 597.81 995.30 646.52 1136.86 655.95
00002113 00000118 905.63 303.44 369.70 469.03 967.47 484.20 1132.04 494.82 1018.07 596.29 991.93 646.31 1137.40 653.85
00002114 00000119 899.78 301.70 376.69 479.50 964.94 483.96 1124.28 497.03 1016.65 597.74 996.79 647.52 1136.66 655.53
00002115 00000120 899.50 300.32 370.52 481.08 965.66 482.41 1123.04 492.36 1018.39 594.22 998.03 643.15 1140.42 648.35
00002116 00000121 902.02 297.21 371.14 473.77 968.37 472.10 1127.13 487.54 1018.47 583.43 991.49 631.23 1138.24 642.06
00002117 00000122 897.07 280.72 380.62 487.72 968.53 476.16 1126.70 475.37 1024.87 580.84 989.71 626.81 1147.63 627.10
00002118 00000123 898.06 272.74 381.96 493.46 967.18 474.18 1124.42 470.85 1023.48 573.41 991.78 626.50 1147.92 624.29
00002119 00000124 898.02 266.43 389.00 491.58 968.69 461.38 1126.16 459.32 1022.89 555.85 989.29 615.26 1145.11 613.70
00002120 00000125 904.32 262.03 372.73 481.40 975.95 448.90 1136.24 451.84 1033.06 540.66 990.75 604.89 1145.47 607.86
00002121 00000126 915.77 253.53 365.45 492.89 989.87 429.17 1146.14 448.78 1032.51 535.05 998.80 591.18 1145.93 603.36
00002122 00000127 920.13 254.63 358.21 491.09 993.04 430.31 1148.24 447.02 1034.97 535.08 1003.90 592.60 1150.03 602.44
00002123 00000128 924.17 253.46 354.61 491.77 993.72 431.87 1146.03 445.07 1035.67 533.59 1007.86 595.22 1149.09 602.40
00002124 00000129 930.28 254.32 351.01 491.38 995.42 435.34 1148.64 445.62 1038.20 535.52 1010.81 598.68 1150.65 603.47
00002125 00000130 933.66 249.35 351.94 490.47 996.24 437.93 1150.10 441.49 1038.71 533.70 1015.08 603.86 1154.75 603.11
00002126 00000131 933.87 240.44 348.13 491.55 997.38 435.89 1152.12 437.81 1042.13 532.27 1014.80 600.23 1159.78 598.26
00002127 00000132 935.66 227.72 351.00 491.94 1001.43 423.25 1161.35 428.02 1050.53 516.89 1018.79 587.42 1162.79 591.93
00002128 00000133 941.41 213.57 358.45 499.85 1008.02 414.27 1169.99 415.48 1058.46 502.56 1027.08 577.07 1178.86 577.80
00002129 00000134 948.13 207.81 362.94 503.66 1014.33 406.90 1175.74 410.16 1064.25 495.46 1034.04 574.14 1182.77 576.70
CROP_BBOX: 690 0 1519 910
