Video ID: 	aHaf_vOwtQY
H: 	1080
W: 	1920
FPS: 	29.97002997002997

FRAME INDEX X0 Y0 W H [Landmarks (5 Points)]

00005254 00000000 621.85 306.82 398.69 522.80 803.90 483.65 959.46 489.82 919.78 582.34 821.24 681.99 941.10 685.56
00005255 00000001 618.35 309.02 399.79 518.21 801.34 488.04 956.88 491.75 918.26 592.04 819.31 684.46 940.08 686.48
00005256 00000002 616.81 309.69 401.06 518.34 798.46 489.31 955.19 492.86 915.18 596.38 816.28 684.97 939.07 686.96
00005257 00000003 612.96 313.62 403.71 517.93 796.55 491.49 952.22 493.52 912.74 598.96 813.02 686.36 935.88 687.22
00005258 00000004 613.01 313.69 403.65 517.84 796.56 491.50 952.24 493.54 912.74 598.98 813.04 686.35 935.89 687.22
00005259 00000005 612.38 312.41 402.34 518.25 794.86 492.18 950.02 491.47 911.23 599.77 812.84 688.04 934.20 686.83
00005260 00000006 610.39 312.47 402.70 517.42 793.49 493.30 949.33 490.71 909.27 602.33 809.48 688.35 931.84 685.73
00005261 00000007 609.77 309.62 401.70 518.60 794.19 492.89 948.57 488.88 909.98 601.68 809.06 687.93 930.30 684.29
00005262 00000008 606.04 308.45 403.76 520.39 791.43 492.65 946.65 487.75 908.07 602.17 805.42 688.98 927.54 684.45
00005263 00000009 605.98 307.34 403.73 521.46 791.63 492.52 946.72 487.54 908.25 601.97 805.74 688.94 927.50 684.36
00005264 00000010 602.07 307.45 403.24 521.77 787.80 491.63 942.38 487.21 903.98 601.51 800.82 688.84 922.52 684.47
00005265 00000011 598.78 302.69 399.35 527.51 781.11 488.31 935.87 484.99 897.56 598.46 795.00 687.30 916.28 683.74
00005266 00000012 596.64 304.05 397.35 523.20 776.87 487.50 931.78 484.56 893.01 596.29 791.29 685.89 911.32 682.58
00005267 00000013 597.20 307.59 389.53 520.74 767.30 488.83 925.20 485.51 893.24 590.32 781.75 686.73 913.81 683.68
00005268 00000014 597.17 307.75 389.60 520.39 767.25 488.89 925.23 485.56 893.20 590.26 781.72 686.67 913.81 683.62
00005269 00000015 588.97 300.62 394.44 526.56 755.76 482.99 918.93 477.63 883.35 585.02 773.97 684.59 909.20 679.42
00005270 DELETE   581.78 297.14 397.55 531.29 744.10 479.99 909.33 473.40 871.54 578.13 764.87 679.65 905.05 672.99
00005271 00000017 578.54 298.78 400.01 535.59 736.98 475.67 904.47 471.31 863.72 575.89 757.55 679.21 900.51 673.93
00005272 DELETE   575.65 298.47 401.30 538.09 731.42 472.03 897.80 469.78 854.75 573.72 753.63 678.73 890.82 674.92
00005273 DELETE   575.70 298.82 401.57 537.82 731.78 472.21 897.73 470.25 854.57 573.99 753.44 678.36 890.63 674.75
00005274 DELETE   573.76 292.82 399.21 543.54 731.24 464.71 892.50 466.62 847.23 569.19 748.51 671.28 881.85 670.93
00005275 00000021 572.10 288.01 399.92 551.53 725.69 460.65 887.68 463.83 838.84 562.51 741.77 667.87 875.97 668.84
00005276 00000022 569.18 289.24 401.74 548.19 721.65 459.26 884.73 463.55 831.65 562.33 737.11 666.57 869.19 668.48
00005277 00000023 565.05 288.83 406.27 546.72 717.45 457.71 882.77 463.30 826.23 562.35 732.46 664.91 865.17 667.98
00005278 00000024 564.78 289.02 406.65 546.58 717.42 457.73 882.80 463.17 826.38 562.69 732.80 665.19 865.28 668.13
00005279 00000025 563.52 283.33 405.36 548.63 713.99 456.61 880.92 462.10 820.90 560.80 730.25 662.47 862.50 665.33
00005280 00000026 564.84 279.58 404.89 551.51 711.81 453.70 877.08 460.42 812.12 557.57 724.57 658.51 855.67 662.70
00005281 00000027 565.23 274.69 404.43 556.50 710.30 452.18 875.98 458.63 808.45 552.97 723.71 657.44 853.30 661.84
00005282 00000028 563.89 273.14 405.96 557.11 709.09 451.96 873.95 458.10 807.34 549.30 723.38 656.19 852.42 660.44
00005283 00000029 559.62 262.62 410.50 570.43 713.66 450.51 876.14 464.27 810.00 544.61 721.68 655.64 857.84 666.59
00005284 00000030 559.43 261.03 412.50 559.05 708.69 452.92 877.29 464.86 807.58 543.55 719.93 651.86 859.33 661.54
00005285 00000031 560.02 262.05 414.40 556.52 708.99 451.07 878.04 465.67 806.03 540.70 716.16 646.99 858.95 658.88
00005286 00000032 562.14 261.91 413.37 554.12 709.40 449.53 879.46 464.06 806.89 539.00 717.12 645.90 860.48 657.83
00005287 00000033 560.80 260.33 416.93 568.31 711.01 447.28 881.09 463.26 809.97 539.06 715.46 648.17 863.85 661.15
00005288 00000034 560.91 260.36 416.58 568.44 710.99 447.26 881.22 463.47 810.12 539.00 715.21 648.06 864.13 661.25
00005289 00000035 563.26 260.69 414.26 570.23 716.37 442.00 882.34 458.54 813.88 535.78 718.24 647.63 862.16 661.38
00005290 00000036 566.31 255.43 413.00 578.16 719.41 435.65 885.02 454.96 815.98 533.89 718.55 647.10 861.90 662.93
00005291 00000037 566.40 253.85 413.53 578.03 719.90 434.61 884.89 453.53 816.36 532.89 719.14 644.91 862.62 660.31
00005292 00000038 565.05 252.00 416.60 576.76 719.10 435.51 885.03 453.18 817.17 532.99 720.14 643.73 864.19 658.00
00005293 00000039 565.07 251.99 416.58 576.71 719.10 435.54 885.06 453.19 817.24 533.01 720.15 643.75 864.21 658.01
00005294 00000040 564.75 252.71 417.90 568.98 717.61 437.76 883.23 454.39 816.39 531.89 721.33 640.39 864.04 653.71
00005295 00000041 565.94 251.86 414.07 561.54 716.06 437.94 881.06 451.94 815.52 530.54 724.24 639.38 862.51 650.42
00005296 00000042 565.56 250.70 413.31 561.02 713.16 434.72 880.12 448.08 813.64 527.38 723.24 638.71 861.55 649.06
00005297 00000043 564.17 252.76 412.98 555.01 710.00 433.26 878.85 445.96 811.13 525.77 721.97 636.98 860.61 646.66
00005298 00000044 564.06 253.20 413.10 554.25 709.87 433.31 878.67 445.93 810.73 525.79 722.01 636.85 860.49 646.47
00005299 00000045 562.67 254.61 410.13 543.95 704.92 431.60 875.07 441.65 806.79 521.78 721.19 632.84 859.69 640.20
00005300 00000046 560.06 250.55 409.99 541.09 700.27 431.51 871.67 439.03 802.73 520.72 718.91 631.27 857.10 636.53
00005301 00000047 557.62 250.72 409.52 536.44 697.81 430.41 869.74 437.40 800.32 519.86 717.63 629.48 854.43 634.18
00005302 00000048 556.61 249.33 407.92 536.03 695.76 430.00 867.94 435.71 799.27 518.85 717.33 629.29 853.57 633.06
00005303 00000049 556.54 250.04 408.20 535.73 695.65 429.89 867.95 435.73 799.03 518.94 717.07 629.25 853.58 633.09
00005304 00000050 552.92 248.83 410.17 537.54 693.81 427.59 865.45 433.83 796.91 518.21 715.84 627.72 851.08 631.74
00005305 00000051 551.18 247.49 410.94 537.39 691.07 426.41 863.51 431.47 795.38 516.18 714.83 626.41 850.62 629.31
00005306 00000052 550.76 244.97 410.75 538.27 690.31 425.01 863.64 430.20 795.33 514.36 714.87 625.29 849.94 628.23
00005307 00000053 549.24 246.74 411.49 534.85 690.38 423.77 861.95 429.89 793.83 512.71 714.21 622.65 847.49 626.32
00005308 00000054 549.20 246.85 411.59 534.58 690.36 423.77 861.94 429.92 793.81 512.72 714.18 622.61 847.47 626.29
00005309 00000055 547.39 243.46 414.35 541.14 690.61 422.35 862.37 430.99 793.50 511.32 712.85 620.79 847.87 626.30
00005310 00000056 550.33 242.33 411.73 539.95 693.33 423.08 864.83 430.80 796.92 510.06 715.24 621.31 850.12 626.08
00005311 00000057 552.02 242.61 411.39 541.21 694.55 423.03 866.57 429.80 798.98 509.86 716.43 623.42 851.02 627.53
00005312 00000058 555.95 243.33 408.86 541.38 700.10 422.79 868.41 429.41 801.89 511.17 720.52 625.70 849.74 629.91
00005313 00000059 555.84 243.57 408.68 541.14 700.10 422.65 868.31 429.47 801.81 511.19 720.28 625.41 849.50 629.79
00005314 00000060 557.47 243.24 407.87 541.79 701.62 422.79 869.82 429.62 803.25 511.69 721.14 626.09 849.50 630.53
00005315 00000061 559.35 245.40 407.12 541.27 704.28 422.66 871.72 430.15 805.63 511.40 722.88 626.48 850.96 631.58
00005316 00000062 560.04 244.85 407.39 543.19 705.52 423.43 871.89 430.80 807.01 509.72 724.72 626.76 852.92 631.76
00005317 00000063 561.31 245.11 407.07 548.71 707.05 422.48 872.07 430.42 807.38 510.36 725.15 629.50 852.00 635.12
00005318 00000064 561.22 245.76 407.40 548.18 706.93 422.46 872.31 430.28 807.29 510.45 725.17 629.74 852.00 635.25
00005319 00000065 562.04 246.93 407.46 555.76 707.71 421.48 871.29 430.70 806.34 513.34 724.09 633.99 850.62 640.86
00005320 00000066 561.90 247.94 407.70 555.13 707.57 421.93 871.37 431.50 806.10 513.55 723.37 633.80 850.81 640.93
00005321 00000067 561.88 247.71 407.73 555.16 707.70 422.62 871.59 432.33 806.57 513.48 723.50 633.86 851.16 641.16
00005322 00000068 561.13 249.95 408.31 552.06 706.87 423.11 871.45 432.92 805.60 513.16 722.68 633.06 851.04 640.34
00005323 00000069 561.25 249.80 408.20 552.29 706.96 423.11 871.46 432.96 805.68 513.12 722.67 633.08 850.97 640.42
00005324 00000070 560.32 248.20 408.60 551.10 705.61 423.83 871.64 433.31 805.78 512.28 721.44 630.72 852.76 637.52
00005325 00000071 560.30 248.59 408.43 551.19 705.29 424.03 871.31 433.77 804.95 512.59 721.02 630.29 852.93 637.20
00005326 00000072 559.87 249.67 408.50 550.90 706.00 424.07 871.18 434.13 805.25 513.77 721.38 630.85 852.10 638.12
00005327 00000073 559.30 248.45 408.77 549.17 703.35 427.27 872.17 437.17 804.88 514.81 717.83 629.22 855.84 636.25
00005328 00000074 559.45 248.55 408.40 549.01 703.47 427.10 872.19 436.90 804.95 514.78 717.99 629.19 855.86 636.15
00005329 00000075 557.61 251.88 407.97 534.60 701.48 430.96 870.47 438.61 804.26 517.45 719.24 625.01 857.12 630.01
00005330 00000076 556.68 255.73 408.49 534.54 702.66 430.65 869.18 439.94 803.17 518.52 719.91 626.65 854.16 633.09
00005331 00000077 554.09 254.94 411.57 545.44 702.37 428.99 868.83 438.95 801.70 519.14 720.13 630.76 853.28 637.50
00005332 00000078 553.11 253.71 412.14 550.03 702.09 427.81 867.84 437.48 801.04 518.64 720.09 631.72 853.07 638.09
00005333 00000079 553.09 253.69 412.18 549.87 702.03 427.79 867.72 437.46 800.98 518.70 720.09 631.70 852.84 638.08
00005334 00000080 551.74 251.64 410.03 537.81 699.42 427.57 865.67 435.47 800.33 518.25 720.97 627.39 850.57 632.54
00005335 00000081 551.09 250.83 409.39 532.72 696.84 426.96 863.69 432.72 799.22 516.92 720.29 624.81 850.36 628.13
00005336 00000082 549.10 252.47 412.20 530.26 694.65 426.62 862.59 432.32 796.66 516.48 719.24 623.29 850.00 626.29
00005337 00000083 549.07 251.72 412.48 531.27 693.15 427.76 861.97 434.24 794.77 516.07 718.03 622.96 849.58 626.57
00005338 00000084 548.85 251.54 412.48 531.59 693.25 427.72 861.81 434.23 794.77 516.00 718.18 622.89 849.47 626.54
00005339 00000085 550.16 253.88 412.12 529.76 693.92 432.66 861.82 440.10 793.34 516.18 716.07 621.88 850.19 626.56
00005340 00000086 551.35 253.39 411.23 530.45 691.75 432.61 862.32 438.37 792.43 515.67 715.10 623.72 850.82 626.93
00005341 00000087 552.60 250.89 410.35 534.32 691.11 430.03 862.48 434.55 792.91 515.43 716.15 625.35 851.19 627.57
00005342 00000088 553.04 247.08 411.14 548.54 693.20 426.62 863.62 431.64 794.49 515.44 717.80 631.09 851.20 633.73
00005343 00000089 552.61 246.79 411.43 548.84 692.85 426.70 863.51 431.75 794.41 515.38 717.66 631.06 851.25 633.71
00005344 00000090 552.09 250.47 413.29 555.59 696.79 422.27 864.84 430.93 796.48 515.17 718.13 633.34 850.55 638.98
00005345 00000091 552.28 250.88 412.74 554.20 696.67 421.67 864.02 430.26 795.73 514.45 717.75 632.10 849.71 637.81
00005346 00000092 553.77 250.10 411.23 553.58 697.01 419.87 864.28 428.85 795.64 512.56 717.53 630.58 849.18 636.56
00005347 00000093 554.42 250.08 411.12 552.60 697.95 419.66 864.48 428.84 795.96 511.35 717.80 629.17 850.19 635.29
00005348 00000094 554.16 249.91 411.51 552.64 697.97 419.67 864.57 428.85 796.01 511.47 717.98 629.29 850.14 635.40
00005349 00000095 553.99 247.83 411.60 546.54 698.53 421.27 865.82 429.59 798.78 510.15 717.64 624.38 853.73 629.75
00005350 00000096 554.56 247.07 411.88 540.67 698.08 419.89 866.30 427.64 798.85 508.79 717.27 620.84 853.58 625.71
00005351 00000097 555.73 245.85 411.33 538.64 699.53 417.77 868.16 424.64 800.79 509.54 717.69 619.74 853.45 624.00
00005352 00000098 556.02 246.22 411.13 537.42 699.82 416.63 869.09 423.99 801.64 508.77 717.92 619.04 853.31 623.70
00005353 00000099 555.75 246.16 411.33 537.42 699.75 416.58 869.01 423.96 801.63 508.83 717.85 619.03 853.18 623.72
00005354 00000100 556.26 243.18 411.39 538.05 700.26 413.86 870.28 421.49 801.59 505.98 717.77 617.81 852.10 622.67
00005355 00000101 557.44 243.35 411.31 538.47 701.30 413.40 871.27 421.19 802.50 506.13 718.37 618.48 852.10 623.46
00005356 00000102 559.17 242.77 410.61 538.81 702.55 414.30 872.51 421.64 804.15 506.36 719.56 619.47 852.84 624.04
00005357 00000103 561.29 242.34 410.33 541.22 704.29 415.11 873.82 422.20 806.56 507.68 721.08 620.57 854.81 625.03
00005358 00000104 561.28 242.54 410.31 541.11 704.33 415.11 873.80 422.28 806.55 507.63 721.07 620.58 854.77 625.11
00005359 00000105 561.65 242.21 410.53 543.66 705.87 414.66 874.50 422.09 808.09 508.19 722.59 621.74 855.41 626.50
00005360 00000106 561.59 240.03 410.98 546.86 705.76 414.37 875.29 422.56 808.42 506.96 721.90 622.06 855.28 627.31
00005361 00000107 561.00 238.82 409.85 541.06 703.91 415.65 875.00 421.60 808.05 506.22 722.40 620.84 855.15 624.19
00005362 00000108 561.85 238.72 408.26 536.82 705.09 413.88 875.57 420.37 809.11 504.02 723.20 618.03 855.05 621.80
00005363 00000109 561.83 238.57 408.45 537.97 705.00 413.97 875.70 420.36 809.11 504.12 722.96 618.33 855.51 622.01
00005364 00000110 562.15 236.43 409.63 544.55 704.52 411.81 875.79 419.30 808.63 501.51 721.55 618.15 855.69 622.83
00005365 00000111 564.21 239.28 411.04 555.14 707.31 407.61 875.04 418.67 805.84 501.43 718.80 621.36 853.21 629.52
00005366 00000112 564.33 239.37 410.29 558.45 707.91 407.56 874.48 419.36 806.37 502.32 718.78 622.33 853.73 631.18
00005367 00000113 565.60 238.34 409.28 556.24 708.33 407.66 875.45 418.91 807.27 501.56 719.50 620.41 855.51 628.90
00005368 00000114 565.88 238.64 408.93 555.89 708.21 407.77 875.45 418.93 807.49 501.76 719.47 620.44 855.56 628.88
00005369 00000115 566.19 237.13 408.28 549.90 709.61 409.05 877.06 419.07 809.77 501.43 722.01 618.18 855.92 625.56
00005370 00000116 566.78 236.45 407.27 546.52 709.20 409.31 876.88 418.46 809.43 501.23 722.07 617.10 854.88 623.73
00005371 00000117 566.94 235.24 407.38 546.99 710.45 408.11 877.35 418.56 809.96 500.37 721.72 614.97 855.10 622.54
00005372 00000118 567.81 234.78 407.70 543.29 710.59 408.55 879.24 417.35 811.85 500.76 725.36 615.27 856.30 621.21
00005373 00000119 567.80 234.74 407.55 542.57 710.55 408.65 879.21 417.23 811.99 500.64 725.54 615.14 856.32 620.90
00005374 00000120 568.40 233.95 409.26 545.85 712.62 405.96 880.97 415.69 813.63 499.70 726.92 614.42 857.81 620.99
00005375 00000121 569.01 234.02 409.66 546.32 713.85 403.63 881.19 413.81 815.15 498.43 727.93 613.26 859.12 620.23
00005376 00000122 568.48 232.34 410.29 543.38 715.59 401.01 882.85 412.24 818.62 495.46 728.27 609.10 860.73 616.80
00005377 00000123 569.38 230.82 408.67 541.62 716.54 400.80 883.93 406.62 825.05 491.27 737.71 609.73 868.24 612.80
00005378 00000124 569.47 230.81 408.68 541.88 716.69 400.92 883.66 406.93 824.77 491.23 737.82 609.72 867.96 612.94
00005379 00000125 568.09 229.79 406.20 536.16 719.06 400.37 884.64 402.99 830.74 488.48 744.44 608.05 871.65 608.28
CROP_BBOX: 222 0 1254 1003
