Video ID: 	I8aslbvlOjc
H: 	1080
W: 	1920
FPS: 	25.0

FRAME INDEX X0 Y0 W H [Landmarks (5 Points)]

00042118 00000000 394.73 204.92 438.98 598.18 506.58 434.23 700.66 422.68 615.84 539.64 545.36 653.12 698.22 642.14
00042119 00000001 401.91 195.27 441.72 599.68 513.17 422.50 709.90 414.51 620.05 529.23 548.95 645.36 701.37 636.63
00042120 00000002 407.66 171.19 443.03 612.34 520.87 415.34 717.99 411.96 619.56 521.74 551.86 632.27 711.45 628.81
00042121 00000003 417.38 165.87 440.78 610.54 530.59 409.86 726.68 407.69 626.85 513.83 558.92 626.74 715.42 624.37
00042122 00000004 422.66 162.52 440.52 606.92 536.75 403.78 734.11 403.25 632.34 505.09 561.58 619.81 718.53 618.46
00042123 00000005 427.46 160.04 436.77 606.19 541.37 399.18 737.16 399.67 635.86 501.54 564.46 615.80 720.78 615.03
00042124 00000006 430.48 155.55 435.49 606.15 543.01 396.57 740.05 396.30 637.42 497.70 566.29 614.85 721.29 613.38
00042125 00000007 432.60 154.37 436.08 605.82 545.01 395.61 741.35 395.37 637.89 496.89 568.57 614.49 721.63 612.96
00042126 00000008 433.53 154.57 435.27 605.58 545.60 395.58 741.50 395.57 637.68 496.65 568.44 613.95 721.58 612.60
00042127 00000009 433.20 154.68 435.69 606.96 544.95 396.34 741.66 395.80 637.91 497.49 569.07 615.22 722.93 613.38
00042128 00000010 431.56 158.48 435.52 607.32 544.03 398.02 740.78 397.26 638.11 499.49 568.44 617.22 723.21 615.21
00042129 00000011 428.14 161.40 436.81 607.30 542.44 399.33 739.06 399.11 637.39 501.84 566.57 619.26 721.12 617.89
00042130 00000012 426.56 163.61 437.49 606.93 540.64 401.40 737.63 401.24 635.80 503.28 565.79 621.00 720.84 619.80
00042131 00000013 425.92 164.82 437.80 604.85 538.53 404.12 737.18 402.90 635.27 505.49 564.74 622.41 721.81 620.52
00042132 00000014 424.79 163.69 437.61 607.90 538.44 405.57 734.33 404.80 635.02 507.58 564.45 622.72 719.02 621.26
00042133 00000015 424.47 164.48 437.29 612.07 537.02 407.86 733.29 406.55 633.77 513.45 563.25 626.76 718.66 624.92
00042134 00000016 424.24 169.42 438.27 614.23 536.19 412.28 732.43 409.91 631.59 520.14 564.14 633.55 718.83 630.80
00042135 00000017 422.72 181.40 440.86 609.46 532.44 423.36 734.86 413.27 636.58 531.18 566.65 647.08 720.45 635.97
00042136 DELETE   422.07 194.30 439.60 605.09 536.66 439.98 733.21 430.54 640.58 545.74 568.39 655.38 723.26 644.56
00042137 DELETE   418.80 193.74 439.34 620.32 539.34 452.53 731.77 443.84 639.80 560.76 568.31 663.19 725.68 655.45
00042138 00000020 416.84 203.79 441.43 612.47 534.31 454.01 723.93 445.92 636.57 560.97 567.02 668.84 716.52 659.91
00042139 00000021 413.35 204.43 439.16 621.14 523.19 447.60 715.54 441.82 624.04 562.16 556.68 671.79 707.90 664.70
00042140 00000022 409.85 207.03 439.53 617.25 515.35 444.18 710.55 438.29 616.50 560.82 550.82 673.26 700.33 666.41
00042141 00000023 406.66 209.59 441.56 609.98 510.87 442.86 707.72 437.82 613.31 559.02 545.48 670.66 695.46 664.63
00042142 00000024 405.73 208.25 440.63 608.51 508.85 441.61 705.58 435.83 610.66 557.32 542.84 667.44 695.47 660.71
00042143 00000025 408.90 205.72 439.11 610.69 511.26 436.05 706.92 430.67 610.70 553.90 545.17 665.95 693.00 659.66
00042144 00000026 411.54 202.41 437.92 616.83 516.65 428.20 711.82 426.00 613.79 547.28 547.76 662.82 691.70 659.01
00042145 00000027 414.41 201.44 438.25 617.42 520.53 422.65 718.27 420.87 618.09 542.24 549.44 660.52 694.07 656.98
00042146 00000028 418.95 196.34 438.08 615.63 525.17 419.25 723.30 416.56 621.78 534.97 554.34 655.73 697.00 651.34
00042147 00000029 423.15 189.13 440.68 615.96 531.19 418.08 730.32 413.92 627.48 527.05 561.04 650.92 701.72 645.40
00042148 00000030 425.65 185.11 441.71 613.54 535.18 417.70 735.11 411.22 634.50 524.61 565.91 648.73 705.24 641.23
00042149 00000031 429.24 179.49 441.03 611.54 537.51 416.70 739.18 407.96 637.34 521.70 568.88 645.79 711.08 636.11
00042150 00000032 430.13 175.46 443.33 609.95 541.23 412.79 744.03 405.15 641.66 515.49 571.47 639.99 714.82 631.04
00042151 00000033 431.29 174.39 444.13 608.71 541.70 410.21 746.16 402.55 642.07 512.76 571.74 637.54 716.21 628.54
00042152 00000034 431.16 173.13 443.84 609.87 541.77 409.45 746.13 401.57 641.00 511.06 571.34 637.02 715.74 628.05
00042153 00000035 431.58 173.58 444.12 611.78 542.32 408.55 747.30 400.75 641.78 510.76 571.68 637.55 717.23 628.74
00042154 00000036 431.97 174.59 444.61 613.84 543.19 411.28 748.93 404.35 643.00 513.03 572.11 640.37 719.35 632.19
00042155 00000037 437.28 168.41 435.27 624.80 549.78 408.33 741.89 409.92 641.63 514.43 570.65 632.89 711.33 636.25
00042156 00000038 439.03 169.39 434.71 624.40 550.92 408.84 743.27 410.16 642.97 515.73 572.62 634.17 713.69 637.36
00042157 00000039 440.46 169.81 434.72 623.03 551.66 408.96 745.21 409.96 644.57 517.36 574.22 634.58 716.73 637.46
00042158 00000040 440.50 171.17 435.61 621.78 552.85 410.42 747.06 411.45 647.48 519.50 576.86 636.34 719.86 639.31
00042159 00000041 442.87 171.04 433.61 621.15 555.00 412.48 747.73 413.11 650.18 522.01 580.02 637.07 723.54 639.76
00042160 00000042 443.69 173.64 433.09 620.71 556.37 414.24 747.00 414.77 651.37 524.37 582.04 638.19 725.12 640.90
00042161 00000043 444.36 175.77 432.61 620.16 556.76 416.02 747.79 415.87 652.18 525.79 583.34 639.45 727.34 641.69
00042162 00000044 445.12 177.65 432.50 618.69 557.88 417.33 748.51 417.11 653.46 527.06 584.55 640.05 729.32 642.28
00042163 00000045 445.89 179.82 432.17 616.53 559.47 418.87 749.14 418.48 655.44 529.75 587.56 641.23 732.25 643.39
00042164 00000046 446.76 182.80 430.93 612.73 559.87 420.10 751.03 419.18 657.17 532.69 588.79 642.39 735.22 644.17
00042165 00000047 447.37 183.84 430.31 607.47 558.92 422.12 753.50 420.72 658.10 536.94 587.20 642.87 737.92 644.01
00042166 00000048 447.62 185.24 429.02 604.10 558.81 423.11 755.01 421.57 658.92 538.59 586.44 642.34 739.81 643.27
00042167 00000049 447.57 187.51 428.80 602.34 559.10 425.48 756.18 423.47 659.78 541.78 586.01 643.30 740.40 643.85
00042168 00000050 446.52 189.38 428.93 603.57 559.60 428.33 755.23 425.83 660.24 545.00 585.76 644.44 740.07 644.75
00042169 00000051 447.06 190.62 427.38 604.35 559.14 431.22 754.48 427.53 660.26 546.93 586.38 647.53 739.77 646.97
00042170 00000052 448.08 191.00 426.76 608.08 558.68 433.92 755.40 428.78 660.84 549.26 586.88 653.43 741.74 651.67
00042171 00000053 448.09 190.41 428.37 608.22 560.06 437.20 757.66 430.35 663.94 553.29 589.67 654.47 746.99 651.23
00042172 00000054 448.86 189.74 429.79 612.31 563.06 439.83 760.29 430.89 668.72 555.10 593.09 655.37 752.47 650.16
00042173 00000055 454.31 202.39 427.56 607.42 571.25 445.73 766.18 437.40 683.56 555.24 607.74 662.78 754.01 655.00
00042174 DELETE   464.12 204.00 424.41 611.72 598.70 458.06 783.58 441.79 720.81 556.01 641.37 670.92 782.89 656.67
00042175 DELETE   479.90 203.85 422.24 616.47 629.31 467.16 810.29 444.72 761.10 558.90 683.00 681.28 821.18 660.80
00042176 DELETE   503.38 213.36 406.24 612.14 661.57 477.69 834.40 452.21 800.41 567.85 706.93 689.07 846.93 667.63
00042177 00000059 504.21 221.14 409.06 611.84 665.07 484.81 842.66 455.55 810.61 586.50 712.86 703.27 854.24 678.64
00042178 00000060 500.19 231.94 412.31 618.43 657.47 498.57 838.99 468.44 798.33 601.57 701.69 716.75 847.38 690.97
00042179 00000061 492.57 251.84 420.98 617.86 649.25 511.81 830.48 481.79 791.90 620.98 688.64 730.23 836.23 703.80
00042180 00000062 488.54 265.95 422.93 618.29 643.05 523.35 825.96 498.09 781.31 637.25 682.68 742.70 830.70 720.14
00042181 00000063 489.92 277.06 420.58 612.78 644.78 533.46 825.19 510.02 778.36 647.84 682.27 749.36 828.19 728.65
00042182 00000064 490.85 278.41 419.88 607.87 645.41 533.70 824.66 510.19 777.66 646.45 684.05 748.10 827.93 727.27
00042183 00000065 491.22 272.82 421.24 608.55 643.51 529.30 825.47 503.75 778.60 641.03 686.72 746.18 830.53 723.19
00042184 00000066 489.35 267.62 425.36 609.41 639.82 525.05 824.96 499.15 774.98 637.33 685.25 743.60 829.10 719.90
00042185 00000067 487.27 265.26 427.80 609.14 637.25 520.78 823.39 495.97 771.96 632.00 683.19 740.32 827.66 717.24
00042186 00000068 485.57 263.41 428.31 610.02 637.61 517.05 822.08 492.11 772.03 628.67 682.55 737.50 825.57 714.43
00042187 00000069 485.07 263.54 427.37 607.89 636.66 513.33 820.67 487.15 771.20 626.03 682.00 735.88 823.58 711.92
00042188 00000070 483.66 262.40 427.00 605.97 634.61 512.04 819.05 484.05 768.65 624.52 681.03 732.49 823.11 706.93
00042189 00000071 482.25 260.20 426.41 607.01 631.22 509.42 817.00 480.80 765.78 621.72 676.92 730.73 820.11 704.70
00042190 00000072 479.52 258.74 427.94 611.74 628.04 507.63 813.74 479.25 762.11 619.24 674.75 731.17 816.62 705.32
00042191 00000073 477.15 258.46 427.49 616.39 626.02 506.48 811.21 478.64 758.43 619.98 671.17 732.47 811.83 707.30
00042192 00000074 475.75 258.44 425.51 618.95 622.68 507.19 808.02 478.54 754.85 621.82 668.92 733.73 808.15 707.97
00042193 00000075 474.47 259.23 424.85 616.83 619.75 510.48 805.34 479.48 751.74 623.98 668.75 736.26 805.62 708.58
00042194 00000076 474.06 261.07 423.45 613.33 618.37 513.01 803.43 481.31 749.80 626.23 668.99 738.17 803.53 710.03
00042195 00000077 474.51 261.85 422.73 612.14 618.37 514.19 802.55 483.25 748.74 626.99 669.34 739.56 802.16 712.03
00042196 00000078 474.22 261.40 423.26 612.78 618.38 514.18 802.51 482.94 748.83 627.10 669.24 739.34 802.48 711.58
00042197 00000079 474.25 262.30 423.78 612.14 619.00 513.72 803.42 482.87 749.62 627.52 668.60 738.60 802.74 711.30
00042198 00000080 473.53 261.47 424.68 613.21 618.94 513.30 803.63 482.13 749.84 626.47 667.80 737.68 803.42 710.10
00042199 00000081 473.07 260.79 425.85 613.92 618.99 512.37 804.16 481.48 750.10 626.24 666.92 736.45 804.02 709.07
00042200 00000082 473.62 261.36 424.62 613.31 618.43 511.91 803.51 481.12 749.47 625.65 665.92 735.71 804.02 708.46
00042201 00000083 472.61 261.79 426.01 612.42 616.80 511.24 803.55 480.54 748.45 624.95 664.53 735.00 804.21 707.83
00042202 00000084 472.06 261.59 426.04 612.47 616.86 511.38 803.46 480.66 748.52 625.23 664.32 734.90 803.96 707.74
00042203 00000085 472.51 262.65 425.72 611.65 617.30 511.80 803.16 481.41 748.54 625.04 664.03 734.50 803.74 707.62
00042204 00000086 472.79 262.85 425.61 611.17 617.84 511.03 803.67 481.16 748.95 624.30 664.59 733.93 804.13 707.40
00042205 00000087 472.07 262.62 426.60 610.75 618.65 511.02 803.49 480.80 749.23 624.17 664.35 732.39 803.97 705.55
00042206 00000088 472.09 261.94 426.67 610.36 619.82 510.37 803.80 480.22 749.52 623.91 664.17 730.66 804.02 704.01
00042207 00000089 472.15 261.42 426.99 609.75 620.21 510.51 804.00 479.94 749.77 623.73 664.25 729.91 804.13 702.89
00042208 00000090 472.47 260.62 426.51 609.49 620.65 510.51 804.70 480.19 750.23 623.50 664.06 728.88 805.01 702.02
00042209 00000091 472.25 260.09 427.38 609.33 621.03 509.63 805.68 479.16 751.01 623.89 664.30 727.99 806.20 700.95
00042210 00000092 471.68 258.98 428.56 608.22 619.94 509.01 806.90 479.15 751.24 623.09 662.91 726.43 807.84 699.92
00042211 00000093 470.30 257.29 429.95 610.08 618.99 508.75 806.72 478.63 750.96 622.77 661.70 725.09 808.54 698.33
00042212 00000094 470.36 258.23 429.64 610.15 619.14 508.45 806.32 478.66 750.41 623.35 660.01 724.61 807.88 698.21
00042213 00000095 471.17 258.06 428.84 610.35 618.73 508.40 806.30 479.21 749.94 622.47 659.15 724.68 807.84 698.83
00042214 00000096 471.23 259.14 428.37 609.82 618.87 508.38 805.95 478.90 749.95 622.67 660.00 725.82 806.90 699.70
00042215 00000097 471.37 259.52 427.24 610.02 617.85 508.15 804.53 478.63 749.01 621.88 660.50 726.65 805.66 700.45
00042216 00000098 471.23 261.15 426.20 609.73 619.03 508.95 802.95 478.96 748.92 621.28 662.33 727.35 804.70 700.68
00042217 00000099 471.71 259.36 425.55 609.75 618.09 509.25 802.80 479.29 747.72 622.08 661.76 726.95 804.86 700.26
00042218 00000100 471.40 259.19 424.90 607.78 616.27 509.24 802.24 479.27 746.60 622.22 660.00 726.04 804.21 699.46
00042219 00000101 469.77 259.85 426.29 607.62 616.51 508.33 801.78 478.70 746.72 621.62 658.56 724.60 803.73 698.38
00042220 00000102 469.14 260.87 427.33 609.02 617.04 506.67 801.67 478.50 746.96 620.44 656.99 722.89 804.31 697.92
00042221 00000103 469.82 257.93 428.02 610.72 616.92 505.75 803.22 476.93 747.47 619.76 658.01 723.09 804.89 697.43
00042222 00000104 468.80 248.30 425.11 615.50 617.79 507.00 803.01 479.42 746.03 626.58 658.15 722.01 808.77 699.51
00042223 00000105 469.15 244.13 425.94 618.00 616.75 504.25 803.52 476.66 746.37 624.30 657.76 720.28 810.43 697.65
00042224 00000106 467.27 242.88 426.65 620.24 614.93 503.68 799.85 474.87 744.52 622.91 657.00 718.44 809.75 694.80
00042225 00000107 464.76 240.74 427.40 624.85 610.12 505.24 797.12 476.63 739.74 623.13 651.43 719.69 805.77 696.45
00042226 00000108 460.64 245.38 424.40 617.46 603.35 517.01 786.40 486.23 730.28 623.01 646.09 719.66 798.35 695.45
00042227 00000109 455.97 245.50 423.78 619.21 592.95 515.40 777.86 483.28 720.84 623.41 640.18 720.40 795.24 694.94
00042228 00000110 446.22 248.30 425.36 618.99 580.68 512.97 765.76 482.70 708.50 624.09 634.46 720.53 789.21 696.67
00042229 DELETE   440.64 249.56 422.20 619.97 568.91 519.72 756.33 485.97 698.00 627.72 627.17 724.51 783.88 697.64
00042230 00000112 420.81 256.91 432.98 610.74 550.18 531.37 739.33 485.86 684.16 632.85 612.99 740.21 766.68 699.54
00042231 00000113 407.51 257.81 438.15 619.39 544.33 534.93 732.37 489.22 675.72 639.23 605.84 744.40 757.73 706.05
00042232 00000114 398.73 260.02 441.17 617.10 536.61 538.12 724.11 491.49 667.41 644.47 599.44 744.39 750.87 705.48
00042233 00000115 394.67 260.47 440.55 617.93 531.23 539.52 717.62 491.74 661.30 647.13 596.63 743.67 749.07 703.94
00042234 00000116 391.38 260.52 441.60 617.87 527.65 540.25 713.73 491.39 658.00 645.79 595.38 742.96 748.17 702.33
00042235 00000117 390.53 259.74 441.81 610.18 527.85 540.97 713.97 491.03 658.42 646.42 597.10 741.67 746.84 700.48
00042236 00000118 391.88 259.02 443.30 610.58 531.67 541.05 717.56 490.75 662.45 647.69 600.86 742.94 747.91 701.55
00042237 00000119 400.41 259.15 440.55 613.40 537.12 542.08 725.72 489.62 670.68 648.94 608.51 747.04 758.55 702.86
00042238 00000120 408.75 257.14 438.52 619.54 547.83 536.05 735.29 488.68 679.96 643.00 610.42 746.68 758.92 706.70
00042239 00000121 417.82 261.52 434.07 617.66 552.43 536.32 740.53 488.33 685.02 643.09 614.04 745.24 769.38 704.68
00042240 00000122 409.10 255.13 438.63 627.92 546.87 540.83 733.86 489.80 680.18 641.67 609.39 747.90 762.49 704.79
00042241 DELETE   397.13 259.60 443.06 620.02 533.90 538.46 724.36 490.05 667.14 644.92 598.88 744.67 755.66 704.56
00042242 00000124 388.00 258.58 439.91 611.95 521.01 539.56 709.54 489.91 650.68 645.73 594.42 744.73 743.97 704.11
00042243 00000125 372.45 262.18 443.54 613.40 504.39 543.97 696.18 491.29 638.56 655.94 591.82 753.63 739.79 711.05
00042244 00000126 364.90 270.04 444.82 595.23 496.77 550.23 692.29 498.67 632.62 664.07 583.92 752.59 731.61 711.30
00042245 00000127 363.94 268.66 444.91 607.07 496.27 552.12 690.62 501.02 632.00 665.38 579.83 752.90 731.99 711.69
00042246 00000128 373.85 267.41 440.01 608.72 507.94 548.71 698.94 493.71 644.87 659.63 595.15 753.35 745.70 708.60
00042247 DELETE   387.87 263.88 439.32 629.29 516.56 546.31 698.88 494.71 647.50 654.20 596.48 757.72 744.92 713.26
00042248 00000130 393.26 269.90 440.00 625.03 526.84 552.35 711.17 494.49 659.05 654.42 600.82 761.91 753.28 712.01
00042249 00000131 396.28 271.45 441.56 622.53 529.97 552.42 717.21 494.69 664.44 656.26 603.04 760.50 758.53 710.55
00042250 00000132 395.45 269.10 443.29 620.78 526.63 552.32 711.54 494.91 657.90 657.10 601.08 755.88 756.33 706.09
00042251 00000133 387.70 272.57 449.38 623.98 519.97 550.41 709.79 497.93 653.91 660.02 591.46 756.91 751.52 711.55
00042252 00000134 392.49 272.99 445.27 622.74 526.13 549.03 711.59 497.82 656.26 656.29 595.41 756.75 750.85 712.35
00042253 00000135 399.17 264.76 446.44 626.63 535.20 544.24 722.49 491.04 666.28 648.85 603.17 752.18 758.14 705.65
00042254 00000136 407.90 257.07 437.30 626.40 548.47 537.51 734.84 488.26 682.51 637.04 612.33 747.70 763.93 706.24
00042255 DELETE   412.05 248.67 434.11 621.23 551.07 535.40 734.52 483.94 685.32 627.40 614.40 740.22 763.60 697.25
00042256 DELETE   412.38 235.82 436.26 621.51 549.42 527.35 734.38 474.82 683.81 615.64 612.75 730.93 762.06 687.00
00042257 DELETE   415.17 226.82 435.92 621.21 549.29 511.09 738.38 463.07 684.13 603.36 612.93 720.50 763.47 680.05
00042258 00000140 415.35 218.40 434.69 624.00 551.36 497.38 739.12 454.98 684.21 594.90 611.85 711.34 758.80 675.54
00042259 00000141 417.11 214.61 431.76 623.57 554.96 487.45 740.35 449.89 686.59 589.76 614.69 705.52 758.19 673.36
00042260 00000142 415.68 210.28 432.09 621.66 555.38 479.83 742.65 445.79 687.15 583.43 613.42 699.95 756.93 670.39
00042261 00000143 414.77 203.98 433.22 622.76 552.36 474.29 739.76 441.00 683.45 574.08 609.55 692.19 755.31 663.18
00042262 00000144 409.41 202.67 435.66 621.27 549.44 467.99 736.02 436.95 677.79 567.19 605.09 685.37 750.01 657.52
00042263 00000145 406.03 204.67 435.57 619.85 544.70 468.20 729.62 437.30 670.81 566.15 599.84 683.65 745.32 655.90
00042264 00000146 404.23 205.76 437.21 618.88 538.51 466.75 726.03 435.85 664.44 566.80 595.41 682.96 742.42 655.13
00042265 00000147 403.93 207.10 435.23 614.47 534.35 467.61 722.91 435.18 660.75 567.11 592.66 682.31 742.14 653.29
00042266 00000148 402.97 204.38 435.51 612.27 530.22 467.23 720.63 433.93 656.79 565.29 588.66 678.96 741.50 649.27
00042267 00000149 402.88 199.89 437.88 614.46 528.73 464.80 719.77 431.55 654.87 563.04 588.06 676.40 741.71 646.53
00042268 00000150 403.40 199.96 439.38 612.31 530.60 462.01 721.15 429.97 656.25 560.43 589.53 673.80 741.49 644.84
00042269 00000151 405.64 197.22 437.63 613.05 533.32 461.06 723.39 428.49 659.55 558.76 592.73 673.51 742.83 644.03
00042270 00000152 404.85 195.68 438.07 621.19 538.33 459.64 724.97 427.46 664.01 556.44 594.86 674.83 742.23 645.71
00042271 00000153 406.07 194.50 436.72 628.32 541.91 458.99 726.63 427.87 667.26 557.36 599.11 679.18 740.66 651.00
00042272 00000154 407.54 192.04 435.86 629.86 545.22 459.94 729.23 428.97 671.26 557.82 603.16 680.20 742.62 652.10
00042273 00000155 407.55 192.82 439.08 626.86 544.15 460.39 732.30 427.49 673.06 558.74 604.29 680.42 747.07 650.46
00042274 00000156 408.64 194.82 438.85 621.43 543.39 461.77 731.90 428.09 672.76 558.59 604.92 679.35 748.49 648.68
00042275 00000157 407.82 195.27 439.21 620.55 543.09 461.65 731.30 427.68 672.41 558.63 604.69 679.34 748.04 648.45
00042276 00000158 406.95 193.94 437.61 622.31 543.07 466.24 729.57 432.48 671.02 558.00 604.76 681.05 745.20 650.74
00042277 DELETE   405.43 195.82 437.92 620.90 540.72 467.36 725.81 434.56 666.63 557.84 601.33 680.61 741.86 651.37
00042278 00000160 403.89 196.98 439.38 617.68 535.15 464.82 723.59 432.24 659.20 558.13 596.22 678.43 741.34 648.79
00042279 00000161 402.81 195.95 439.67 618.99 529.70 461.64 719.59 429.63 653.65 558.34 590.18 675.65 737.94 646.54
00042280 00000162 400.45 198.06 440.81 619.25 526.93 458.39 717.43 426.09 651.45 557.81 587.50 675.25 736.19 646.01
00042281 00000163 399.73 198.43 441.94 619.24 525.75 456.19 716.69 424.78 649.96 557.14 587.29 676.15 733.69 647.59
00042282 00000164 400.03 199.00 440.99 619.39 526.24 454.68 717.39 424.81 650.53 555.98 586.46 675.98 732.76 648.72
00042283 00000165 400.33 199.11 440.06 619.50 526.08 454.56 717.22 425.25 650.09 556.07 587.20 677.16 731.69 650.30
00042284 00000166 400.21 200.37 439.19 619.11 526.34 453.99 717.68 425.33 650.29 556.63 588.01 678.24 731.55 651.93
00042285 00000167 399.95 200.94 440.13 618.32 526.23 454.25 718.23 425.98 650.13 555.83 586.61 677.14 732.18 651.18
00042286 00000168 400.71 199.39 441.14 618.00 527.00 455.66 718.34 426.52 650.85 556.33 587.54 676.58 733.45 649.85
00042287 00000169 401.91 199.16 441.20 616.14 527.21 456.15 719.87 426.55 651.83 556.48 588.78 676.69 735.57 649.46
00042288 00000170 402.30 198.97 441.96 617.70 528.99 457.57 721.47 428.74 652.83 556.62 590.16 677.33 736.72 650.72
