Video ID: 	ZqLk1dXRmAk
H: 	1080
W: 	1920
FPS: 	23.976023976023978

FRAME INDEX X0 Y0 W H [Landmarks (5 Points)]

00020412 00000000 296.11 200.60 398.79 537.93 376.94 432.79 531.29 403.19 452.90 523.76 441.77 620.22 564.04 595.28
00020413 00000001 306.54 204.76 401.25 540.68 387.01 436.67 542.38 407.48 462.49 529.39 451.91 627.32 570.04 603.19
00020414 00000002 317.78 205.92 395.07 549.14 391.77 430.65 543.63 410.77 457.32 527.43 452.55 627.14 570.38 610.27
00020415 00000003 319.11 208.37 397.54 558.68 396.81 432.99 548.20 412.84 464.96 528.30 455.56 635.16 572.95 618.52
00020416 00000004 320.68 208.26 397.77 559.15 400.07 434.03 553.29 415.47 470.89 531.90 458.50 635.15 577.54 619.74
00020417 00000005 322.17 209.31 397.55 556.44 401.60 435.91 557.50 419.26 473.50 535.76 458.78 635.03 580.51 621.00
00020418 00000006 322.73 208.72 396.28 558.04 400.22 440.39 557.01 424.02 471.77 541.26 457.83 637.66 579.78 623.94
00020419 00000007 318.64 211.89 397.32 558.53 396.61 443.40 554.10 425.16 469.16 545.91 457.23 640.83 579.19 625.63
00020420 00000008 313.72 212.18 398.16 567.39 393.30 452.11 550.03 431.92 466.46 553.16 456.71 650.28 576.11 633.88
00020421 00000009 307.62 224.89 403.39 553.57 384.78 466.17 541.19 435.41 462.67 568.29 459.07 667.38 576.90 640.17
00020422 00000010 301.05 226.93 404.96 556.60 379.59 469.39 534.37 438.81 457.90 571.71 456.04 671.20 573.91 644.25
00020423 00000011 298.27 232.57 402.57 549.27 373.64 467.77 525.81 436.48 449.59 566.98 450.36 668.18 569.09 640.54
00020424 DELETE   282.88 233.33 408.32 548.85 363.54 462.83 507.48 426.91 437.57 555.69 444.85 658.86 558.04 627.99
00020425 DELETE   263.71 220.74 416.63 557.94 356.94 445.55 505.73 405.26 435.26 530.22 436.55 643.16 555.77 609.18
00020426 DELETE   254.19 202.85 425.42 540.52 354.45 444.74 507.72 386.93 442.97 510.11 443.21 629.00 564.54 580.61
00020427 00000015 248.17 204.52 428.79 530.25 349.06 446.31 507.34 382.28 444.08 511.59 442.33 624.64 569.95 570.80
00020428 00000016 240.89 206.67 429.82 528.67 339.43 451.32 496.68 387.83 432.30 514.21 430.01 623.25 559.21 569.74
00020429 00000017 235.92 208.32 427.20 522.15 329.67 451.42 486.94 391.45 418.02 515.63 418.78 623.20 545.86 572.79
00020430 00000018 233.00 206.22 426.66 524.26 326.25 449.25 485.33 392.17 413.75 515.59 414.20 622.90 540.58 575.11
00020431 00000019 233.48 206.27 427.25 528.19 326.94 450.06 484.54 393.64 414.13 516.43 414.84 623.76 541.85 576.29
00020432 00000020 232.94 207.61 429.86 532.01 326.42 451.44 483.56 395.21 413.90 518.56 413.88 625.33 542.26 577.84
00020433 00000021 232.74 207.44 430.75 539.41 327.13 451.34 484.12 396.90 414.30 522.46 413.61 628.63 542.84 582.88
00020434 00000022 233.60 208.48 430.61 543.52 330.42 449.87 485.38 398.23 416.24 523.62 416.72 630.99 542.98 587.73
00020435 00000023 233.76 209.31 433.36 544.32 330.17 449.69 485.70 398.34 415.45 527.02 417.74 633.41 543.84 590.36
00020436 00000024 235.32 212.24 435.17 545.96 331.17 450.60 486.76 398.02 416.77 528.92 419.90 636.47 547.37 592.39
00020437 00000025 238.41 212.74 433.31 544.27 333.30 451.23 487.20 398.79 417.79 530.06 421.72 636.07 548.19 592.09
00020438 00000026 239.37 217.73 432.65 543.83 332.56 453.18 486.81 400.51 417.06 534.78 420.67 638.61 548.83 594.41
00020439 00000027 239.33 220.98 432.06 540.84 331.64 455.21 486.93 402.21 417.03 538.77 419.99 640.59 549.15 596.24
00020440 00000028 239.37 221.71 432.13 538.47 331.55 457.54 487.11 403.72 417.67 540.57 420.75 641.25 549.82 596.24
00020441 00000029 238.30 221.07 433.03 536.63 331.18 456.70 488.17 402.97 417.77 539.67 419.73 640.06 549.07 595.16
00020442 00000030 235.96 217.63 435.43 538.01 330.61 454.35 488.42 400.80 418.63 536.54 419.44 637.13 549.58 592.30
00020443 00000031 237.16 215.71 434.40 539.87 332.42 453.74 490.50 399.08 421.85 534.66 421.80 636.78 552.56 590.94
00020444 00000032 238.55 212.87 433.20 545.18 334.42 453.48 491.06 399.21 424.15 534.87 424.00 636.95 555.12 591.40
00020445 00000033 242.19 217.54 431.46 538.76 336.90 455.62 493.23 402.94 425.79 538.85 426.20 638.32 555.36 593.99
00020446 00000034 248.14 220.76 425.88 530.07 342.37 458.97 493.59 409.89 426.11 536.39 426.26 635.60 549.27 594.13
00020447 00000035 248.04 217.15 427.59 531.26 344.71 456.72 494.13 410.56 425.71 531.62 424.50 632.09 544.78 593.34
00020448 00000036 248.58 217.49 427.03 531.16 346.11 455.27 494.18 411.62 425.09 530.83 423.55 631.54 541.82 595.15
00020449 00000037 249.05 217.18 426.84 531.50 346.31 455.00 494.86 411.92 425.29 531.56 423.59 631.58 541.98 595.60
00020450 00000038 250.78 217.62 426.09 532.20 346.98 456.27 495.40 413.80 425.99 534.77 424.77 633.04 542.97 597.33
00020451 00000039 252.20 221.06 424.13 531.74 347.55 459.05 497.15 416.53 427.61 539.60 426.79 637.36 544.52 601.76
00020452 00000040 251.97 228.65 423.47 528.63 349.59 463.19 499.93 421.14 431.08 549.20 430.84 642.53 547.32 607.21
00020453 00000041 253.22 232.64 421.70 525.54 350.54 466.30 499.75 424.18 431.29 552.65 432.30 644.51 547.50 609.13
00020454 00000042 251.59 231.92 423.28 524.03 347.71 465.10 497.79 423.36 427.77 551.20 428.90 642.77 544.96 607.73
00020455 00000043 250.98 228.92 424.56 524.98 345.21 462.92 497.26 420.77 424.97 546.78 425.87 640.92 543.76 605.58
00020456 00000044 250.49 228.19 425.25 525.29 343.29 462.01 496.90 419.89 422.96 545.74 423.58 640.36 543.17 605.03
00020457 00000045 250.41 230.03 423.56 525.55 342.88 463.64 496.11 422.02 422.68 549.38 422.39 642.03 542.17 607.25
00020458 00000046 253.48 234.57 419.18 532.21 347.91 467.98 497.43 428.89 426.71 556.82 428.12 648.59 544.55 615.86
00020459 00000047 256.14 237.56 419.80 541.37 348.13 471.49 499.29 432.82 426.80 563.31 429.85 657.99 546.56 625.57
00020460 00000048 256.05 237.32 421.63 547.41 345.55 473.48 499.39 433.27 425.26 565.73 426.84 659.99 549.65 626.02
00020461 00000049 254.96 237.04 422.92 540.80 344.91 473.01 497.04 431.17 424.03 562.15 425.00 653.87 549.17 618.35
00020462 00000050 255.03 237.30 420.75 533.03 345.11 471.77 494.70 430.43 422.69 558.77 423.62 646.95 547.75 611.67
00020463 00000051 254.67 236.81 422.91 533.59 345.04 470.80 494.76 430.07 421.99 557.23 421.92 645.28 546.96 610.52
00020464 DELETE   255.77 237.00 424.13 534.93 345.71 472.05 495.88 431.12 423.17 559.63 422.86 646.40 548.31 611.43
00020465 00000053 256.92 237.70 427.46 535.83 347.74 474.60 498.36 432.95 426.01 563.03 425.59 648.35 551.55 612.52
00020466 DELETE   260.79 236.86 426.36 537.37 347.78 473.95 499.45 433.64 425.95 566.89 428.80 651.29 553.75 616.46
00020467 00000055 264.07 239.95 422.68 535.53 348.76 474.05 501.04 434.88 427.32 570.30 430.92 653.66 554.91 619.83
00020468 00000056 264.13 242.20 420.69 532.14 350.07 474.16 503.24 433.99 430.43 570.42 434.06 654.93 557.55 620.15
00020469 00000057 261.50 241.73 424.02 533.08 350.23 469.18 503.66 429.23 431.23 565.42 434.29 652.88 557.84 618.29
00020470 00000058 262.71 237.97 422.36 534.65 350.88 464.12 504.35 424.98 430.96 558.55 433.11 650.34 554.81 616.75
00020471 00000059 264.08 235.10 421.25 541.05 351.96 460.25 504.35 422.19 431.41 553.82 432.79 650.16 552.70 617.75
00020472 00000060 269.05 234.81 416.86 542.52 353.11 459.58 496.06 423.37 427.86 556.66 436.70 654.68 547.89 623.59
00020473 00000061 271.00 233.10 417.22 547.48 354.68 464.88 498.06 427.90 429.84 560.89 438.19 658.60 552.29 626.61
00020474 00000062 269.39 239.41 420.46 542.22 355.33 469.81 500.01 432.55 431.47 565.40 438.94 660.41 556.33 628.10
00020475 00000063 267.76 239.42 424.34 538.09 354.56 472.08 500.32 434.86 431.85 568.13 436.83 655.73 560.45 623.09
00020476 00000064 267.77 239.99 423.32 532.43 354.01 470.69 501.58 432.84 432.79 566.47 435.04 652.55 560.81 619.48
00020477 00000065 268.74 237.27 422.75 533.40 353.43 467.61 501.73 429.26 432.20 562.77 433.92 650.29 560.02 616.81
00020478 00000066 269.56 232.87 421.92 534.35 354.05 465.22 501.65 427.52 432.63 559.15 434.14 647.46 558.92 614.47
00020479 00000067 269.83 233.17 422.43 533.49 355.78 465.33 503.26 427.61 435.00 558.85 435.61 646.59 560.30 613.63
00020480 00000068 270.65 235.42 423.28 531.24 359.01 468.27 505.68 429.27 439.20 561.05 441.44 647.74 564.88 613.81
00020481 00000069 274.43 238.93 421.51 536.96 361.99 470.33 506.85 432.34 439.48 563.88 445.78 655.77 564.67 622.83
00020482 00000070 274.17 239.63 420.28 541.69 362.79 472.35 505.57 433.81 440.12 566.40 448.36 659.28 565.99 625.70
00020483 00000071 272.56 240.37 421.42 539.51 361.88 471.70 505.30 432.31 439.85 565.33 447.97 658.10 566.30 623.89
00020484 00000072 272.11 238.94 420.59 535.73 360.87 470.98 504.58 430.80 438.70 563.05 446.06 654.72 564.97 619.92
00020485 00000073 270.34 236.74 420.63 532.23 358.50 468.74 504.34 427.42 437.84 560.75 443.43 651.68 563.40 615.97
00020486 00000074 266.83 237.03 421.40 530.22 358.30 468.00 511.57 427.21 441.07 560.25 441.08 649.50 561.54 614.12
00020487 00000075 266.93 238.83 420.41 528.25 358.23 469.34 512.21 428.15 441.46 561.49 441.10 650.90 561.70 615.27
00020488 00000076 268.36 240.36 420.69 532.02 359.00 475.51 502.71 435.26 437.43 565.46 443.79 656.25 561.47 621.73
00020489 00000077 268.06 239.81 422.51 540.44 360.54 478.16 500.91 440.17 436.86 567.77 445.40 658.14 561.85 625.36
00020490 00000078 267.01 240.40 422.75 539.62 359.82 479.59 500.60 441.19 436.78 569.25 445.94 659.66 561.58 626.52
00020491 00000079 267.06 241.11 422.19 538.86 359.14 477.98 499.26 439.86 434.97 568.07 445.03 658.76 560.31 625.77
00020492 00000080 265.53 239.74 423.35 538.52 357.72 476.92 498.45 438.27 433.64 567.30 443.11 657.30 559.06 623.79
00020493 00000081 265.07 240.30 423.64 537.75 357.34 475.65 497.99 437.24 433.04 566.71 442.81 656.70 558.55 623.43
00020494 00000082 265.95 241.27 423.13 536.82 358.42 475.94 499.23 437.69 434.22 566.80 443.40 657.18 559.01 624.15
00020495 00000083 266.77 240.82 423.49 538.89 358.99 476.39 500.27 438.52 435.53 567.59 444.77 658.64 560.33 625.86
00020496 00000084 266.96 239.83 423.38 540.92 360.27 478.20 500.31 440.92 436.59 569.12 446.47 659.50 561.02 627.18
00020497 00000085 267.03 239.29 424.21 541.82 360.20 479.45 500.41 442.20 436.60 569.82 446.59 660.32 561.33 628.00
00020498 00000086 267.61 239.63 423.48 542.72 360.25 479.12 499.26 442.09 435.74 570.04 446.73 659.99 560.81 627.90
00020499 00000087 267.51 241.29 422.51 542.77 359.53 479.43 497.12 441.69 434.23 570.91 447.02 660.29 560.87 627.54
00020500 00000088 266.97 240.86 423.19 545.05 358.64 480.28 495.88 441.03 433.20 571.33 447.14 660.28 562.40 626.13
00020501 00000089 266.83 242.86 423.67 544.63 358.70 481.83 495.71 441.22 433.52 572.96 447.86 659.66 565.12 624.25
00020502 00000090 266.94 242.98 424.15 543.76 358.41 483.76 496.14 442.53 433.77 574.59 448.31 659.92 566.56 623.92
00020503 00000091 267.37 245.05 424.35 538.23 357.80 483.97 496.69 443.06 433.30 574.92 447.45 660.03 565.28 624.37
00020504 00000092 267.95 244.85 425.14 537.79 357.63 483.05 497.35 443.51 432.81 574.46 446.19 661.14 563.40 626.63
00020505 00000093 268.38 242.63 424.30 536.45 356.90 482.04 497.85 443.28 432.62 575.13 443.72 659.62 562.53 625.73
00020506 00000094 268.17 243.51 423.89 532.90 356.97 481.50 498.02 442.88 432.87 574.86 443.50 658.93 561.80 625.19
00020507 00000095 268.59 242.37 423.51 534.77 356.60 481.65 498.29 443.57 432.55 575.13 442.68 659.92 561.14 626.68
00020508 00000096 269.17 242.31 421.70 538.47 356.56 480.49 497.48 445.01 431.48 574.99 440.40 661.24 558.33 630.14
00020509 00000097 270.30 245.44 417.45 537.64 355.71 479.77 496.36 447.57 429.35 575.63 438.08 663.70 554.08 635.29
00020510 00000098 267.85 248.98 416.74 535.22 354.21 481.36 494.70 450.16 427.89 577.69 437.48 665.17 551.32 637.58
00020511 00000099 262.78 248.04 419.64 535.38 351.86 481.87 493.91 451.26 426.77 579.17 435.54 666.16 549.12 639.12
00020512 00000100 260.11 249.31 422.14 531.57 350.36 483.86 495.06 450.96 427.08 578.64 433.68 664.98 550.44 636.09
00020513 00000101 260.03 245.86 421.04 534.44 349.32 483.96 502.47 447.04 428.20 578.49 430.71 662.11 551.33 630.31
00020514 00000102 259.47 243.67 421.13 535.23 349.65 481.67 502.97 443.96 429.40 576.47 432.02 660.90 552.79 628.42
00020515 00000103 259.99 242.26 423.97 538.42 350.59 480.26 495.04 444.32 428.42 575.28 435.19 661.53 553.76 630.12
00020516 00000104 261.57 242.43 424.04 543.52 352.32 478.59 494.13 444.63 428.64 574.99 436.37 662.70 552.66 633.08
00020517 00000105 263.86 243.28 425.49 542.90 359.03 479.03 500.79 445.29 435.66 573.17 443.52 660.71 559.09 631.30
00020518 DELETE   268.45 241.73 428.06 538.09 371.32 477.14 523.56 441.17 457.33 568.23 455.39 660.05 573.52 628.92
00020519 DELETE   281.83 235.67 424.40 535.66 382.35 475.13 539.80 431.71 476.75 561.68 471.35 658.02 592.67 619.88
00020520 DELETE   291.90 227.97 421.84 534.72 394.24 469.81 557.97 416.37 501.99 553.43 485.02 656.69 611.91 609.61
00020521 00000109 307.74 215.67 414.35 553.44 418.01 451.26 585.75 409.94 527.48 547.41 497.83 639.45 637.64 604.57
00020522 00000110 319.83 209.47 407.27 557.01 436.96 450.13 604.11 407.81 550.75 540.65 515.34 640.05 650.76 604.31
00020523 00000111 329.73 206.29 398.82 557.56 447.92 451.48 615.59 406.57 564.91 541.38 526.80 642.99 659.92 605.06
00020524 00000112 347.87 211.87 393.44 556.35 459.21 444.56 622.44 397.26 574.09 531.99 535.99 644.99 663.54 603.84
00020525 00000113 353.36 214.69 392.91 551.25 463.60 443.24 628.89 397.50 579.94 533.50 536.89 645.40 667.33 605.10
00020526 00000114 357.57 213.63 391.39 549.33 466.52 443.19 632.71 398.98 583.76 536.07 540.55 646.22 669.70 607.03
00020527 00000115 360.11 213.93 389.98 547.83 468.72 443.47 637.09 400.18 587.89 537.70 543.15 647.07 672.33 608.51
00020528 00000116 364.71 210.78 388.61 549.89 472.52 444.22 641.23 400.26 593.04 539.98 544.64 646.40 676.21 607.66
00020529 00000117 367.10 211.68 387.81 547.15 476.27 445.87 644.88 400.11 599.47 541.25 549.20 646.41 681.74 606.50
00020530 00000118 373.10 210.63 385.46 544.92 482.39 447.76 651.21 400.95 607.19 536.34 553.74 645.32 688.04 604.54
00020531 00000119 375.84 212.35 384.90 539.20 487.22 445.49 656.82 398.40 615.83 531.19 557.14 642.22 691.51 601.66
00020532 00000120 378.96 211.26 382.85 532.97 490.73 441.48 661.59 396.14 619.85 522.53 560.36 639.46 692.02 600.52
00020533 00000121 377.56 206.49 386.05 531.54 496.34 434.73 664.27 391.46 618.48 523.17 567.20 631.16 693.72 594.01
00020534 00000122 378.58 201.40 385.90 533.66 498.25 430.01 665.91 389.20 618.75 517.87 567.07 627.70 693.64 592.66
00020535 00000123 379.57 200.60 384.96 534.68 498.79 429.05 667.08 389.78 618.13 518.94 565.26 627.00 692.67 593.25
00020536 00000124 380.61 201.49 384.56 535.08 499.25 431.11 666.91 392.92 617.50 522.34 563.94 627.37 691.73 594.57
00020537 00000125 383.60 201.35 385.69 537.18 503.09 427.44 666.98 396.49 617.98 522.93 572.21 618.96 704.27 593.26
00020538 00000126 385.08 203.97 386.52 536.73 504.70 428.91 669.68 397.59 619.98 524.09 574.20 619.60 706.94 593.58
00020539 00000127 385.83 205.44 387.20 536.75 505.98 430.80 671.12 399.87 621.10 526.28 575.50 619.93 708.80 594.07
00020540 00000128 385.82 205.52 386.98 537.71 505.83 432.08 672.27 401.12 622.25 527.84 574.86 621.34 709.77 595.42
00020541 00000129 385.96 208.28 385.94 535.71 505.56 433.44 673.22 401.87 623.22 530.05 574.69 623.08 710.92 596.66
00020542 00000130 385.91 209.80 386.38 537.44 505.55 434.86 674.09 403.54 623.42 532.14 573.30 624.43 711.08 598.24
00020543 00000131 385.36 211.42 385.99 536.67 504.99 435.89 674.33 404.42 623.48 533.48 571.77 625.62 711.21 599.23
00020544 00000132 384.67 211.94 386.25 538.36 505.25 435.63 673.47 404.83 623.38 533.55 572.38 626.53 709.95 600.69
00020545 00000133 384.22 213.43 385.75 535.50 503.17 436.06 673.69 404.94 621.57 536.29 568.37 626.87 709.41 600.72
00020546 00000134 384.69 211.79 385.28 536.13 504.12 436.26 672.79 405.09 620.82 536.82 565.92 622.76 707.82 596.78
00020547 00000135 387.16 217.01 382.38 533.65 497.82 439.30 671.40 399.97 622.71 529.97 554.81 630.91 700.32 597.22
00020548 00000136 386.82 219.64 384.46 535.58 496.70 440.83 670.42 400.73 620.77 533.39 553.36 631.91 701.62 597.42
00020549 00000137 386.67 220.89 385.95 542.23 498.25 441.36 668.45 401.97 620.53 532.93 555.30 635.12 699.56 601.03
00020550 00000138 388.15 221.84 385.96 543.57 500.92 442.36 670.83 404.59 622.17 535.08 555.89 634.89 701.20 602.12
00020551 00000139 390.42 225.01 384.16 541.54 503.96 444.06 673.16 408.72 623.54 536.38 556.05 634.55 701.45 603.88
00020552 00000140 392.13 225.92 382.50 541.38 504.56 444.58 674.86 410.02 624.24 538.26 554.80 634.15 702.77 604.34
00020553 00000141 392.33 223.68 381.54 540.59 504.77 443.96 676.49 410.21 625.61 538.82 555.27 635.16 702.46 606.17
00020554 00000142 391.81 223.64 381.18 539.31 504.13 442.55 676.30 408.07 625.19 537.81 555.40 634.72 702.52 605.12
00020555 00000143 390.21 220.22 381.18 539.86 502.90 440.55 675.05 406.10 625.17 535.33 554.92 633.28 700.71 603.63
00020556 00000144 390.14 216.69 380.33 540.27 501.40 438.96 675.36 404.97 625.41 533.61 555.02 633.16 700.59 603.89
00020557 00000145 386.14 211.12 383.37 538.41 504.69 433.64 673.37 407.39 620.09 538.83 560.59 621.64 703.86 600.05
00020558 00000146 387.69 216.35 380.62 533.10 497.66 435.40 672.88 400.34 622.32 529.47 552.47 630.94 697.56 600.62
00020559 00000147 386.15 212.52 381.80 540.30 497.13 434.04 668.81 398.08 620.68 525.74 554.48 631.94 694.01 600.78
00020560 00000148 384.44 203.83 384.78 546.42 504.57 427.71 670.11 402.06 619.05 529.64 564.67 621.64 700.99 600.66
00020561 00000149 386.16 205.00 386.30 548.14 507.38 429.17 672.71 404.47 621.43 531.01 566.53 621.63 702.70 601.39
00020562 00000150 388.38 207.89 387.61 552.08 510.81 431.46 676.78 406.40 625.73 533.79 570.90 625.52 707.21 604.68
00020563 00000151 392.06 206.65 386.37 557.12 515.57 434.11 680.03 407.90 631.31 536.22 576.60 629.16 711.73 607.30
00020564 00000152 395.40 209.28 384.82 555.08 520.30 435.21 683.65 407.87 636.22 536.25 580.39 629.82 713.98 607.05
00020565 00000153 398.01 210.27 383.42 549.20 523.22 434.58 687.34 405.52 639.66 534.33 584.64 628.17 717.08 603.85
00020566 00000154 400.48 208.66 382.49 543.53 524.93 430.56 688.39 401.38 640.20 530.86 585.85 623.98 715.73 599.30
00020567 00000155 401.75 209.18 381.11 536.66 526.02 428.06 689.38 399.92 642.14 529.24 585.45 618.92 716.45 595.00
00020568 00000156 401.80 207.24 381.05 536.35 524.88 427.66 689.22 399.80 640.65 527.36 582.92 615.59 718.01 591.92
00020569 00000157 402.46 203.75 379.86 536.50 523.52 426.88 689.94 400.70 639.73 526.64 577.81 611.67 718.73 589.40
00020570 00000158 402.55 201.68 378.98 536.08 522.71 424.40 690.09 398.71 639.07 525.03 576.40 609.36 719.18 587.65
00020571 00000159 402.99 200.52 377.97 537.47 523.34 424.54 688.50 397.73 639.99 523.94 578.11 608.80 719.74 586.20
00020572 00000160 403.51 198.96 377.43 542.31 524.24 425.17 687.94 397.16 641.92 524.03 580.72 611.18 720.67 587.57
00020573 00000161 404.14 200.13 377.31 540.76 526.28 426.06 690.27 397.49 645.18 525.04 583.07 612.98 721.48 588.99
00020574 00000162 404.48 200.03 378.52 542.93 528.06 426.84 692.36 397.51 647.75 527.23 586.27 615.79 721.97 591.02
00020575 00000163 408.55 199.47 377.43 545.26 534.23 429.25 698.17 399.71 654.11 531.12 592.05 619.45 724.89 594.17
00020576 00000164 416.16 194.10 376.92 553.37 540.69 435.15 708.20 402.67 664.82 535.04 600.13 627.17 734.31 599.00
00020577 00000165 425.53 197.85 376.37 554.55 549.09 436.43 721.33 403.36 675.13 540.40 604.32 632.18 741.37 603.87
00020578 00000166 437.25 201.39 373.61 553.76 557.78 428.22 731.04 400.90 685.77 534.14 608.96 632.68 747.17 608.67
00020579 00000167 446.47 202.25 369.80 551.14 564.31 429.45 739.61 402.23 692.88 531.41 613.63 631.75 755.57 608.14
CROP_BBOX: 72 0 943 923
