Video ID: 	S1jNBUr_nis
H: 	1080
W: 	1920
FPS: 	23.978044623002106

FRAME INDEX X0 Y0 W H [Landmarks (5 Points)]

00004476 00000000 471.94 100.90 450.02 587.16 576.19 322.34 783.28 309.87 670.85 389.89 610.46 526.42 788.39 514.67
00004477 DELETE   468.93 102.34 449.55 587.99 569.23 324.31 779.62 311.40 663.07 392.15 601.53 528.27 785.73 516.69
00004478 00000002 465.75 103.34 447.61 588.62 563.08 326.75 774.07 311.67 658.43 396.44 594.82 530.97 782.44 518.29
00004479 DELETE   462.25 103.06 448.64 590.86 557.60 330.03 770.73 313.64 652.88 399.28 588.51 534.61 776.70 521.19
00004480 00000004 458.44 105.43 451.44 589.61 554.66 330.66 768.05 314.81 651.08 402.46 585.27 534.82 773.09 521.53
00004481 00000005 456.68 104.80 452.38 589.55 553.23 330.56 768.31 314.38 650.42 402.13 584.61 536.11 772.92 522.34
00004482 00000006 458.04 103.97 451.33 590.07 555.18 328.80 768.66 313.80 651.53 401.81 586.17 535.59 771.84 522.82
00004483 00000007 459.40 101.24 448.25 589.11 557.14 328.54 771.12 315.64 654.72 402.21 587.71 534.21 772.31 523.35
00004484 00000008 463.12 104.28 446.32 580.93 562.45 328.64 772.78 316.02 660.00 401.67 595.44 533.08 774.23 522.70
00004485 00000009 466.66 102.76 446.30 581.87 565.82 328.00 778.07 316.87 663.39 402.02 597.83 532.77 779.33 523.31
00004486 00000010 468.89 101.69 444.42 579.89 569.47 327.59 780.98 317.12 668.74 401.10 601.04 530.03 781.90 521.17
00004487 00000011 472.08 97.74 442.87 580.54 574.84 327.16 785.04 319.32 675.30 399.46 605.91 529.57 783.48 522.98
00004488 00000012 474.12 96.84 445.31 577.78 579.38 324.93 790.93 317.23 682.18 392.50 609.13 525.57 788.64 518.95
00004489 00000013 481.61 98.43 444.41 572.99 585.22 322.70 796.10 315.78 683.96 390.48 613.64 523.40 792.22 516.75
00004490 00000014 491.41 89.94 440.71 579.99 591.76 322.24 800.90 314.19 687.41 387.88 619.47 523.60 796.47 516.26
00004491 00000015 497.51 87.55 440.20 580.06 598.07 319.65 807.67 313.83 694.67 383.15 623.81 519.21 803.25 513.57
00004492 00000016 502.29 88.50 439.82 579.46 604.29 321.02 812.19 315.67 699.69 381.95 628.93 518.27 806.71 512.67
00004493 00000017 506.12 86.08 438.02 578.45 608.50 319.91 815.05 314.67 702.46 382.26 633.17 516.67 809.91 510.48
00004494 00000018 510.38 83.07 437.18 579.16 611.18 317.97 819.89 311.27 707.79 380.35 636.00 516.23 814.90 508.96
00004495 00000019 514.46 84.03 437.58 575.99 615.94 315.77 824.50 309.56 712.45 380.27 639.82 514.17 818.51 507.05
00004496 00000020 519.10 90.64 434.14 566.15 624.73 316.75 830.63 311.14 722.70 381.01 643.92 511.39 823.72 506.40
00004497 00000021 515.44 81.25 446.39 572.62 621.79 311.22 832.18 302.60 717.67 385.46 644.24 508.98 825.22 502.18
00004498 00000022 516.42 81.29 446.22 568.35 623.68 310.15 833.44 301.99 719.39 385.07 646.85 506.91 825.81 500.50
00004499 00000023 516.20 79.44 445.24 569.70 622.75 309.84 834.46 300.51 720.83 383.79 645.96 505.91 828.36 498.50
00004500 00000024 513.03 77.71 444.51 573.51 620.48 306.39 832.28 297.38 720.09 381.90 645.10 507.55 825.79 500.47
00004501 00000025 511.92 81.30 438.24 568.67 617.10 308.58 822.76 296.51 715.09 374.07 645.04 506.32 821.14 494.09
00004502 00000026 506.47 81.87 436.91 561.55 609.78 307.93 816.22 295.22 707.63 370.54 636.53 499.51 818.28 487.07
00004503 00000027 502.70 86.06 436.69 558.85 606.13 304.83 807.88 292.86 698.46 367.25 632.94 496.43 808.98 484.96
00004504 00000028 498.84 84.16 436.11 565.69 601.64 303.36 804.07 293.22 693.18 361.70 627.70 497.72 802.13 488.12
00004505 00000029 494.39 89.25 437.95 564.35 595.81 308.31 796.86 295.17 687.33 365.85 623.57 501.00 797.18 489.88
00004506 00000030 486.18 87.29 446.09 571.77 591.29 314.70 791.24 296.90 687.59 370.65 627.19 510.11 794.39 494.16
00004507 DELETE   481.39 94.06 445.89 573.81 585.00 319.68 787.59 301.48 682.25 375.53 621.89 516.32 793.73 500.47
00004508 00000032 476.89 95.51 449.63 585.30 580.78 325.30 786.51 305.72 680.47 387.01 619.53 523.25 799.38 506.31
00004509 00000033 480.56 92.96 447.47 590.22 587.09 325.99 794.20 310.68 688.47 388.63 620.34 522.31 803.77 508.90
00004510 00000034 483.09 92.54 449.23 589.61 597.42 325.68 804.17 310.87 705.54 385.59 631.64 521.64 812.20 508.35
00004511 DELETE   487.52 93.02 453.40 582.92 607.25 327.64 815.39 312.79 718.38 381.29 640.36 517.53 822.16 503.83
00004512 00000036 494.75 95.04 450.07 570.95 615.58 324.96 821.40 307.34 727.05 382.54 650.98 513.40 830.87 496.27
00004513 00000037 496.02 94.30 448.00 563.12 617.38 325.49 824.15 306.38 732.42 384.17 654.91 512.16 835.71 493.67
00004514 DELETE   494.68 91.61 447.98 565.64 612.69 328.46 821.16 311.24 727.29 387.12 647.41 512.37 832.64 496.11
00004515 DELETE   489.82 93.20 446.72 572.04 606.77 327.39 817.16 315.12 719.83 383.28 639.32 515.41 824.76 504.03
00004516 00000040 482.95 97.62 449.44 580.65 599.59 324.54 808.03 313.32 709.71 387.26 630.91 518.14 814.26 507.78
00004517 00000041 476.79 97.34 450.78 585.37 592.52 322.41 799.40 312.84 699.19 389.89 622.54 518.24 805.81 509.70
00004518 00000042 475.43 98.18 450.21 586.11 588.18 322.85 795.74 311.99 692.89 389.88 620.17 521.29 802.27 511.33
00004519 00000043 474.84 97.27 450.89 587.94 586.04 322.62 794.49 310.36 690.59 390.31 618.37 521.40 802.47 510.37
00004520 00000044 476.18 96.98 449.47 588.00 586.20 322.73 796.51 311.50 691.24 390.23 617.52 522.52 803.06 512.09
00004521 00000045 474.69 100.22 451.63 585.90 586.07 322.72 796.42 312.74 690.82 391.61 618.29 523.58 802.21 513.87
00004522 00000046 475.06 98.38 450.98 589.76 587.15 323.04 796.76 313.56 691.69 394.58 619.42 525.40 801.36 516.22
00004523 00000047 476.53 99.06 448.61 588.25 587.43 323.65 796.04 313.29 692.15 396.57 619.75 525.09 801.53 515.33
00004524 00000048 475.81 100.23 453.41 586.64 588.33 324.78 797.79 314.02 693.34 398.85 620.35 525.35 802.01 515.54
00004525 00000049 477.27 101.02 452.05 584.60 589.88 325.31 800.11 314.65 695.70 397.38 621.72 525.78 803.72 516.09
00004526 00000050 478.71 98.35 454.43 586.31 591.71 326.31 802.99 314.72 697.88 398.61 623.04 525.91 808.00 515.20
00004527 00000051 482.07 96.40 453.92 589.05 595.63 324.66 807.52 315.52 700.82 395.57 625.75 526.57 808.76 517.56
00004528 00000052 486.23 94.17 452.73 588.71 599.94 323.90 811.83 315.17 704.14 393.62 629.10 524.84 813.18 515.43
00004529 00000053 490.70 93.68 450.19 587.52 604.97 322.34 814.13 315.20 706.73 388.73 632.37 522.38 813.32 514.38
00004530 00000054 492.69 91.43 449.96 593.47 606.08 322.14 813.92 313.48 707.19 386.92 633.06 523.38 813.28 514.35
00004531 00000055 495.12 89.83 446.21 592.55 607.13 321.00 815.69 313.83 708.33 383.94 632.33 521.94 812.70 514.46
00004532 00000056 499.55 88.88 441.47 574.73 605.60 318.52 818.48 309.76 707.66 378.44 633.71 518.31 813.44 509.53
00004533 00000057 500.37 87.90 439.73 568.91 604.66 316.67 818.63 307.31 707.77 379.15 632.11 512.54 817.47 503.85
00004534 00000058 500.66 87.48 438.46 567.92 604.12 316.04 818.27 306.19 707.06 378.56 631.20 510.61 818.29 501.72
00004535 00000059 501.53 85.32 439.43 574.26 604.80 315.97 816.19 305.68 705.23 378.17 631.52 509.83 817.12 500.71
00004536 00000060 502.42 85.57 438.94 576.48 604.33 316.12 814.95 305.56 702.56 378.56 630.96 510.34 815.42 501.01
00004537 00000061 502.44 87.46 439.05 570.21 604.42 316.74 814.14 304.98 701.82 379.68 632.03 509.98 814.90 499.40
00004538 00000062 501.16 88.83 443.40 567.49 606.78 315.44 812.19 303.34 701.34 380.10 635.70 508.68 811.55 496.91
00004539 00000063 500.55 92.51 442.94 563.23 607.94 314.01 811.07 301.80 702.09 378.99 637.18 506.53 810.69 494.42
00004540 00000064 499.92 92.11 441.66 558.57 606.27 314.86 810.79 301.38 700.97 377.34 635.63 507.66 808.07 494.76
00004541 00000065 499.29 92.34 443.46 555.42 606.41 314.97 811.82 302.34 700.65 377.58 636.36 506.95 810.20 494.38
00004542 00000066 498.52 90.62 443.01 558.61 606.61 315.11 812.01 302.28 701.77 376.64 636.49 506.70 810.99 493.96
00004543 00000067 498.70 88.94 442.31 557.38 605.55 315.58 812.35 302.84 701.78 376.87 635.27 506.60 811.67 494.15
00004544 00000068 498.36 88.32 442.99 563.62 605.34 315.04 812.00 304.09 702.38 375.54 632.75 506.07 811.85 495.22
00004545 00000069 496.16 92.25 446.34 564.17 606.51 314.82 812.51 302.44 704.96 377.80 636.41 507.99 813.07 495.95
00004546 00000070 495.25 92.13 445.75 566.19 608.93 314.12 813.01 302.29 708.43 375.20 640.37 509.40 811.48 497.28
00004547 00000071 495.41 88.68 446.72 565.90 609.96 314.99 815.50 301.32 713.20 375.99 643.40 509.43 816.94 495.64
00004548 00000072 496.18 90.31 445.29 565.65 611.46 314.83 817.00 301.34 715.70 378.39 642.85 507.53 819.69 494.11
00004549 00000073 495.84 90.87 442.90 567.63 612.61 313.88 817.65 301.62 717.62 379.14 642.56 509.02 818.77 496.85
00004550 00000074 495.82 90.67 443.40 568.25 611.54 314.94 817.75 303.79 716.88 382.00 640.74 508.93 819.48 497.83
00004551 00000075 495.78 91.86 442.79 568.72 610.82 314.64 816.57 304.52 713.64 380.80 639.15 510.83 815.00 500.61
00004552 00000076 496.26 96.10 441.30 565.06 611.04 316.08 816.27 306.57 713.23 380.96 639.78 512.16 814.85 502.48
00004553 00000077 495.24 96.94 440.00 565.61 609.97 315.18 815.15 306.67 712.13 381.40 638.70 511.85 814.66 502.97
00004554 00000078 495.33 96.35 440.95 565.91 609.93 316.84 816.32 308.39 712.38 384.01 638.73 513.97 813.91 505.17
00004555 00000079 496.30 96.35 440.86 569.27 609.58 317.91 817.91 309.48 712.76 383.56 638.94 516.35 816.14 507.62
00004556 00000080 495.59 94.03 444.73 575.23 611.86 318.19 820.40 311.16 716.24 384.22 640.78 518.32 815.52 510.68
00004557 00000081 497.06 94.71 442.99 573.41 614.41 318.70 821.28 312.73 718.13 385.61 641.70 517.69 815.17 511.06
00004558 00000082 499.91 90.17 441.12 579.20 616.31 318.50 822.91 312.79 718.52 385.04 642.86 519.31 814.28 512.90
00004559 00000083 504.13 87.55 438.01 580.76 617.16 317.56 824.68 311.71 719.38 384.33 643.84 518.90 817.23 511.93
00004560 00000084 508.41 89.72 434.20 580.26 620.05 315.47 826.35 310.86 720.77 382.57 644.16 517.34 817.82 511.39
00004561 00000085 509.09 89.65 435.99 578.17 621.80 315.91 827.37 311.29 722.74 380.15 645.75 516.11 819.55 510.01
00004562 00000086 510.44 92.52 436.04 573.00 624.47 315.63 828.60 311.77 725.44 379.65 647.42 514.03 820.39 508.35
00004563 00000087 511.21 89.07 437.06 575.57 625.04 315.57 829.82 310.63 727.54 378.61 649.09 514.17 822.25 507.50
00004564 00000088 515.59 89.37 435.33 575.59 631.29 316.25 834.83 313.78 735.75 381.22 650.61 511.72 827.20 509.39
00004565 00000089 516.49 87.88 436.24 578.05 632.29 315.54 836.05 312.48 737.07 381.17 652.33 511.94 829.27 509.00
00004566 00000090 517.17 84.46 435.53 581.86 633.71 316.00 837.09 314.28 739.25 381.61 653.30 511.35 830.39 509.76
00004567 00000091 519.02 82.31 434.68 583.80 634.72 316.72 838.78 315.47 740.93 381.00 653.49 511.75 831.42 510.62
00004568 00000092 519.60 83.43 434.47 582.47 635.59 315.06 839.40 314.35 741.00 381.35 654.89 511.27 831.37 510.54
00004569 00000093 521.69 80.92 433.57 586.01 636.64 315.44 839.18 315.02 741.48 380.61 654.99 511.61 831.97 511.50
00004570 00000094 520.37 78.46 434.87 591.48 637.82 315.73 841.94 316.96 744.09 379.16 656.61 510.90 834.24 512.32
00004571 00000095 522.57 81.37 432.06 587.04 640.21 315.89 844.53 316.66 743.88 379.15 659.34 507.30 835.81 509.19
00004572 00000096 523.20 89.35 433.57 578.74 641.41 307.83 851.14 311.38 746.02 377.52 661.17 505.42 840.54 509.32
00004573 00000097 523.88 89.71 436.83 578.93 642.27 311.34 850.76 313.17 749.11 375.72 662.46 507.82 842.57 509.44
00004574 00000098 525.79 87.13 435.32 580.42 643.98 310.30 848.78 310.72 749.90 376.78 664.69 507.13 842.37 507.50
00004575 00000099 525.31 88.74 437.50 578.93 645.06 306.89 851.05 309.69 750.41 376.38 665.22 505.53 842.58 507.65
00004576 00000100 525.85 90.67 438.56 575.91 645.70 306.26 851.39 307.95 750.38 375.15 666.68 505.15 843.39 506.32
00004577 00000101 526.77 92.32 438.62 572.80 647.32 306.43 851.39 308.11 751.68 374.28 668.05 503.95 843.86 504.97
00004578 00000102 527.24 91.77 438.78 572.87 648.68 305.46 850.67 306.87 752.33 373.76 670.20 502.96 844.58 503.34
00004579 00000103 528.20 94.09 439.73 570.39 649.89 305.23 851.67 306.78 753.10 373.78 671.11 503.14 844.63 503.72
00004580 00000104 529.40 94.74 438.78 566.15 650.85 303.40 853.98 307.32 754.61 371.73 671.27 501.42 845.71 504.07
00004581 00000105 530.27 96.38 436.85 560.42 650.66 303.72 854.23 308.03 754.31 371.46 670.89 501.04 845.20 504.12
00004582 00000106 530.40 95.45 437.22 561.24 650.82 303.57 854.96 307.96 754.42 371.66 671.13 501.83 845.39 504.94
00004583 00000107 531.75 94.53 436.06 562.11 651.12 304.07 856.09 308.92 754.77 372.14 671.54 502.54 845.89 506.18
00004584 00000108 531.47 93.82 436.47 560.41 651.56 304.27 856.33 309.24 755.69 371.90 672.39 503.06 845.24 506.59
00004585 00000109 532.67 93.22 434.69 561.05 650.97 304.05 856.48 309.15 755.94 370.89 671.71 503.12 845.66 506.84
00004586 00000110 532.03 91.76 435.24 562.57 651.23 304.35 856.49 309.24 756.22 371.90 671.89 503.29 845.77 506.97
00004587 00000111 532.48 90.73 436.05 565.44 651.28 304.86 856.87 310.16 756.28 371.10 671.95 504.19 845.80 508.09
00004588 00000112 533.41 87.63 436.51 572.81 652.05 305.31 856.16 310.19 756.64 371.23 673.37 505.36 846.46 508.78
00004589 00000113 533.79 88.63 436.40 572.37 652.06 305.02 855.78 309.93 756.41 371.76 672.91 505.12 846.51 508.71
00004590 00000114 533.48 86.46 435.85 575.42 651.84 306.20 855.72 310.42 757.26 371.34 673.61 506.82 846.06 509.92
00004591 00000115 533.01 85.79 436.28 576.90 651.35 306.17 856.13 310.72 757.06 372.06 672.68 507.46 845.91 510.88
00004592 00000116 534.07 85.88 435.44 576.08 652.63 306.98 855.22 310.24 757.22 371.86 674.99 507.95 844.77 510.37
00004593 00000117 533.80 84.66 436.18 577.08 653.33 307.76 855.77 310.45 759.03 371.55 677.23 508.95 846.13 510.65
00004594 00000118 533.94 83.14 436.34 579.25 654.58 309.50 854.87 311.29 759.64 371.34 678.98 508.86 846.13 509.65
00004595 00000119 533.69 83.21 436.56 580.42 654.60 309.98 855.40 311.49 760.23 372.26 679.31 509.05 847.42 509.60
00004596 00000120 533.86 81.33 435.71 582.24 654.72 311.08 854.64 312.82 760.39 372.12 679.55 509.65 846.64 510.59
00004597 00000121 532.77 81.87 436.72 583.07 654.02 311.56 854.60 312.10 760.52 372.70 679.58 510.39 847.23 510.23
00004598 00000122 533.10 81.58 436.01 584.37 654.63 311.32 854.12 312.42 760.54 372.54 679.73 510.42 846.25 510.61
00004599 00000123 532.82 83.34 437.15 583.51 653.08 312.15 855.30 312.56 760.70 373.37 679.85 511.25 849.46 510.74
00004600 00000124 532.68 87.51 437.98 577.75 652.24 310.64 856.37 311.82 759.43 374.04 678.17 510.27 849.63 510.34
00004601 00000125 532.79 87.47 438.70 578.61 652.34 311.20 855.75 311.24 759.00 373.53 678.62 510.70 849.31 509.71
00004602 00000126 533.24 88.14 437.47 575.82 652.07 310.75 856.63 311.03 758.87 373.11 678.75 509.70 850.16 509.13
00004603 00000127 534.05 88.36 435.81 572.84 651.80 312.07 857.70 312.82 759.35 373.33 678.59 509.97 850.95 510.01
00004604 00000128 534.95 90.81 437.94 568.40 655.33 313.07 855.29 311.81 759.28 372.11 683.44 509.55 846.59 507.72
00004605 00000129 533.67 92.80 437.71 562.97 654.85 306.42 853.41 307.96 756.70 371.01 679.77 506.47 839.03 506.87
00004606 00000130 534.68 87.27 433.93 560.46 654.09 300.68 852.77 301.99 756.70 362.35 677.82 498.75 841.85 499.03
00004607 00000131 532.05 82.32 434.23 561.37 650.93 295.76 848.57 299.46 752.54 356.19 672.77 490.86 836.44 493.25
CROP_BBOX: 168 0 1113 864
