Video ID: 	791QHi3N1nE
H: 	1080
W: 	1920
FPS: 	25.0

FRAME INDEX X0 Y0 W H [Landmarks (5 Points)]

00001195 00000000 873.02 69.83 350.54 507.37 968.44 262.68 1139.96 274.98 1050.87 359.21 974.51 437.15 1124.80 449.36
00001196 00000001 870.14 72.51 350.60 508.02 967.30 266.64 1136.52 278.05 1048.54 364.32 975.42 441.06 1121.29 452.62
00001197 00000002 867.74 73.08 352.81 519.07 967.14 269.15 1133.62 282.25 1048.17 371.04 973.42 445.65 1117.60 458.46
00001198 00000003 868.12 73.86 351.81 528.84 966.79 270.41 1134.02 285.68 1047.71 374.53 971.61 450.35 1117.59 464.79
00001199 00000004 869.43 73.17 350.09 529.43 966.31 271.84 1133.46 286.35 1047.01 374.49 972.94 451.86 1117.14 465.67
00001200 00000005 867.29 73.05 352.71 527.10 966.60 272.72 1132.35 287.49 1047.65 373.77 973.60 449.48 1116.17 463.45
00001201 00000006 868.35 72.30 352.00 523.83 966.95 272.65 1131.05 286.80 1046.63 373.80 974.93 447.41 1114.92 460.98
00001202 00000007 867.23 71.07 352.51 524.03 966.92 271.26 1130.73 284.98 1047.08 371.82 974.77 445.94 1114.92 459.16
00001203 00000008 866.68 70.46 354.13 526.68 966.75 269.47 1131.77 282.93 1047.12 367.51 973.90 445.41 1116.60 458.36
00001204 00000009 867.69 66.80 353.57 525.20 965.66 265.77 1131.80 278.49 1046.45 360.76 972.77 440.65 1118.73 452.97
00001205 00000010 868.10 66.29 350.90 515.86 965.76 262.02 1134.53 273.26 1048.28 352.77 972.72 435.26 1122.27 446.41
00001206 00000011 870.25 66.23 348.63 504.64 965.07 261.27 1134.00 269.25 1048.95 347.79 972.47 429.67 1124.81 438.04
00001207 00000012 872.02 65.64 346.12 499.46 966.01 259.37 1134.51 268.08 1049.13 344.24 972.04 425.56 1125.16 434.56
00001208 00000013 872.09 65.89 347.11 497.37 966.53 258.79 1134.68 266.66 1049.59 342.49 972.96 424.38 1125.89 432.64
00001209 00000014 872.46 65.92 346.82 497.79 966.35 259.27 1134.40 266.89 1049.17 343.26 972.66 424.72 1126.10 432.77
00001210 00000015 873.03 66.82 345.71 497.57 965.47 262.57 1134.04 269.71 1048.65 347.21 972.99 427.97 1125.17 435.64
00001211 00000016 870.91 67.24 349.94 504.72 965.42 264.01 1134.39 272.20 1048.34 353.15 974.80 434.76 1122.57 443.42
00001212 00000017 873.51 68.61 350.06 513.49 966.78 271.41 1133.57 279.01 1048.56 372.54 982.52 450.05 1116.88 458.56
00001213 DELETE   873.58 75.05 350.56 516.42 967.37 280.07 1134.20 291.54 1049.11 381.38 982.92 456.40 1117.61 467.83
00001214 00000019 876.07 88.32 348.42 509.82 966.55 288.34 1138.14 296.35 1052.40 393.22 987.27 468.36 1126.14 476.53
00001215 00000020 880.17 96.98 345.86 510.17 971.93 297.02 1135.73 303.08 1059.27 402.85 987.29 480.00 1120.39 486.56
00001216 00000021 882.89 104.88 344.42 510.63 975.84 305.93 1135.77 310.99 1059.75 411.32 987.96 485.52 1122.25 491.70
00001217 00000022 879.22 112.88 347.29 508.99 975.91 312.56 1136.83 317.02 1060.84 415.66 986.79 489.53 1125.43 495.44
00001218 00000023 877.98 118.35 346.61 507.34 976.14 316.94 1137.14 321.72 1062.70 421.01 986.19 491.81 1127.74 498.25
00001219 00000024 877.23 123.15 346.14 505.08 975.41 321.01 1137.05 326.75 1062.24 425.36 984.45 493.18 1129.37 500.40
00001220 00000025 876.50 127.50 347.57 502.88 975.20 323.33 1138.02 329.24 1062.01 428.14 982.53 494.14 1129.78 501.66
00001221 00000026 878.26 129.97 347.25 502.18 974.47 325.47 1137.26 331.84 1058.78 433.76 982.43 496.15 1129.39 504.06
00001222 00000027 878.17 132.08 347.28 503.46 973.49 328.63 1137.48 335.08 1058.26 439.08 983.48 500.66 1129.90 508.55
00001223 00000028 877.83 134.94 348.27 502.98 973.04 332.61 1138.15 337.80 1058.50 444.86 984.10 505.55 1129.33 512.38
00001224 00000029 877.99 140.79 349.29 498.43 973.54 336.14 1138.16 340.54 1058.47 450.71 984.76 507.80 1129.61 514.15
00001225 00000030 878.89 142.65 348.72 498.97 973.69 337.64 1138.70 341.16 1058.38 453.22 985.64 510.25 1130.22 515.86
00001226 00000031 879.75 142.49 349.62 510.36 974.06 337.28 1138.50 341.94 1059.05 455.92 986.35 514.15 1130.18 520.67
00001227 00000032 881.08 142.90 349.20 512.32 974.93 337.02 1138.34 341.50 1060.10 455.92 987.84 516.02 1129.33 522.34
00001228 00000033 881.53 142.15 348.84 512.82 975.27 336.34 1138.40 341.06 1060.10 455.62 987.71 515.40 1129.34 521.96
00001229 00000034 881.62 141.13 348.48 512.40 975.50 335.48 1138.30 340.82 1059.84 454.03 987.51 513.94 1129.30 521.01
00001230 00000035 882.60 139.26 347.80 512.35 975.47 333.44 1138.96 339.09 1059.82 452.29 986.56 511.53 1130.24 518.76
00001231 00000036 882.22 132.07 346.14 515.58 976.65 328.68 1139.37 335.07 1061.28 447.57 989.11 511.83 1126.68 519.29
00001232 00000037 882.34 126.10 348.04 512.17 979.14 322.73 1142.96 329.56 1065.73 436.39 993.51 509.54 1126.15 517.10
00001233 00000038 882.33 116.76 350.89 515.87 980.72 317.51 1144.93 324.59 1068.01 428.86 996.51 504.78 1128.34 512.17
00001234 00000039 886.00 113.25 349.74 514.25 984.95 307.92 1150.23 318.24 1070.48 418.33 995.86 496.22 1127.32 506.48
00001235 00000040 890.59 109.75 346.67 515.15 988.59 302.20 1153.60 312.19 1073.95 411.63 996.62 492.12 1128.86 502.23
00001236 00000041 889.58 107.15 348.22 514.44 989.39 300.27 1154.03 311.62 1075.17 410.33 996.87 488.17 1129.13 499.28
00001237 00000042 888.76 107.20 348.82 511.26 989.28 299.12 1154.06 311.35 1076.09 411.15 998.18 487.40 1128.54 499.20
00001238 00000043 889.30 109.15 349.17 508.63 990.16 301.27 1154.24 314.59 1076.36 414.04 997.42 487.18 1130.23 499.95
00001239 00000044 888.43 112.52 349.64 507.56 989.10 304.24 1154.34 317.60 1075.05 418.48 996.76 490.76 1129.26 503.61
00001240 00000045 886.24 117.07 352.44 507.03 987.83 310.56 1152.62 322.55 1073.64 426.40 997.39 496.39 1128.60 508.25
00001241 00000046 883.83 127.04 353.21 500.21 984.62 317.73 1149.52 326.77 1071.04 438.02 998.09 504.97 1126.54 514.45
00001242 00000047 888.47 133.17 349.02 501.91 984.09 326.25 1150.71 332.43 1071.23 455.74 1003.60 522.05 1124.84 529.10
00001243 00000048 893.25 148.86 337.97 494.22 988.31 337.81 1150.93 343.74 1068.17 462.25 1003.01 530.32 1128.86 534.20
00001244 00000049 896.31 160.38 331.92 490.73 988.50 346.62 1150.71 353.64 1067.31 473.70 1003.17 542.29 1124.58 547.21
00001245 00000050 891.00 161.35 337.14 493.22 987.06 350.45 1147.38 358.05 1065.93 474.38 1001.63 545.57 1121.29 550.35
00001246 00000051 895.22 157.12 332.24 496.09 987.42 344.75 1149.51 353.64 1064.07 470.56 1001.48 542.20 1120.07 548.66
00001247 00000052 895.61 143.31 334.22 499.53 987.50 336.69 1150.04 343.34 1066.08 460.35 1001.96 532.03 1125.79 536.74
00001248 00000053 891.54 133.34 344.64 502.65 983.96 329.32 1152.69 335.33 1071.59 459.33 1005.34 525.71 1128.99 532.41
00001249 00000054 889.19 131.71 349.97 499.78 984.58 323.00 1152.14 332.19 1070.02 448.87 1001.48 517.53 1124.56 526.97
00001250 00000055 888.36 124.35 351.75 503.87 985.17 318.77 1152.56 327.91 1071.32 437.02 998.76 507.38 1131.57 516.61
00001251 00000056 889.09 121.04 351.93 504.43 987.81 315.03 1153.58 325.37 1072.92 429.84 998.28 499.08 1134.70 509.46
00001252 00000057 890.80 117.45 350.92 507.45 991.72 310.61 1155.83 322.15 1076.06 424.24 997.94 492.19 1137.08 503.78
00001253 00000058 892.01 114.08 350.98 510.69 993.79 307.98 1156.88 321.33 1077.13 421.53 998.20 489.34 1137.35 502.36
00001254 00000059 891.91 114.28 352.36 511.33 995.10 306.58 1157.29 320.94 1078.37 417.89 998.20 487.32 1137.17 501.11
00001255 00000060 890.83 111.77 353.06 512.26 993.92 303.82 1157.71 316.68 1079.42 414.15 998.19 485.34 1138.93 497.75
00001256 00000061 891.73 104.32 353.92 515.46 992.11 299.37 1157.93 312.29 1079.06 411.12 999.98 483.87 1138.30 496.08
00001257 00000062 892.32 100.89 353.46 511.95 991.45 297.02 1158.45 310.30 1079.42 410.25 1000.54 482.35 1137.77 494.87
00001258 00000063 892.62 99.04 352.34 508.12 990.03 296.39 1159.81 308.23 1079.71 409.27 999.92 481.87 1139.00 493.22
00001259 00000064 893.28 97.13 352.97 508.46 989.72 297.70 1160.93 307.61 1081.45 408.13 1000.44 479.95 1145.90 489.59
00001260 00000065 896.03 95.43 351.33 507.21 991.35 297.00 1161.77 306.84 1082.46 405.98 1001.64 478.21 1147.55 487.82
00001261 00000066 898.22 93.68 349.77 506.11 993.19 295.52 1162.51 306.19 1084.07 402.72 1004.03 476.46 1147.62 486.71
00001262 00000067 900.29 92.99 348.12 506.62 994.31 294.09 1163.82 305.26 1084.55 398.70 1004.65 473.72 1149.36 484.29
00001263 00000068 900.37 91.81 348.31 507.56 995.22 292.40 1164.78 303.75 1086.21 394.60 1005.11 470.77 1150.78 481.56
00001264 00000069 899.95 90.62 348.86 507.32 994.78 291.40 1165.04 302.11 1086.64 392.94 1006.06 470.60 1151.11 480.72
00001265 00000070 900.52 96.13 347.14 503.90 994.92 289.80 1166.15 301.67 1081.81 394.96 1009.55 467.92 1153.45 478.51
00001266 00000071 899.57 89.52 348.90 507.54 993.89 289.85 1164.37 300.25 1086.20 390.80 1006.45 470.66 1149.87 480.41
00001267 00000072 899.21 89.12 348.69 508.72 992.48 290.89 1164.41 300.18 1085.43 390.77 1006.18 473.42 1150.38 482.37
00001268 00000073 904.13 92.09 343.28 507.88 996.86 299.43 1162.68 312.14 1084.38 388.48 1006.29 475.66 1145.28 487.65
00001269 00000074 896.59 92.91 348.37 509.81 990.71 295.99 1161.55 304.15 1083.30 389.76 1005.31 479.68 1145.94 487.40
00001270 00000075 897.71 93.39 348.33 510.90 992.01 292.76 1162.37 304.45 1083.57 394.07 1003.86 479.27 1143.23 490.01
00001271 00000076 893.28 96.49 351.30 515.15 991.48 293.68 1158.91 303.80 1083.78 398.64 1003.06 479.46 1141.54 488.97
00001272 00000077 891.02 100.12 351.77 517.06 989.56 296.21 1156.56 305.44 1080.76 402.97 1001.36 481.55 1140.60 490.39
00001273 00000078 890.64 100.56 351.59 514.07 987.09 298.24 1156.57 306.72 1077.83 406.97 998.34 482.83 1141.33 491.32
00001274 00000079 887.91 102.53 351.75 509.13 985.13 300.03 1154.73 308.61 1075.88 408.30 995.10 480.73 1140.37 489.56
00001275 00000080 886.86 105.45 352.47 506.77 983.50 301.20 1152.49 309.54 1072.63 408.60 992.98 481.65 1137.54 490.52
00001276 00000081 885.90 107.88 349.20 506.37 981.98 301.58 1149.52 310.58 1069.35 408.71 991.03 482.46 1133.06 491.91
00001277 00000082 885.32 108.50 348.56 506.89 981.06 302.13 1147.11 311.54 1067.06 410.21 990.92 484.82 1128.59 494.56
00001278 00000083 885.59 109.25 346.95 506.38 981.39 300.94 1146.05 309.32 1067.55 411.47 995.10 488.83 1122.90 497.72
00001279 00000084 885.76 107.79 346.26 507.98 981.56 299.74 1146.06 308.20 1068.31 412.59 996.95 490.11 1120.82 499.02
00001280 00000085 886.01 106.92 346.53 508.41 981.90 299.47 1146.56 307.72 1069.10 412.93 997.92 490.82 1120.92 499.47
00001281 00000086 887.83 105.94 345.04 507.40 982.46 299.60 1147.79 308.64 1069.39 412.66 997.64 490.27 1123.71 499.41
00001282 00000087 887.33 105.63 347.28 507.23 983.76 300.20 1148.95 309.95 1071.85 412.18 998.70 489.32 1126.36 498.87
00001283 00000088 890.01 109.32 348.41 505.96 986.42 300.86 1152.04 310.33 1074.04 412.96 1000.69 490.19 1129.66 499.63
00001284 00000089 889.26 109.92 351.25 507.35 988.63 300.93 1153.52 309.01 1077.73 413.69 1004.20 492.36 1130.47 500.72
00001285 00000090 890.78 104.85 351.05 509.85 990.64 299.41 1154.18 308.17 1080.08 412.04 1006.98 491.31 1132.55 500.05
00001286 00000091 894.19 98.75 351.58 512.34 993.21 296.50 1157.86 306.94 1083.02 410.18 1009.10 489.47 1136.33 499.44
00001287 00000092 897.17 96.58 349.72 512.69 993.69 295.73 1160.79 305.47 1084.90 407.94 1009.77 489.31 1141.46 498.65
00001288 00000093 899.74 94.54 348.78 514.19 994.88 294.69 1162.54 304.48 1086.26 404.45 1010.74 487.38 1144.27 496.60
00001289 00000094 901.70 92.52 347.88 514.11 996.71 292.82 1163.90 304.41 1087.66 400.66 1007.67 478.95 1147.62 489.84
00001290 00000095 902.62 89.61 347.87 515.44 997.27 290.96 1164.95 303.12 1088.58 398.17 1005.85 474.87 1148.80 486.41
00001291 00000096 903.52 88.45 347.74 515.11 997.82 289.82 1165.50 301.44 1089.44 397.49 1006.46 472.67 1149.96 483.80
00001292 00000097 902.20 88.69 349.38 513.64 996.74 289.83 1165.50 300.33 1089.64 397.73 1006.62 472.23 1151.09 482.45
00001293 00000098 903.12 88.96 349.08 512.87 996.42 289.84 1165.71 299.86 1089.09 397.91 1006.58 472.05 1152.15 481.95
00001294 00000099 903.17 88.75 349.23 512.52 995.91 288.64 1165.64 298.51 1088.74 396.54 1006.92 471.84 1152.29 481.47
00001295 00000100 902.74 89.00 349.65 512.95 995.89 285.33 1165.70 295.03 1089.22 393.39 1008.30 472.69 1149.65 482.02
00001296 00000101 904.16 85.83 346.41 520.05 995.54 282.40 1165.28 292.09 1087.00 390.34 1009.23 475.32 1148.38 484.67
00001297 00000102 907.63 83.48 344.10 522.95 997.14 278.69 1166.96 288.41 1086.19 383.13 1010.43 474.26 1149.38 483.68
00001298 00000103 907.61 80.74 345.94 518.22 997.22 273.52 1169.97 284.21 1086.54 379.27 1010.41 469.24 1149.89 478.92
00001299 00000104 907.48 79.83 349.71 515.23 996.07 269.13 1171.07 278.03 1082.27 375.50 1013.97 463.10 1154.09 471.56
00001300 00000105 906.40 72.75 350.87 510.83 995.62 265.30 1170.45 273.94 1080.77 368.14 1013.48 456.25 1153.91 464.69
00001301 00000106 904.66 69.37 350.57 509.25 995.43 262.29 1170.22 272.02 1079.87 362.21 1009.83 449.58 1153.31 459.04
00001302 00000107 904.84 67.89 348.98 512.38 996.91 258.45 1170.01 270.49 1082.08 354.60 1006.14 444.80 1151.44 456.53
00001303 00000108 902.96 69.23 347.85 508.48 995.23 257.29 1167.13 270.57 1080.04 351.68 1002.14 441.18 1148.52 454.31
00001304 00000109 901.56 68.32 347.70 507.22 994.77 254.95 1166.90 269.02 1079.72 350.71 1000.91 437.63 1149.06 451.35
00001305 00000110 899.26 67.61 346.99 505.99 993.52 253.61 1164.23 267.20 1078.77 348.50 999.66 434.11 1149.16 447.46
00001306 00000111 897.70 64.70 347.41 507.34 991.87 253.06 1163.16 265.26 1078.22 345.60 997.94 432.77 1149.23 445.06
00001307 00000112 899.17 64.44 344.14 503.24 993.66 264.28 1162.42 276.58 1077.61 344.49 998.81 431.39 1149.10 443.43
00001308 00000113 898.60 63.26 343.39 500.71 990.73 263.55 1158.68 274.33 1073.92 342.26 999.07 432.75 1143.84 443.72
00001309 00000114 895.42 58.78 346.90 503.92 988.61 257.56 1156.53 267.54 1073.45 342.04 1000.83 435.32 1138.85 445.67
00001310 00000115 895.23 57.47 346.71 508.82 987.25 257.97 1157.71 266.24 1075.17 346.52 1003.86 441.41 1142.18 450.25
00001311 00000116 894.15 59.51 345.75 507.72 987.13 259.95 1158.09 267.42 1077.88 350.70 1007.00 445.74 1142.40 453.93
00001312 00000117 893.56 62.78 345.26 509.29 984.91 263.82 1157.68 269.15 1075.94 358.74 1006.41 451.65 1142.59 458.26
00001313 00000118 891.83 68.25 345.26 511.57 983.98 270.07 1154.21 271.80 1076.92 368.50 1009.55 460.46 1138.70 464.11
00001314 00000119 888.81 75.27 347.79 513.94 981.77 280.56 1153.35 279.60 1077.73 381.92 1011.10 473.40 1137.02 474.69
00001315 00000120 889.32 82.82 350.72 514.82 983.07 286.60 1153.01 283.75 1083.88 389.35 1010.94 483.16 1137.82 481.89
00001316 00000121 891.78 87.18 347.34 514.00 983.39 294.60 1155.43 291.71 1085.23 403.92 1013.02 492.79 1144.49 491.20
00001317 00000122 889.12 95.33 351.73 511.48 984.86 300.00 1154.69 299.53 1084.55 408.73 1014.34 496.15 1143.69 496.35
00001318 00000123 890.41 100.20 351.08 510.88 986.15 304.42 1154.71 303.43 1084.54 412.18 1016.41 498.64 1145.81 498.52
00001319 00000124 891.03 107.09 350.45 507.32 988.39 307.60 1155.24 306.16 1086.32 413.40 1018.20 500.38 1146.21 500.16
00001320 00000125 892.53 107.38 351.43 508.73 989.30 309.92 1156.92 306.87 1087.59 414.26 1020.60 500.84 1150.70 499.08
00001321 00000126 893.27 105.83 352.41 509.69 991.28 310.13 1159.85 306.73 1091.39 412.03 1021.87 499.43 1154.78 497.22
00001322 00000127 896.93 99.80 348.92 512.47 996.49 306.24 1165.05 302.97 1099.86 406.74 1026.10 495.49 1160.50 493.50
00001323 00000128 900.99 96.81 346.34 510.73 1001.79 299.73 1168.18 300.30 1103.93 401.93 1026.97 490.72 1159.06 492.24
00001324 00000129 904.05 95.46 345.47 505.66 1002.82 296.81 1171.63 296.24 1105.08 393.80 1025.80 484.25 1164.24 484.77
00001325 00000130 902.92 93.67 346.60 503.04 1001.84 294.21 1169.98 292.89 1104.71 388.39 1024.52 478.73 1164.48 478.63
00001326 00000131 901.25 90.66 347.28 503.77 1000.62 292.88 1168.32 291.56 1103.34 386.87 1022.46 475.86 1163.35 475.77
00001327 00000132 899.60 90.03 348.53 506.50 1000.63 292.14 1167.28 290.80 1103.63 385.17 1022.68 476.00 1161.54 475.90
00001328 00000133 898.64 88.81 349.18 511.04 1000.26 290.52 1166.41 289.63 1103.92 383.93 1023.11 478.17 1158.81 478.42
00001329 00000134 899.59 89.15 349.36 511.33 1000.35 289.02 1166.30 288.43 1103.97 383.85 1024.15 479.19 1157.44 479.65
00001330 00000135 901.13 88.96 347.95 511.51 999.23 292.08 1166.91 292.22 1101.53 388.11 1021.79 479.62 1159.43 480.86
00001331 00000136 900.74 90.87 348.13 509.96 998.05 292.64 1165.92 292.05 1099.64 388.37 1021.25 479.13 1160.14 479.62
00001332 00000137 901.34 91.40 347.30 509.31 998.03 294.19 1165.84 293.59 1098.66 389.30 1021.03 479.98 1160.33 480.41
00001333 00000138 901.26 91.90 347.43 508.37 997.71 294.72 1165.91 293.83 1098.39 389.72 1021.01 480.28 1160.45 480.49
00001334 00000139 901.76 92.11 346.91 506.42 997.94 295.68 1166.72 293.97 1098.64 390.09 1021.13 479.62 1162.25 479.15
00001335 00000140 900.92 92.04 347.88 505.91 997.65 294.93 1166.25 293.57 1098.64 390.20 1021.07 479.66 1160.76 479.47
00001336 00000141 900.89 90.89 348.92 506.88 997.07 294.83 1166.22 292.38 1098.68 389.84 1022.31 479.27 1162.98 477.95
00001337 00000142 902.63 90.85 347.54 504.19 997.57 293.94 1166.59 292.67 1097.11 388.91 1020.98 476.16 1162.73 475.93
00001338 00000143 901.88 90.30 348.44 503.68 997.46 293.58 1166.23 292.19 1096.64 387.49 1020.91 474.86 1162.72 474.31
00001339 00000144 903.12 88.84 348.42 507.73 997.08 293.17 1166.32 290.91 1096.82 386.43 1021.02 476.48 1163.14 475.45
00001340 00000145 903.11 90.42 346.67 515.43 998.89 291.76 1166.58 291.62 1098.04 384.85 1017.37 476.24 1162.12 477.79
00001341 00000146 902.29 92.52 347.44 516.22 999.03 289.36 1165.73 290.76 1095.05 381.64 1013.57 472.19 1160.86 475.03
00001342 00000147 903.44 90.82 347.00 519.24 1000.03 286.69 1165.85 290.65 1093.41 379.64 1010.06 468.14 1160.47 473.01
00001343 00000148 904.83 89.26 345.53 519.06 999.66 285.13 1166.12 289.61 1091.61 377.01 1009.09 466.30 1159.57 471.79
00001344 00000149 905.01 88.24 345.70 518.36 999.71 283.76 1166.51 287.89 1091.87 376.15 1009.86 466.26 1159.26 471.43
00001345 00000150 906.90 88.41 344.52 517.74 1000.77 282.67 1167.85 286.58 1093.00 376.21 1011.15 466.31 1160.68 471.34
00001346 00000151 908.38 88.65 343.98 520.26 1002.16 282.55 1168.04 286.66 1094.26 375.95 1012.35 467.08 1161.26 472.26
00001347 00000152 908.94 89.06 344.58 521.38 1002.80 283.14 1168.22 287.38 1094.52 377.02 1013.61 467.98 1161.84 473.10
00001348 00000153 909.81 91.02 343.41 521.24 1003.28 284.63 1167.82 288.86 1095.11 378.97 1014.43 469.20 1162.18 474.27
00001349 00000154 907.73 90.97 346.32 518.08 1001.55 287.78 1167.96 291.86 1095.55 384.20 1014.01 470.18 1163.06 475.18
CROP_BBOX: 643 0 1480 774
