Video ID: 	SsYtP8Ze88Q
H: 	1080
W: 	1920
FPS: 	25.0

FRAME INDEX X0 Y0 W H [Landmarks (5 Points)]

00005120 00000000 966.87 65.84 574.24 774.73 1113.57 363.59 1362.90 379.85 1217.01 525.40 1124.31 642.70 1323.36 657.21
00005121 00000001 972.52 65.61 575.13 784.64 1119.61 364.94 1367.89 379.93 1223.11 524.50 1130.16 645.54 1329.61 658.80
00005122 00000002 977.03 68.00 573.18 777.31 1126.76 364.68 1373.16 381.78 1229.47 525.24 1136.46 640.77 1334.65 655.74
00005123 00000003 981.73 64.18 573.11 783.70 1132.10 364.90 1377.02 382.08 1233.66 524.94 1139.25 639.13 1339.56 654.17
00005124 00000004 987.12 64.98 574.35 785.74 1136.40 364.56 1380.65 381.97 1236.78 526.12 1141.99 638.04 1344.32 653.34
00005125 00000005 992.16 65.42 572.89 786.03 1141.21 364.65 1384.04 382.16 1242.10 528.30 1147.26 638.42 1348.52 653.76
00005126 00000006 997.40 65.32 572.07 787.04 1146.00 363.18 1388.43 380.09 1246.78 525.73 1151.57 637.99 1352.87 652.74
00005127 00000007 1003.58 65.26 569.78 785.25 1151.63 361.98 1392.27 379.44 1251.07 524.12 1156.79 635.11 1356.67 649.99
00005128 00000008 1008.75 48.90 568.63 793.82 1150.34 359.66 1401.70 379.30 1261.69 521.18 1165.41 639.55 1370.05 654.81
00005129 00000009 1013.77 52.08 565.79 790.66 1156.15 360.39 1405.85 381.19 1266.57 518.80 1170.88 639.84 1372.65 656.05
00005130 00000010 1017.83 52.51 568.67 788.28 1159.63 359.25 1411.16 379.20 1270.49 516.84 1175.91 641.41 1375.91 657.08
00005131 00000011 1017.23 62.57 572.03 782.65 1173.00 360.09 1416.97 376.74 1276.26 519.96 1181.46 640.46 1373.66 655.93
00005132 00000012 1020.49 58.08 573.85 783.46 1179.33 360.97 1423.53 377.56 1282.62 516.43 1187.94 640.31 1376.67 655.86
00005133 DELETE   1029.61 54.10 569.47 784.15 1181.05 371.37 1427.86 388.40 1287.57 518.82 1189.64 647.57 1383.33 661.47
00005134 00000014 1037.22 55.83 566.61 784.54 1188.70 374.13 1433.44 391.39 1294.74 519.33 1195.56 646.16 1392.62 660.20
00005135 00000015 1038.32 65.14 565.67 783.93 1199.48 365.76 1437.46 382.86 1301.80 515.67 1207.55 642.60 1394.79 658.12
00005136 00000016 1042.98 68.99 567.14 783.42 1203.39 362.50 1443.77 380.68 1308.16 517.16 1207.84 641.59 1403.76 657.96
00005137 00000017 1047.03 63.63 568.26 786.93 1208.57 361.93 1449.01 380.79 1313.00 516.75 1211.27 638.57 1408.04 655.31
00005138 00000018 1050.27 65.50 567.57 780.80 1214.52 361.60 1453.90 381.39 1318.53 516.09 1215.25 636.21 1410.18 653.87
00005139 00000019 1053.70 68.97 566.57 774.69 1219.07 362.43 1458.03 381.64 1324.29 516.80 1219.90 636.20 1412.96 653.53
00005140 00000020 1055.84 67.08 566.78 772.53 1223.02 364.04 1461.02 382.97 1328.86 516.62 1224.40 635.50 1415.97 652.43
00005141 00000021 1061.59 57.52 564.15 785.87 1221.33 365.64 1469.70 385.78 1339.71 514.03 1228.07 640.91 1430.05 656.99
00005142 00000022 1061.30 69.14 564.95 771.22 1230.98 364.60 1468.36 385.39 1338.58 516.07 1229.80 634.14 1424.94 652.35
00005143 00000023 1065.32 61.20 565.23 783.71 1228.16 365.07 1476.00 386.28 1347.60 511.40 1232.65 639.17 1436.91 656.07
00005144 00000024 1062.87 69.57 567.81 772.17 1235.96 365.15 1472.66 386.42 1344.08 516.11 1232.51 633.42 1429.71 652.00
00005145 00000025 1062.70 73.37 567.99 770.02 1236.06 365.07 1473.00 386.98 1344.08 516.02 1231.60 633.77 1429.96 652.94
00005146 00000026 1061.64 74.19 568.37 770.26 1235.38 365.50 1473.06 386.57 1344.65 517.25 1231.73 636.42 1429.67 655.08
00005147 00000027 1060.75 70.36 567.86 774.38 1234.37 366.79 1472.47 387.43 1344.24 518.78 1232.19 639.12 1427.49 657.56
00005148 00000028 1060.32 67.84 567.71 768.39 1230.04 367.82 1472.37 386.78 1341.30 516.87 1232.15 642.44 1424.98 659.30
00005149 00000029 1059.85 68.71 567.05 769.90 1229.27 370.00 1470.22 387.53 1340.28 519.90 1234.13 645.50 1422.08 661.30
00005150 00000030 1058.16 64.73 567.52 778.88 1227.06 371.39 1468.19 386.00 1339.30 520.52 1233.98 652.15 1419.34 665.70
00005151 00000031 1056.78 65.88 567.86 781.41 1225.25 371.54 1466.21 383.53 1337.81 521.45 1239.29 658.84 1414.54 670.68
00005152 00000032 1054.84 64.55 569.02 782.46 1222.82 371.43 1463.99 383.26 1334.64 522.33 1238.34 659.65 1410.49 671.52
00005153 00000033 1050.71 66.10 571.87 781.68 1218.77 370.12 1460.87 381.59 1329.95 520.27 1235.05 659.31 1407.50 670.79
00005154 00000034 1048.83 68.05 570.03 780.08 1213.88 363.79 1456.54 380.95 1321.73 521.81 1225.03 649.05 1406.84 665.05
00005155 00000035 1045.44 67.89 568.42 776.09 1207.12 361.45 1449.94 379.97 1313.29 519.58 1215.08 641.16 1403.46 658.03
00005156 00000036 1040.26 71.78 570.05 771.74 1201.01 358.45 1442.57 377.98 1305.80 515.79 1206.08 636.27 1398.92 653.65
00005157 00000037 1035.09 70.83 569.89 772.56 1195.04 358.12 1436.37 379.18 1296.60 513.55 1197.95 635.76 1389.77 654.57
00005158 00000038 1032.15 68.48 569.29 776.55 1188.18 357.34 1428.71 378.15 1286.28 511.90 1189.70 635.42 1383.78 654.39
00005159 00000039 1029.20 67.28 569.88 774.70 1184.84 356.30 1425.67 377.41 1282.44 509.22 1184.91 634.37 1380.45 653.53
00005160 00000040 1027.34 66.61 567.01 772.82 1181.36 355.21 1421.20 377.20 1278.03 510.16 1180.75 631.91 1376.33 651.98
00005161 00000041 1025.65 67.52 565.03 765.42 1178.34 357.97 1418.77 378.25 1275.64 511.41 1180.06 631.54 1371.38 649.95
00005162 00000042 1023.96 67.42 564.19 760.11 1175.54 358.86 1417.48 379.42 1273.87 513.59 1179.53 631.29 1370.28 649.81
00005163 00000043 1023.14 69.24 563.22 753.72 1172.48 360.02 1416.64 381.16 1271.64 515.37 1177.87 631.51 1368.42 650.44
00005164 00000044 1021.55 68.32 563.05 754.12 1170.18 360.83 1415.68 381.05 1270.61 515.05 1176.63 634.05 1366.23 652.28
00005165 00000045 1021.00 73.71 562.18 755.78 1169.55 360.34 1413.02 378.99 1268.90 514.49 1175.44 635.92 1364.55 653.01
00005166 00000046 1019.89 76.86 561.34 754.43 1169.61 360.63 1411.84 379.34 1268.63 514.05 1175.22 635.59 1362.98 652.70
00005167 00000047 1019.00 75.87 561.09 756.07 1168.86 360.74 1410.66 379.27 1267.92 514.34 1174.14 635.02 1361.77 652.01
00005168 00000048 1018.14 78.03 560.69 755.89 1168.19 360.77 1410.23 380.40 1267.41 515.91 1172.60 635.58 1361.77 653.42
00005169 00000049 1016.68 80.07 559.61 754.47 1166.47 361.17 1409.01 381.24 1266.52 517.76 1170.36 635.77 1361.80 653.98
00005170 00000050 1016.85 81.60 559.23 752.84 1165.54 362.45 1409.03 382.76 1265.69 519.70 1169.17 635.77 1362.82 654.11
00005171 00000051 1016.50 78.53 559.44 756.32 1164.85 363.20 1408.71 384.09 1264.83 520.87 1167.51 635.34 1363.80 654.14
00005172 00000052 1019.18 78.01 559.29 763.90 1166.62 361.22 1403.03 381.16 1263.77 517.16 1169.69 636.33 1360.12 653.09
00005173 00000053 1018.52 76.27 558.98 765.55 1166.89 361.01 1402.48 382.05 1263.08 516.87 1168.69 635.80 1357.82 653.56
00005174 00000054 1017.69 73.60 557.92 766.53 1166.55 359.93 1401.56 380.60 1263.10 514.74 1168.05 633.23 1358.14 650.68
00005175 00000055 1017.84 74.12 557.36 764.49 1166.50 358.19 1400.66 378.70 1262.10 512.29 1168.58 631.93 1356.92 649.30
00005176 00000056 1017.70 73.03 558.20 764.94 1166.06 357.19 1401.04 377.14 1261.59 510.59 1168.83 632.75 1355.60 649.80
00005177 00000057 1012.85 73.18 560.57 762.60 1164.15 359.41 1406.21 379.15 1264.65 515.63 1165.53 633.26 1359.36 651.25
00005178 00000058 1017.06 71.68 557.63 765.39 1165.40 357.45 1400.04 376.38 1261.73 511.12 1169.59 633.22 1355.44 649.43
00005179 00000059 1015.85 73.78 558.32 762.05 1163.95 357.02 1399.07 376.83 1260.17 511.67 1168.44 632.54 1353.97 649.56
00005180 00000060 1015.28 70.64 558.57 767.90 1163.46 358.25 1398.73 378.03 1259.13 512.10 1167.42 634.10 1352.65 651.22
00005181 00000061 1014.32 74.21 558.56 761.09 1162.47 358.94 1397.96 379.61 1257.86 514.26 1167.60 635.11 1349.20 653.18
00005182 00000062 1013.58 75.33 558.03 758.28 1160.76 360.59 1396.39 380.68 1256.02 516.00 1167.93 637.13 1346.28 654.90
00005183 00000063 1011.67 74.53 556.84 756.94 1158.40 361.26 1394.33 381.21 1253.76 517.47 1167.04 638.96 1343.47 656.75
00005184 00000064 1009.85 72.03 558.51 758.16 1155.15 363.20 1392.15 381.71 1250.99 518.37 1165.27 641.96 1340.18 658.78
00005185 00000065 1008.52 70.02 557.30 761.49 1153.11 365.21 1390.69 383.02 1249.13 519.74 1162.66 642.90 1339.91 659.27
00005186 00000066 1009.49 72.15 554.86 761.22 1153.23 367.70 1391.07 385.68 1249.70 521.24 1161.36 643.78 1341.30 660.26
00005187 00000067 1007.54 75.27 555.57 760.12 1151.95 368.25 1390.25 385.38 1249.60 521.97 1161.26 645.63 1341.31 661.51
00005188 00000068 1004.99 76.37 558.58 766.05 1152.61 367.99 1390.61 384.95 1249.46 521.51 1161.44 651.72 1334.87 667.88
00005189 00000069 1004.72 76.09 557.98 770.14 1152.92 367.42 1389.63 384.28 1248.96 520.50 1160.92 652.53 1332.70 668.67
00005190 00000070 1004.29 67.26 554.40 778.06 1155.26 373.26 1390.04 387.57 1251.98 520.46 1161.82 652.52 1336.72 666.46
00005191 00000071 1004.27 70.77 555.78 773.21 1158.14 372.77 1391.79 390.71 1253.20 520.81 1161.29 648.90 1337.67 665.80
00005192 00000072 1000.78 71.81 557.71 770.25 1155.97 372.38 1392.45 390.84 1254.56 522.06 1158.97 648.52 1340.17 665.60
00005193 00000073 1000.41 78.55 557.48 762.02 1158.06 371.38 1394.88 391.44 1258.82 522.28 1159.57 646.24 1344.60 664.35
00005194 00000074 1000.39 83.15 557.02 755.94 1159.94 371.66 1396.54 391.87 1261.81 522.81 1162.47 646.74 1344.16 664.98
00005195 00000075 999.94 85.16 555.08 751.66 1160.13 371.39 1396.18 390.19 1263.22 522.70 1165.42 648.80 1341.63 666.08
00005196 00000076 997.67 78.81 556.74 754.61 1158.73 370.47 1396.09 387.65 1263.79 520.35 1166.76 649.66 1340.67 665.67
00005197 00000077 995.44 74.25 558.77 758.58 1158.76 369.24 1395.34 385.00 1263.50 514.17 1167.21 648.70 1337.25 663.61
00005198 00000078 994.92 73.79 559.84 759.16 1158.26 365.49 1395.63 380.77 1263.73 509.52 1168.84 647.64 1338.48 662.05
00005199 00000079 994.77 72.99 559.72 765.77 1158.79 362.87 1395.60 378.13 1264.95 506.90 1169.18 647.93 1341.21 662.25
00005200 00000080 992.76 70.25 562.63 769.36 1158.06 360.58 1397.18 374.98 1266.89 504.75 1169.35 647.88 1342.99 661.47
00005201 00000081 992.39 70.93 562.89 768.95 1158.70 358.44 1397.36 372.54 1268.61 501.78 1170.12 646.88 1345.10 660.11
00005202 00000082 991.07 70.75 562.75 767.85 1157.85 359.07 1396.81 372.87 1268.23 501.91 1169.73 647.10 1344.55 660.06
00005203 00000083 989.47 71.33 563.11 766.67 1155.81 362.24 1396.16 376.00 1266.51 503.64 1167.31 648.30 1344.19 661.22
00005204 00000084 988.99 68.60 563.06 766.81 1155.81 363.05 1395.74 377.20 1266.10 504.98 1167.70 648.10 1342.89 661.34
00005205 00000085 988.88 66.87 561.61 766.97 1154.99 360.49 1394.58 374.35 1265.75 502.37 1167.33 645.47 1343.36 658.39
00005206 00000086 988.37 67.07 560.73 762.92 1155.35 353.23 1393.20 369.04 1265.31 495.37 1166.05 636.77 1343.93 651.08
00005207 00000087 986.88 57.84 559.14 763.73 1156.22 349.73 1393.94 364.30 1268.19 488.39 1167.10 629.03 1347.58 642.00
00005208 00000088 991.62 50.47 557.43 766.39 1155.58 349.71 1398.31 373.02 1272.06 480.02 1163.51 625.12 1350.34 642.93
00005209 00000089 992.06 52.52 554.34 751.14 1157.61 351.08 1396.17 377.95 1269.86 476.97 1159.64 616.05 1343.63 636.75
00005210 00000090 990.61 60.83 553.19 742.56 1160.50 354.41 1398.82 378.57 1271.48 486.79 1154.93 612.66 1349.00 632.40
00005211 00000091 990.94 57.39 559.24 756.60 1153.44 352.94 1397.18 378.25 1268.83 489.63 1160.48 626.49 1348.59 646.23
00005212 00000092 991.36 63.58 558.53 753.34 1160.41 352.79 1393.58 369.63 1266.24 490.82 1169.67 625.97 1341.38 641.01
00005213 00000093 992.90 58.29 556.91 760.09 1161.11 349.07 1393.11 364.53 1265.88 485.14 1170.94 624.39 1341.46 638.50
00005214 00000094 991.35 57.66 557.61 756.96 1158.07 346.86 1392.40 361.78 1264.36 480.61 1168.83 621.61 1341.32 635.11
00005215 00000095 990.32 58.00 558.97 753.44 1156.79 345.07 1392.22 360.66 1262.96 479.50 1167.95 620.09 1340.02 634.14
00005216 00000096 987.73 55.82 559.05 748.82 1152.53 343.83 1391.24 360.54 1258.74 480.05 1162.65 617.64 1337.07 632.49
00005217 00000097 988.53 54.21 552.70 744.29 1153.18 341.38 1391.91 358.61 1265.06 474.98 1158.95 615.55 1336.08 630.59
00005218 00000098 988.27 52.41 553.39 747.16 1153.08 340.69 1391.29 357.29 1264.08 475.63 1159.65 615.86 1334.79 630.49
00005219 00000099 984.51 51.14 561.35 754.82 1150.32 342.83 1387.93 358.89 1254.81 481.36 1161.23 618.64 1331.46 633.15
00005220 00000100 983.91 51.79 560.95 756.10 1150.52 344.66 1386.93 359.41 1255.44 481.40 1163.66 620.97 1329.58 634.49
00005221 00000101 982.32 52.01 564.23 758.53 1150.15 345.28 1386.84 358.55 1256.46 481.42 1165.50 623.28 1330.90 635.42
00005222 00000102 980.42 54.79 563.45 756.57 1148.11 347.39 1386.70 359.61 1257.59 485.30 1164.00 625.60 1333.37 636.99
00005223 00000103 979.70 55.63 564.43 757.54 1147.60 348.68 1386.55 361.35 1257.49 487.78 1163.63 626.58 1335.60 638.20
00005224 00000104 979.37 56.60 565.36 760.27 1147.26 350.23 1386.46 363.59 1257.52 491.91 1162.00 628.17 1337.93 640.27
00005225 00000105 979.75 66.01 562.99 751.83 1147.00 352.44 1386.74 366.02 1257.82 495.41 1162.55 630.26 1338.07 642.55
00005226 00000106 981.21 65.29 563.08 756.49 1147.70 354.21 1387.83 366.91 1258.60 496.19 1164.44 634.21 1337.91 645.88
00005227 00000107 982.01 67.03 565.84 760.69 1148.95 355.72 1389.44 368.44 1260.15 498.60 1165.14 637.34 1340.34 649.10
00005228 00000108 982.89 71.81 565.66 755.17 1150.00 357.01 1391.25 368.63 1262.54 499.17 1167.42 640.13 1341.79 650.99
00005229 00000109 985.69 77.16 564.75 751.33 1152.02 357.43 1392.93 369.81 1263.93 500.22 1168.44 640.06 1343.15 651.58
00005230 00000110 986.36 76.29 565.31 752.52 1153.22 359.09 1393.05 370.69 1265.42 500.16 1170.70 641.10 1345.39 651.86
00005231 00000111 989.45 77.94 565.15 751.27 1155.49 360.06 1394.99 370.76 1267.56 501.33 1173.48 642.93 1347.81 653.00
00005232 00000112 992.38 74.64 564.14 757.46 1158.26 361.15 1395.54 371.60 1269.18 502.40 1175.23 645.06 1347.85 655.06
00005233 00000113 995.86 74.85 563.86 758.30 1159.80 362.54 1396.47 372.91 1269.61 503.68 1176.57 646.57 1348.38 656.50
00005234 00000114 999.30 78.40 560.49 756.73 1161.88 363.34 1396.79 374.08 1269.90 504.57 1177.87 646.97 1347.96 657.26
00005235 00000115 1001.52 78.84 558.52 757.28 1162.96 364.03 1396.62 375.32 1269.61 505.06 1178.00 647.40 1347.12 658.16
00005236 00000116 1003.62 77.26 556.88 759.03 1163.96 365.53 1396.58 376.91 1269.15 505.73 1178.33 647.68 1346.69 658.62
00005237 00000117 1004.38 77.44 557.23 759.01 1164.41 366.78 1396.41 377.59 1268.95 506.34 1179.04 648.66 1346.29 659.19
00005238 00000118 1007.04 78.60 554.81 758.26 1165.58 367.38 1397.03 379.21 1268.88 507.16 1178.42 649.11 1345.68 660.54
00005239 00000119 1007.68 76.05 555.02 763.45 1165.85 368.60 1397.07 380.38 1268.56 509.19 1178.37 651.64 1344.76 663.11
00005240 00000120 1008.27 77.92 555.42 768.51 1166.47 368.50 1397.13 380.88 1268.08 510.41 1178.02 654.39 1343.58 666.49
00005241 00000121 1009.10 76.54 555.18 772.02 1166.15 368.10 1397.20 380.86 1267.11 510.44 1176.82 654.84 1344.04 667.24
00005242 00000122 1009.95 76.09 555.65 774.16 1166.08 368.38 1397.08 381.04 1266.46 510.36 1175.72 654.81 1344.59 667.09
00005243 00000123 1011.57 77.38 555.01 773.73 1166.18 367.41 1397.52 380.39 1266.23 510.38 1175.11 653.89 1347.14 666.32
00005244 00000124 1012.31 78.36 555.41 773.23 1166.53 367.44 1398.05 381.13 1266.35 510.98 1174.24 653.17 1347.90 666.11
00005245 00000125 1013.19 80.00 554.54 772.23 1167.85 368.54 1398.02 382.44 1266.67 511.38 1174.51 652.54 1348.28 665.67
00005246 00000126 1013.68 81.14 554.26 769.89 1167.53 368.45 1398.00 382.82 1265.99 512.52 1174.36 651.45 1348.64 664.89
00005247 00000127 1015.28 82.87 553.12 764.68 1167.77 368.47 1397.39 383.37 1264.68 512.30 1174.35 649.66 1347.75 663.54
00005248 00000128 1016.90 81.43 552.82 761.34 1166.75 368.41 1397.28 382.99 1262.98 512.42 1173.75 649.31 1347.42 662.86
00005249 00000129 1017.52 85.25 550.99 753.04 1166.17 368.95 1396.04 384.16 1261.29 513.16 1173.59 646.68 1345.67 660.65
00005250 00000130 1018.03 86.59 548.78 748.15 1165.59 370.78 1395.87 386.62 1260.97 516.06 1173.37 646.55 1344.73 661.00
00005251 00000131 1018.43 86.78 548.74 744.86 1164.69 371.89 1396.38 387.70 1260.69 518.07 1173.65 646.92 1344.70 661.33
00005252 00000132 1020.59 85.96 547.15 744.70 1166.64 371.31 1397.20 387.76 1262.26 517.73 1175.31 645.81 1345.72 660.67
00005253 00000133 1021.40 89.83 547.26 741.18 1166.90 371.35 1398.22 388.40 1262.88 518.55 1175.58 646.05 1345.99 661.37
00005254 00000134 1023.44 91.30 545.75 739.69 1168.95 372.85 1399.57 389.00 1265.35 518.63 1177.38 647.34 1347.20 661.82
00005255 00000135 1023.87 91.80 545.83 739.32 1169.44 374.24 1400.39 389.69 1266.28 518.98 1177.83 648.56 1348.75 662.40
00005256 00000136 1025.07 92.24 546.65 739.73 1170.38 375.50 1401.95 391.30 1267.24 519.23 1178.42 649.67 1350.14 663.83
00005257 00000137 1025.02 92.00 547.80 743.19 1171.27 376.23 1403.03 391.19 1269.52 519.37 1179.24 651.14 1352.40 664.62
00005258 00000138 1025.92 90.43 549.79 746.87 1174.16 376.45 1405.64 391.84 1272.65 518.93 1181.03 651.45 1354.45 665.31
00005259 00000139 1029.38 79.82 549.81 761.03 1175.34 376.59 1409.82 401.01 1275.16 519.86 1180.04 651.23 1358.40 671.63
00005260 00000140 1031.20 80.77 549.77 758.50 1176.74 376.68 1412.98 400.65 1277.36 519.81 1182.18 650.94 1361.21 671.07
00005261 00000141 1027.69 89.00 553.48 745.16 1182.55 374.93 1420.51 391.70 1282.82 519.29 1187.81 646.19 1366.08 661.73
00005262 00000142 1031.20 93.31 553.51 740.86 1186.70 373.94 1424.22 390.62 1285.98 516.71 1190.87 645.09 1369.17 660.54
00005263 00000143 1034.79 93.35 553.00 742.21 1189.87 373.78 1428.09 391.16 1289.46 517.42 1193.31 645.07 1373.75 661.00
00005264 00000144 1040.66 79.91 552.46 760.88 1189.76 375.20 1424.06 397.62 1290.73 518.01 1195.20 647.97 1374.98 666.97
00005265 00000145 1040.73 77.91 553.01 766.15 1192.35 379.65 1427.25 401.29 1293.00 521.17 1195.91 649.83 1377.89 668.44
00005266 00000146 1043.72 85.51 549.36 758.48 1199.21 381.93 1430.84 404.31 1299.48 520.90 1201.05 648.13 1381.53 667.14
00005267 00000147 1045.54 82.27 550.80 762.62 1199.95 381.20 1432.96 403.02 1301.32 522.34 1202.63 649.16 1384.98 667.84
00005268 00000148 1046.46 82.00 553.05 762.07 1197.90 382.27 1433.75 400.67 1302.14 523.44 1205.35 652.22 1389.24 668.24
00005269 00000149 1049.14 80.37 550.86 767.24 1200.62 382.77 1437.16 401.09 1306.54 524.06 1208.39 654.41 1392.99 670.55
00005270 00000150 1051.09 89.07 547.95 745.59 1210.40 378.52 1449.35 395.23 1315.42 523.93 1215.92 650.24 1395.41 665.58
00005271 00000151 1053.16 86.79 549.00 749.36 1212.82 377.14 1451.86 394.27 1317.30 523.67 1218.27 650.46 1396.01 666.30
00005272 00000152 1054.60 84.53 550.74 753.92 1214.76 375.22 1453.27 392.89 1318.36 522.86 1220.15 650.72 1395.94 667.18
00005273 00000153 1056.38 87.46 553.59 754.67 1217.15 374.02 1454.79 391.70 1320.20 521.88 1222.79 652.13 1397.00 668.67
00005274 00000154 1059.11 90.14 553.30 749.16 1219.58 373.11 1456.05 391.39 1321.88 521.48 1224.59 649.42 1399.54 666.37
00005275 00000155 1061.15 89.07 552.68 752.40 1223.14 371.85 1457.28 390.14 1324.94 519.88 1226.07 646.71 1402.34 663.75
00005276 00000156 1063.37 89.77 553.49 751.08 1224.98 370.54 1458.32 388.27 1326.18 517.50 1227.48 645.19 1404.75 661.78
00005277 00000157 1065.31 88.44 551.99 749.10 1227.47 367.65 1458.81 386.70 1327.20 514.87 1229.78 641.17 1404.53 658.78
00005278 00000158 1067.24 86.63 551.29 747.91 1227.19 364.98 1458.55 384.42 1325.40 510.85 1229.90 637.93 1403.78 655.78
00005279 00000159 1067.22 81.22 552.20 750.19 1224.11 361.83 1457.47 381.22 1321.85 507.71 1228.91 635.32 1402.86 653.00
00005280 00000160 1068.19 76.69 550.74 752.39 1222.56 357.77 1455.86 377.32 1319.83 504.98 1228.71 632.20 1402.17 649.91
00005281 00000161 1067.49 78.93 550.77 746.75 1220.74 355.19 1454.69 376.05 1317.58 504.17 1226.56 629.59 1399.90 648.38
00005282 00000162 1066.25 84.15 550.33 740.63 1218.42 353.89 1451.25 373.98 1315.04 503.43 1226.08 628.88 1396.99 646.98
00005283 00000163 1064.04 80.92 552.68 741.52 1215.46 353.56 1449.32 373.44 1310.99 502.26 1224.33 628.26 1393.30 646.27
