Video ID: 	V9m6eaTPu2Q
H: 	1080
W: 	1920
FPS: 	23.976023976023978

FRAME INDEX X0 Y0 W H [Landmarks (5 Points)]

00003952 00000000 423.15 84.44 430.18 609.17 578.01 316.02 776.98 295.01 725.39 407.96 637.29 551.45 789.06 532.44
00003953 00000001 423.63 85.30 432.38 607.26 578.90 315.20 778.11 294.59 725.60 406.09 636.61 549.59 789.84 531.11
00003954 00000002 424.26 85.60 430.78 604.88 579.57 314.45 778.47 294.22 726.14 408.11 635.64 549.03 789.47 530.95
00003955 00000003 426.39 81.87 430.48 619.65 576.50 306.06 773.92 290.44 719.00 409.46 633.22 548.01 790.99 533.73
00003956 00000004 422.22 86.08 433.37 613.35 575.42 313.85 776.48 294.19 722.53 411.01 625.41 547.35 792.10 530.16
00003957 00000005 420.40 85.08 433.92 613.87 573.08 313.14 774.31 294.65 719.69 411.09 621.83 545.98 789.17 529.78
00003958 00000006 416.20 83.68 435.57 614.30 570.54 313.08 770.67 295.12 715.68 411.51 618.57 544.41 784.41 528.40
00003959 00000007 412.02 80.80 435.92 616.14 565.39 313.92 766.87 296.46 710.34 411.74 614.03 543.84 779.59 527.91
00003960 00000008 408.85 78.95 435.20 618.13 561.25 314.68 763.85 297.20 705.53 412.21 612.24 546.59 773.78 530.42
00003961 00000009 406.13 78.58 432.24 614.73 557.45 316.01 758.44 297.94 701.36 412.82 614.48 548.59 766.95 531.97
00003962 00000010 402.62 79.11 430.82 621.51 553.40 317.43 752.73 300.22 696.97 413.42 611.73 551.82 762.61 536.09
00003963 00000011 398.70 79.33 429.16 626.85 547.42 321.66 743.14 303.05 689.92 417.36 608.56 558.42 755.42 541.54
00003964 DELETE   387.57 90.31 435.94 615.33 534.98 329.69 727.07 314.74 670.71 422.14 589.42 558.75 736.71 545.65
00003965 DELETE   378.78 93.25 435.17 611.50 509.07 336.45 710.00 317.35 640.22 426.16 567.12 565.31 717.03 549.86
00003966 00000014 368.05 104.71 436.63 602.31 493.69 340.06 695.11 324.07 614.02 436.84 548.98 567.60 695.82 555.20
00003967 00000015 362.07 110.04 436.39 604.73 484.41 345.92 690.87 329.72 605.22 447.76 538.39 575.06 694.34 562.55
00003968 00000016 358.42 118.52 440.24 603.76 479.73 352.17 687.51 333.27 600.75 451.29 536.39 582.60 691.76 568.07
00003969 00000017 358.22 122.23 439.91 610.98 479.58 360.65 682.22 338.75 600.52 455.74 539.60 591.85 690.63 574.96
00003970 00000018 357.74 131.33 441.61 612.11 478.51 370.17 682.44 344.56 599.29 465.25 539.49 599.16 696.83 578.97
00003971 00000019 368.75 144.06 435.80 609.09 484.08 367.82 695.51 343.09 611.60 465.29 545.81 606.08 701.26 583.89
00003972 00000020 374.35 149.35 437.69 610.89 490.88 372.50 699.87 346.87 618.43 472.63 556.68 614.79 705.19 592.00
00003973 00000021 384.68 154.61 436.10 612.38 497.99 377.39 704.16 350.76 625.75 482.01 567.00 621.98 713.70 598.93
00003974 00000022 394.83 157.71 439.45 618.29 509.35 385.77 713.16 359.30 637.19 487.92 580.81 633.48 725.61 609.90
00003975 00000023 403.62 164.76 443.24 620.70 526.38 396.25 724.41 372.65 653.90 493.01 594.24 640.05 736.26 618.58
00003976 00000024 425.44 169.29 437.90 618.30 544.24 408.47 744.51 385.99 665.25 502.61 607.09 640.47 750.17 622.04
00003977 00000025 436.88 175.88 434.56 606.37 552.49 408.86 759.99 386.38 674.13 509.50 615.62 643.32 763.85 625.05
00003978 00000026 437.53 179.35 432.35 602.55 553.12 411.74 761.22 391.50 673.65 514.04 613.28 643.84 763.95 627.67
00003979 00000027 440.58 179.19 433.09 597.57 557.33 411.93 764.08 390.58 678.11 513.45 620.43 643.87 768.78 626.46
00003980 00000028 445.99 184.63 438.39 597.15 562.98 414.97 770.96 392.15 685.48 515.81 625.01 645.02 779.93 626.66
00003981 00000029 446.62 188.03 442.32 596.83 563.84 416.76 773.62 395.61 686.67 517.81 622.57 644.13 784.06 626.88
00003982 00000030 448.44 191.63 441.09 595.29 565.46 417.71 773.37 398.92 687.20 519.21 621.89 645.67 781.55 630.58
00003983 00000031 446.79 191.76 439.58 601.92 566.96 415.21 769.48 396.75 686.16 513.67 624.52 650.33 771.59 636.19
00003984 00000032 458.33 202.38 431.77 601.19 577.57 414.28 774.81 388.41 702.75 504.29 639.13 657.33 773.46 634.09
00003985 DELETE   472.51 202.11 433.26 602.22 594.11 419.53 792.72 396.55 717.21 505.48 649.09 657.80 787.44 635.91
00003986 DELETE   476.76 205.58 429.15 599.38 600.54 425.52 798.90 406.27 723.84 517.78 655.84 664.86 791.65 645.80
00003987 DELETE   481.74 217.46 423.66 595.84 604.51 435.75 802.92 418.96 728.18 532.69 659.75 676.27 797.58 659.55
00003988 00000036 486.04 220.66 419.42 600.46 607.34 440.30 806.01 427.78 726.40 547.16 655.77 676.84 800.42 663.86
00003989 00000037 485.67 218.07 419.41 604.64 606.89 441.25 804.66 428.69 727.63 547.77 651.87 673.73 803.31 660.99
00003990 00000038 479.73 218.10 423.78 601.07 599.96 436.72 802.07 424.43 723.79 541.75 644.07 667.76 802.28 655.42
00003991 00000039 475.11 215.28 428.09 596.11 596.04 429.70 798.22 415.05 719.55 530.90 641.49 658.14 798.40 643.43
00003992 00000040 475.08 208.44 431.24 595.77 596.47 423.49 800.10 405.04 720.75 521.79 646.89 653.91 801.49 635.52
00003993 00000041 473.77 207.59 430.52 583.16 595.15 419.27 798.37 401.36 717.76 517.68 648.28 651.90 794.68 634.18
00003994 00000042 467.78 207.49 426.67 586.16 583.95 417.42 788.75 400.04 706.46 517.31 636.89 653.02 784.31 636.25
00003995 00000043 466.67 210.73 424.63 584.96 580.16 418.19 784.18 401.37 701.05 519.35 631.26 654.65 779.54 638.88
00003996 00000044 463.58 212.72 425.93 584.26 574.21 421.75 777.44 405.12 692.55 520.62 623.76 656.04 772.99 640.91
00003997 00000045 456.85 219.07 420.66 577.18 565.50 422.99 768.39 407.61 678.56 524.57 612.87 654.90 760.87 641.57
00003998 00000046 446.11 203.01 430.36 584.98 556.87 422.67 761.95 407.06 667.87 522.48 607.66 647.22 764.15 635.24
00003999 00000047 446.09 198.02 427.53 588.90 553.26 420.46 758.85 405.50 661.61 515.60 601.26 644.33 758.87 632.94
00004000 00000048 439.47 193.73 424.82 587.42 548.66 417.26 753.59 404.21 659.93 507.71 595.85 640.78 751.22 631.14
00004001 00000049 435.41 194.66 424.33 584.31 545.74 416.34 746.68 401.82 656.86 501.01 595.82 638.05 746.16 626.93
00004002 00000050 435.15 191.65 425.49 585.90 546.83 413.73 745.10 397.48 658.49 494.81 597.87 634.93 745.05 622.47
00004003 00000051 431.64 193.37 426.39 591.74 545.02 413.14 742.16 396.82 658.21 490.30 596.10 636.99 740.12 624.74
00004004 00000052 434.69 200.45 416.68 585.40 542.42 417.69 734.22 382.29 659.09 480.08 596.07 646.88 734.94 617.37
00004005 00000053 436.03 200.88 420.72 584.97 543.72 415.81 735.40 378.00 659.62 480.22 599.84 646.15 737.17 614.62
00004006 00000054 437.71 201.84 419.06 584.11 544.08 417.65 734.53 380.04 658.44 480.72 598.95 646.79 736.47 615.65
00004007 00000055 433.31 204.91 415.07 581.15 540.92 419.81 730.46 384.53 655.51 484.85 594.34 649.40 728.30 620.10
00004008 00000056 436.48 205.49 414.72 581.61 540.10 426.34 731.29 388.26 655.54 490.59 596.09 655.17 733.46 623.57
00004009 00000057 439.51 206.67 415.27 578.48 540.17 430.67 734.50 391.54 656.44 500.85 596.88 656.64 740.58 623.31
00004010 00000058 440.82 208.72 418.43 578.30 539.64 432.46 734.53 396.34 653.45 508.52 594.53 654.92 742.62 623.32
00004011 00000059 440.56 211.27 420.68 573.66 538.72 435.64 734.68 402.33 650.72 515.40 590.84 653.46 744.75 623.71
00004012 00000060 439.96 212.11 418.57 571.03 537.30 438.51 732.82 406.57 647.38 520.70 589.82 657.57 741.91 629.10
00004013 00000061 438.00 213.94 415.50 570.76 537.12 440.00 731.92 410.19 646.67 524.42 588.09 659.59 739.93 633.16
00004014 00000062 436.82 218.76 416.81 571.86 537.26 441.71 732.82 412.54 647.96 526.94 588.44 662.55 741.58 636.66
00004015 00000063 436.12 221.78 416.24 570.01 537.19 443.19 733.45 414.91 647.73 529.98 588.15 664.65 741.41 639.37
00004016 00000064 435.49 224.00 415.94 569.82 536.95 443.48 733.31 416.28 647.77 530.55 586.90 664.53 741.17 640.09
00004017 00000065 436.55 223.37 414.07 570.57 537.63 443.87 733.40 416.98 647.68 531.10 586.24 664.03 740.85 639.95
00004018 00000066 436.85 223.14 412.58 569.12 538.86 443.27 733.71 417.59 649.06 532.15 587.22 663.65 740.12 640.65
00004019 00000067 437.89 222.12 412.02 567.95 540.22 443.30 734.43 417.64 650.38 532.14 588.48 662.79 740.83 639.80
00004020 00000068 437.98 221.60 411.62 566.34 540.73 443.74 734.49 417.53 651.39 531.95 589.33 662.45 741.15 639.01
00004021 00000069 440.65 222.62 409.99 563.68 544.48 443.36 736.16 418.18 654.75 533.30 591.81 659.59 743.90 636.76
00004022 00000070 443.26 222.18 408.55 563.90 551.08 442.88 742.41 417.24 665.03 532.14 598.98 659.76 750.06 636.36
00004023 00000071 444.05 224.53 411.33 568.16 557.98 444.34 748.12 418.38 673.16 532.27 606.09 660.65 756.21 636.92
00004024 00000072 442.56 233.02 410.28 576.96 564.89 451.98 754.54 431.40 682.68 546.91 610.91 670.38 760.90 651.49
00004025 00000073 438.24 240.42 411.49 576.74 561.91 458.23 754.00 439.77 680.74 558.74 607.85 677.21 759.16 660.26
00004026 00000074 432.52 241.17 406.96 576.73 553.62 463.52 740.14 446.74 670.01 564.34 603.02 681.83 745.49 666.92
00004027 DELETE   423.54 247.31 406.86 571.32 541.43 464.29 724.96 449.89 651.74 556.87 589.85 682.56 725.19 669.68
00004028 DELETE   408.93 243.58 414.23 575.78 516.13 455.80 706.06 439.48 625.21 555.62 572.62 684.17 705.16 669.72
00004029 00000077 404.22 238.93 414.37 581.30 506.03 451.84 700.00 436.50 616.54 556.83 559.98 683.58 699.31 670.36
00004030 00000078 404.09 238.48 414.49 580.31 501.85 451.82 698.49 435.06 612.56 556.59 556.16 681.38 701.87 666.69
00004031 00000079 403.55 239.44 414.84 580.45 502.97 454.22 697.46 435.96 613.98 558.12 557.77 680.10 705.62 664.15
00004032 00000080 402.95 242.28 415.32 579.45 502.91 455.49 697.75 437.19 613.85 558.19 557.22 679.76 708.56 663.56
00004033 00000081 400.72 243.70 415.99 580.61 500.20 458.87 696.83 438.63 612.57 559.37 553.77 680.72 711.57 662.91
00004034 00000082 399.27 248.82 415.49 573.13 498.60 461.47 696.71 441.43 611.41 560.54 553.69 683.05 710.41 665.59
00004035 00000083 398.54 252.25 413.55 566.82 497.62 463.96 695.70 444.35 610.46 563.58 553.08 684.59 707.07 667.82
00004036 00000084 395.10 253.72 413.15 564.49 493.48 467.65 692.79 448.28 604.93 565.74 546.62 684.89 704.11 668.58
00004037 00000085 391.48 252.44 410.19 564.16 489.84 469.37 689.36 450.66 600.43 565.09 543.45 686.59 697.93 670.73
00004038 00000086 387.40 253.47 406.90 565.03 486.81 468.88 684.93 452.27 596.36 564.01 539.37 689.39 688.05 675.02
00004039 00000087 382.79 257.05 408.51 562.75 482.89 471.99 679.29 456.58 590.70 566.80 534.10 690.42 682.54 677.29
00004040 00000088 375.77 261.37 409.65 554.69 478.47 475.53 672.94 460.92 584.00 567.87 528.05 690.74 671.90 678.86
00004041 00000089 374.10 266.71 400.32 549.67 477.50 480.57 664.74 464.13 579.58 573.93 522.65 693.24 661.40 679.98
00004042 00000090 377.45 266.83 393.78 552.42 469.80 484.93 662.33 462.16 576.27 576.45 515.58 705.65 655.18 685.67
00004043 00000091 376.30 272.77 393.00 552.52 467.72 489.92 659.32 467.62 572.63 582.22 512.72 711.48 650.71 691.96
00004044 00000092 371.58 279.12 397.53 555.85 463.68 495.40 653.95 473.79 569.68 590.71 509.99 717.16 644.61 698.57
00004045 00000093 371.27 284.10 395.24 559.85 461.02 501.37 651.42 481.14 565.05 596.25 506.62 723.78 644.14 706.41
00004046 00000094 372.73 290.01 391.95 559.87 462.18 505.04 653.49 488.75 562.34 601.24 504.77 729.24 641.99 714.92
00004047 00000095 372.52 291.75 394.21 562.76 465.22 508.67 658.30 493.49 567.29 606.86 508.54 733.58 648.84 719.62
00004048 00000096 372.10 295.21 394.50 561.04 468.52 513.39 660.65 499.45 572.37 612.06 513.02 737.18 651.53 724.24
00004049 00000097 371.20 294.44 393.59 556.99 468.12 512.75 660.36 498.11 573.20 611.27 513.83 735.72 651.08 722.05
00004050 00000098 369.33 295.40 395.48 553.18 468.01 512.75 658.01 495.05 573.40 607.12 515.52 732.58 650.11 716.12
00004051 00000099 369.06 296.12 395.98 552.47 467.47 514.59 657.57 495.38 573.25 607.12 516.63 734.12 652.75 716.47
00004052 00000100 368.01 298.11 397.51 554.02 468.08 515.39 658.27 496.43 574.84 608.59 516.17 733.21 655.95 715.67
00004053 00000101 367.63 303.11 402.06 557.24 472.65 513.56 660.74 496.58 579.33 610.31 516.86 731.16 658.73 715.34
00004054 00000102 369.87 306.68 403.96 558.48 478.45 514.28 666.42 498.13 586.66 613.06 520.04 731.41 667.35 716.33
00004055 00000103 374.80 308.89 402.78 561.98 486.80 515.31 676.02 497.58 598.71 611.36 526.53 732.03 680.47 715.67
00004056 00000104 376.83 311.20 402.69 562.30 493.39 517.39 682.11 498.38 610.26 610.99 533.89 733.45 687.66 716.17
00004057 00000105 379.06 312.92 401.14 555.50 497.32 517.79 685.61 498.75 615.15 610.06 540.82 734.44 689.67 717.18
00004058 00000106 378.26 311.64 400.10 552.55 496.43 517.35 685.70 498.22 614.68 608.27 542.94 738.01 687.33 720.55
00004059 00000107 376.50 310.42 399.02 553.45 496.56 517.64 684.67 497.12 617.65 606.62 545.25 739.17 687.34 720.75
00004060 00000108 377.23 310.80 395.57 550.91 498.15 523.71 683.51 502.91 619.25 606.92 546.98 740.02 686.86 721.72
00004061 00000109 377.37 312.61 395.20 550.85 499.08 525.77 683.66 506.10 619.79 609.68 547.54 740.61 687.05 723.35
00004062 00000110 376.63 315.96 397.93 550.31 500.30 526.15 683.85 508.55 621.30 614.86 548.33 739.62 687.92 723.91
00004063 00000111 378.46 315.20 396.26 549.10 502.14 525.85 686.01 508.49 622.96 612.51 548.48 737.88 689.44 722.48
00004064 00000112 379.52 316.70 395.89 549.70 505.64 525.87 688.36 509.75 627.04 612.63 552.54 739.02 690.72 724.86
00004065 00000113 381.10 320.53 396.28 555.43 505.80 526.01 689.59 510.31 627.61 612.04 553.99 743.68 692.56 729.98
00004066 00000114 381.59 320.39 394.99 556.26 505.44 525.80 689.10 510.40 626.68 611.75 553.79 744.84 691.56 731.55
00004067 00000115 381.34 318.95 394.87 553.65 505.50 527.72 689.18 511.10 627.01 609.64 551.91 741.44 692.74 727.07
00004068 00000116 379.16 318.73 394.66 547.54 502.74 527.36 683.95 509.33 624.68 607.64 548.81 735.03 691.69 719.32
00004069 00000117 377.50 316.19 395.57 543.87 501.77 527.06 682.62 508.59 624.01 604.06 547.27 730.37 691.51 714.17
00004070 00000118 375.88 311.49 395.88 543.67 498.84 526.37 680.87 505.57 621.61 599.68 545.19 729.59 689.57 711.40
00004071 00000119 372.44 310.93 395.63 545.60 496.10 526.36 676.37 503.65 618.75 599.03 544.39 732.30 683.66 712.62
00004072 00000120 369.13 309.90 398.03 545.33 492.73 526.86 670.75 503.79 613.61 599.39 542.79 731.17 679.42 711.22
00004073 00000121 365.12 309.99 400.23 550.03 489.33 526.84 667.17 505.27 608.55 605.16 540.32 733.28 675.67 714.33
00004074 00000122 364.56 309.97 398.97 555.31 487.01 526.51 666.15 506.17 605.63 610.16 537.88 736.55 675.12 718.61
00004075 00000123 362.44 311.94 399.94 556.46 484.76 525.44 667.51 506.28 605.60 610.75 533.08 736.20 676.48 719.31
00004076 00000124 360.94 312.05 398.89 554.18 482.41 524.50 666.46 506.90 603.02 608.32 528.52 733.44 675.07 717.75
00004077 00000125 360.63 307.58 396.62 551.86 482.95 521.40 667.10 504.35 603.95 603.48 529.28 730.64 673.73 715.27
00004078 00000126 359.92 305.24 394.97 550.69 484.69 519.44 664.92 500.68 605.68 599.64 532.41 728.56 671.45 711.89
00004079 00000127 363.03 300.59 393.45 550.89 491.33 516.39 673.31 497.10 615.33 596.26 537.67 726.15 677.67 709.10
00004080 00000128 366.93 300.21 395.82 549.04 502.03 512.86 683.42 492.25 630.50 592.51 545.91 722.11 686.21 704.29
00004081 00000129 373.48 305.29 396.57 548.22 512.52 507.85 694.93 484.02 645.17 588.09 558.97 723.20 702.53 702.30
00004082 00000130 384.93 308.64 391.22 542.31 523.42 508.80 705.32 485.89 659.27 584.84 572.04 720.08 716.46 700.24
00004083 00000131 390.14 308.59 388.81 543.15 532.24 511.85 712.62 489.47 668.79 588.09 578.60 722.27 722.77 703.44
00004084 00000132 391.32 298.16 388.71 557.32 536.97 503.91 714.46 489.77 670.19 592.74 588.17 719.54 719.61 707.15
00004085 00000133 393.72 297.12 388.51 555.47 537.34 499.23 716.13 484.60 670.35 591.07 590.66 718.05 719.66 704.93
00004086 00000134 393.77 297.97 390.07 546.98 537.13 489.45 713.89 473.47 670.34 584.50 592.13 709.72 718.31 694.87
00004087 00000135 392.06 293.90 389.61 546.64 538.02 484.94 712.39 471.85 669.27 577.62 590.56 701.34 716.79 688.89
00004088 00000136 389.27 293.15 391.47 541.91 536.96 480.90 711.73 468.66 667.35 574.15 586.93 696.34 714.94 684.38
00004089 00000137 388.70 291.37 393.84 548.23 536.32 479.98 711.99 467.10 666.60 573.52 585.49 696.93 715.37 684.57
00004090 00000138 389.91 291.00 390.60 549.34 535.20 478.61 711.08 465.92 666.28 574.34 587.24 700.80 714.75 688.53
00004091 00000139 390.75 290.23 387.33 555.25 532.94 479.03 711.09 466.54 665.67 578.77 586.91 708.55 713.05 696.60
00004092 00000140 389.23 304.28 385.06 538.03 526.61 492.77 706.87 475.30 658.08 579.89 573.23 714.77 710.65 699.22
00004093 00000141 386.21 304.62 388.59 539.72 523.11 496.44 705.51 477.13 654.95 585.09 570.74 718.68 708.53 701.65
CROP_BBOX: 73 0 1190 1036
