Video ID: 	4AI_ErLFpLc
H: 	1080
W: 	1920
FPS: 	23.976023976023978

FRAME INDEX X0 Y0 W H [Landmarks (5 Points)]

00032319 00000000 920.22 216.22 335.30 535.25 961.60 426.89 1076.96 413.12 970.99 513.18 989.18 619.40 1079.78 610.79
00032320 00000001 924.63 229.09 330.22 519.91 964.66 430.48 1086.05 428.24 979.73 519.16 989.56 615.70 1081.03 611.93
00032321 00000002 924.82 228.21 334.30 519.75 965.20 432.38 1091.68 433.58 984.48 527.47 987.61 616.18 1085.61 615.44
00032322 00000003 925.31 226.92 335.84 519.37 967.54 431.70 1096.09 433.89 988.50 527.86 988.17 613.95 1089.32 614.00
00032323 00000004 926.29 224.23 337.38 519.11 968.86 428.94 1097.82 430.91 990.49 523.88 988.99 611.08 1089.80 611.06
00032324 DELETE   926.07 224.08 338.32 517.52 969.45 428.16 1098.43 429.10 991.43 521.94 989.54 610.28 1089.79 609.45
00032325 00000006 925.91 221.28 336.55 518.71 969.80 427.76 1099.51 428.07 991.97 520.20 989.81 608.48 1090.70 607.22
00032326 00000007 925.55 222.47 336.22 516.64 969.18 428.16 1098.75 426.47 991.78 516.76 991.39 607.85 1090.71 604.92
00032327 00000008 925.46 218.81 336.48 519.37 970.12 427.19 1099.03 426.09 990.22 513.14 991.50 605.66 1089.72 603.26
00032328 00000009 926.16 219.60 336.37 517.06 971.03 425.43 1099.26 422.63 990.66 509.36 991.91 602.97 1089.86 599.23
00032329 00000010 926.36 212.48 338.66 521.96 971.08 420.81 1100.13 416.19 990.21 503.95 990.23 599.81 1089.14 594.94
00032330 00000011 925.48 208.17 341.54 522.21 971.40 415.97 1101.31 411.14 990.37 501.76 988.87 597.74 1087.47 593.21
00032331 00000012 926.27 206.90 341.06 520.07 972.83 415.43 1102.97 408.03 992.83 495.95 989.66 596.05 1088.15 589.65
00032332 00000013 928.39 195.78 341.98 525.25 975.34 411.46 1102.64 403.66 1001.14 501.35 995.78 597.03 1096.60 591.32
00032333 00000014 928.35 202.83 342.96 521.32 974.76 411.93 1106.68 405.66 997.34 496.27 989.34 592.74 1093.79 587.38
00032334 00000015 929.23 201.60 345.50 522.84 976.03 410.28 1107.97 404.49 998.93 496.02 990.12 591.92 1094.69 587.05
00032335 00000016 930.26 201.57 345.17 525.57 976.77 410.47 1108.42 404.05 1000.11 495.62 992.11 593.56 1095.34 588.01
00032336 00000017 931.42 203.17 344.04 523.33 977.09 410.07 1109.23 404.15 1000.90 496.17 992.23 592.79 1096.67 587.55
00032337 00000018 930.99 201.70 343.42 520.15 976.21 410.13 1109.72 404.27 1001.24 497.09 990.67 591.84 1096.10 586.89
00032338 00000019 930.17 201.64 344.72 517.05 974.03 409.68 1109.66 404.16 998.89 498.56 987.91 590.67 1096.00 586.25
00032339 00000020 928.09 201.63 345.53 519.15 973.01 411.39 1107.86 406.09 997.27 499.21 987.85 591.69 1093.49 587.35
00032340 00000021 927.05 205.33 343.58 521.41 972.71 413.52 1105.28 408.12 996.06 500.32 990.12 595.68 1090.07 590.95
00032341 00000022 926.14 209.11 342.50 525.30 971.51 417.18 1103.02 411.20 994.29 503.69 993.80 601.56 1089.42 595.94
00032342 00000023 925.53 215.45 340.33 520.94 970.03 418.65 1100.70 414.85 993.11 507.12 991.73 602.83 1086.66 598.88
00032343 00000024 922.69 215.72 340.54 519.63 969.28 420.57 1098.54 416.34 990.40 504.86 990.45 601.69 1083.78 597.27
00032344 00000025 920.49 215.44 342.55 518.68 969.17 420.34 1097.35 414.80 989.60 502.05 989.73 598.86 1083.63 593.34
00032345 00000026 920.19 213.50 345.16 517.05 967.87 417.16 1098.21 411.71 988.25 501.52 985.92 594.06 1087.60 588.63
00032346 00000027 923.13 202.51 344.84 519.24 967.69 414.08 1096.09 405.46 994.76 503.90 989.59 594.15 1091.58 587.40
00032347 00000028 924.49 198.93 343.87 521.21 970.00 412.34 1098.44 403.85 996.89 500.56 990.25 593.05 1092.98 586.70
00032348 00000029 925.88 200.54 343.74 517.28 971.78 410.86 1099.34 403.71 998.28 500.01 991.73 590.67 1095.54 585.33
00032349 00000030 926.42 200.34 344.62 517.94 973.20 410.82 1099.95 403.89 999.65 500.30 993.48 590.62 1096.79 585.44
00032350 00000031 927.66 198.64 344.12 521.26 973.95 411.20 1101.15 403.33 1001.09 499.45 994.38 592.97 1097.17 587.22
00032351 00000032 926.75 205.03 344.91 517.99 973.15 412.45 1105.40 405.07 995.92 496.39 988.89 591.79 1093.61 585.54
00032352 00000033 927.37 205.66 344.50 516.33 973.61 411.81 1105.66 403.94 997.52 497.38 990.55 592.84 1093.63 586.32
00032353 00000034 928.05 204.79 344.68 517.55 974.61 411.50 1106.53 404.39 998.59 497.11 991.17 592.72 1093.40 586.82
00032354 00000035 927.93 205.01 344.98 518.24 975.36 410.31 1107.31 403.76 999.51 496.58 992.10 592.16 1093.80 586.65
00032355 00000036 927.25 205.72 345.61 521.12 976.12 409.85 1107.10 403.03 999.65 494.94 993.00 592.95 1093.66 586.99
00032356 00000037 927.84 200.32 344.30 524.31 975.22 408.98 1102.70 400.47 1001.33 498.60 997.78 597.13 1099.70 590.76
00032357 00000038 929.38 202.20 340.50 531.30 975.08 410.40 1103.20 401.54 1000.02 498.71 997.90 601.11 1102.17 594.36
00032358 00000039 929.67 210.74 340.41 528.52 975.33 413.88 1107.05 404.30 999.17 496.41 996.47 600.72 1101.58 591.52
00032359 00000040 929.91 208.95 342.32 530.94 976.51 411.45 1108.51 402.39 1000.20 494.20 996.32 599.60 1101.19 591.06
00032360 00000041 932.72 194.69 343.44 537.13 977.92 401.86 1109.14 397.00 1002.15 493.75 997.68 597.53 1103.45 594.50
00032361 00000042 932.55 188.43 343.84 536.88 979.62 399.26 1111.14 396.00 1003.49 491.30 997.09 592.98 1104.71 591.35
00032362 00000043 931.48 188.40 344.45 535.04 978.75 398.49 1110.35 394.18 1003.42 489.33 995.54 592.83 1101.79 590.38
00032363 00000044 930.21 190.04 342.17 534.59 976.92 398.62 1108.46 391.50 1003.40 487.65 994.22 593.83 1096.53 589.29
00032364 00000045 931.75 197.13 335.89 526.91 974.15 395.99 1106.42 390.75 991.77 478.04 989.63 590.94 1090.27 587.35
00032365 DELETE   931.06 199.18 336.89 519.88 973.31 385.46 1107.62 383.33 991.43 470.24 986.43 583.34 1087.08 582.82
00032366 00000047 931.03 194.20 341.25 520.04 975.82 381.04 1112.21 379.04 995.05 463.01 988.57 578.99 1088.98 578.97
00032367 00000048 930.48 185.50 342.51 526.81 980.17 382.67 1107.52 373.01 1005.90 462.33 994.97 580.24 1085.74 573.28
00032368 00000049 933.91 186.43 341.81 525.93 981.30 383.28 1107.56 375.85 1004.39 467.17 996.22 581.56 1088.56 576.55
00032369 00000050 937.15 188.54 344.78 520.99 985.23 384.26 1112.75 379.52 1008.39 468.26 998.48 579.63 1096.99 576.96
00032370 00000051 939.79 187.24 344.35 519.86 988.34 382.36 1114.37 378.05 1010.33 465.32 1000.55 574.69 1099.34 572.53
00032371 00000052 941.01 187.61 346.60 511.69 990.57 376.18 1119.36 373.65 1011.23 455.23 999.82 563.05 1104.45 562.05
00032372 DELETE   943.36 185.64 346.50 507.25 992.68 371.95 1124.30 368.90 1014.61 447.17 998.82 555.00 1107.57 553.79
00032373 DELETE   943.86 187.51 347.21 502.08 993.87 372.50 1124.68 367.88 1016.37 444.06 1000.86 552.16 1109.75 549.49
00032374 DELETE   944.85 188.16 345.16 501.89 993.53 374.03 1123.88 367.90 1016.46 444.58 1001.76 554.73 1107.86 550.89
00032375 00000056 942.13 185.58 343.85 506.74 990.05 375.77 1116.65 368.58 1012.41 447.60 1000.63 559.91 1099.08 555.30
00032376 DELETE   937.00 186.59 342.44 502.06 985.14 387.43 1112.23 371.22 998.71 446.28 994.73 562.40 1091.47 550.52
00032377 DELETE   934.46 186.26 341.76 500.98 981.49 388.33 1109.34 374.09 995.33 452.11 988.75 562.09 1088.72 551.75
00032378 00000059 932.92 187.86 340.52 501.96 979.23 388.61 1107.75 375.05 992.47 453.01 985.48 563.20 1085.18 553.37
00032379 DELETE   932.33 189.13 340.96 503.44 979.84 392.51 1105.90 375.78 993.11 452.13 987.93 566.21 1082.24 553.67
00032380 DELETE   931.10 182.67 342.51 521.43 979.22 389.87 1099.60 376.62 999.17 461.88 994.32 578.85 1082.58 568.93
00032381 00000062 927.91 185.10 340.91 523.86 976.51 394.39 1094.36 381.73 994.96 467.10 993.33 581.44 1081.40 571.90
00032382 00000063 929.30 187.91 339.59 526.21 963.02 399.13 1093.82 384.99 978.57 473.28 985.13 585.26 1094.98 574.99
00032383 DELETE   925.40 192.15 341.48 525.70 957.47 400.39 1088.95 387.22 971.74 477.16 979.58 586.84 1091.04 577.36
00032384 00000065 921.27 188.62 343.84 532.78 953.38 403.41 1085.89 390.29 968.34 480.42 975.02 588.99 1086.98 579.62
00032385 00000066 916.67 192.01 342.02 531.56 947.76 405.32 1081.21 392.52 964.49 482.19 969.74 590.63 1079.54 581.47
00032386 00000067 912.24 192.38 342.67 531.85 942.04 409.00 1075.40 394.47 961.53 484.66 965.97 593.27 1074.07 582.83
00032387 00000068 909.96 190.49 344.75 530.52 949.11 411.93 1072.12 400.67 970.23 493.33 970.04 592.63 1076.54 585.19
00032388 00000069 909.09 191.14 343.71 530.73 947.55 413.20 1068.31 401.71 967.50 495.63 969.82 594.20 1074.22 586.53
00032389 00000070 909.23 193.84 341.75 528.22 948.28 414.68 1067.37 404.45 966.55 497.61 970.67 594.77 1073.46 588.14
00032390 00000071 907.94 196.57 341.99 526.35 947.46 415.25 1066.20 404.75 965.68 497.91 970.38 596.61 1071.43 589.95
00032391 00000072 909.17 196.53 340.89 527.68 947.65 415.86 1067.08 405.66 965.65 499.97 970.63 597.80 1072.39 591.30
00032392 00000073 909.22 196.32 341.72 528.51 947.93 416.85 1067.99 406.15 966.45 500.03 971.01 598.93 1072.68 592.04
00032393 00000074 910.67 195.49 340.15 530.49 948.71 417.03 1069.20 406.48 966.67 499.75 971.33 599.60 1073.05 592.80
00032394 00000075 911.47 195.57 341.51 529.69 948.68 417.53 1069.77 406.91 966.35 500.65 971.37 599.53 1073.64 592.62
00032395 00000076 912.41 196.48 340.79 528.68 949.31 418.75 1071.36 408.52 967.56 501.79 971.34 599.67 1074.12 593.16
00032396 00000077 913.73 198.39 340.61 526.60 950.48 418.85 1072.12 408.56 968.59 502.24 971.98 599.16 1074.56 592.75
00032397 00000078 914.18 197.90 340.57 525.96 950.64 418.15 1072.53 408.17 968.85 501.91 972.35 597.74 1075.12 591.56
00032398 00000079 916.93 192.52 342.41 533.88 953.28 419.13 1076.63 408.00 971.91 493.45 975.58 599.09 1071.58 589.40
00032399 00000080 918.44 190.46 341.64 535.17 955.06 417.92 1077.20 406.74 972.92 492.16 976.98 598.29 1072.33 588.75
00032400 00000081 918.74 189.95 342.39 534.33 956.72 417.33 1078.99 406.21 975.18 490.53 977.88 596.58 1074.06 587.25
00032401 DELETE   922.46 193.52 338.37 525.26 956.31 417.67 1084.86 406.36 978.97 494.07 974.99 592.72 1084.86 585.42
00032402 00000083 922.22 192.15 340.57 529.33 960.82 417.57 1085.47 404.24 982.82 486.00 980.12 595.32 1077.64 584.62
00032403 00000084 922.73 196.07 340.42 522.61 958.32 415.64 1085.75 401.60 982.67 493.05 978.87 591.05 1087.74 581.66
00032404 00000085 923.50 195.54 341.35 522.60 959.30 414.28 1087.54 400.65 982.85 493.46 980.02 590.14 1089.88 580.98
00032405 00000086 924.10 196.84 341.82 522.92 960.21 411.23 1088.41 397.58 982.80 492.56 981.55 589.73 1092.37 580.33
00032406 00000087 924.72 193.40 341.43 528.91 966.37 410.89 1086.98 398.46 981.61 484.13 986.08 590.75 1085.50 580.74
00032407 00000088 925.90 196.13 339.75 527.54 966.39 409.75 1087.19 397.17 981.45 484.32 987.73 590.76 1088.03 580.50
00032408 00000089 926.96 199.11 340.13 525.31 961.36 408.28 1090.33 392.64 983.93 491.11 985.09 589.90 1098.64 578.42
00032409 00000090 925.62 199.14 339.54 525.80 966.23 408.68 1086.93 396.27 980.52 484.77 988.33 590.52 1089.42 580.24
00032410 00000091 925.56 199.72 339.98 525.95 966.18 408.74 1087.35 396.69 981.06 485.40 988.15 590.16 1090.20 580.15
00032411 00000092 926.37 199.69 341.52 526.86 962.08 408.92 1091.99 393.19 986.04 492.24 985.45 589.38 1101.52 577.75
00032412 00000093 925.60 198.92 341.66 527.58 968.46 409.62 1091.76 398.55 984.61 487.45 989.02 590.51 1093.68 581.40
00032413 00000094 927.15 199.14 342.08 528.91 965.46 410.38 1098.71 395.55 992.64 495.04 987.38 590.03 1106.12 579.20
00032414 00000095 926.84 195.58 342.19 531.46 970.35 411.24 1094.70 401.22 988.00 490.49 990.66 590.98 1096.13 582.95
00032415 00000096 927.00 197.09 342.95 527.56 970.28 411.23 1094.60 402.46 987.19 491.57 989.21 589.08 1095.74 581.94
00032416 00000097 926.37 196.96 343.78 523.79 969.80 411.30 1092.25 403.60 986.15 492.35 988.07 587.11 1094.53 580.71
00032417 00000098 925.25 196.65 344.21 523.41 968.02 410.60 1090.64 403.07 984.36 492.18 986.49 586.86 1092.74 580.53
00032418 00000099 925.16 196.90 344.11 523.82 966.72 410.44 1087.51 403.39 981.07 493.07 985.12 587.61 1088.99 581.70
00032419 00000100 925.62 198.91 342.34 525.39 967.31 412.94 1087.32 404.74 980.35 492.84 986.19 590.70 1087.59 583.73
00032420 00000101 926.56 200.59 340.57 525.24 967.80 418.18 1090.98 407.15 985.68 491.85 988.44 594.63 1090.59 585.40
00032421 DELETE   926.50 200.82 340.79 525.95 967.95 417.99 1092.71 406.05 986.73 491.57 988.70 595.42 1092.28 585.53
00032422 DELETE   926.12 200.43 341.37 525.74 968.56 416.07 1091.96 404.73 985.99 492.67 989.96 594.20 1092.14 584.71
00032423 00000104 926.56 199.64 341.70 527.07 969.21 414.27 1092.35 403.78 985.19 493.26 989.08 593.23 1092.31 584.60
00032424 00000105 926.85 198.79 341.64 528.38 969.05 412.47 1091.69 402.82 984.51 493.77 989.08 592.08 1092.45 584.20
00032425 00000106 926.86 197.73 340.95 529.56 968.59 411.76 1091.42 402.11 983.88 493.02 988.71 591.98 1092.81 584.08
00032426 00000107 926.48 196.15 342.70 530.74 968.42 410.82 1090.58 401.90 982.96 493.50 988.69 591.07 1092.05 583.76
00032427 00000108 926.86 196.07 341.60 529.78 967.46 410.69 1088.63 401.70 981.21 493.17 987.58 590.47 1090.43 583.02
00032428 00000109 924.92 198.04 344.14 525.12 965.88 410.13 1086.91 402.01 979.45 493.45 986.25 588.31 1089.61 581.41
00032429 00000110 924.26 197.80 343.58 522.69 964.44 411.06 1084.46 402.22 978.57 492.68 985.09 587.63 1087.04 580.15
00032430 00000111 923.74 196.29 343.24 524.37 963.80 410.55 1083.17 402.94 976.04 491.66 983.29 586.30 1086.06 579.67
00032431 00000112 922.66 195.63 343.35 522.57 962.51 410.34 1081.91 404.03 975.52 492.52 980.88 584.65 1082.98 579.16
00032432 00000113 921.66 196.54 343.44 521.22 962.04 410.31 1080.54 405.68 974.00 493.83 978.36 583.73 1080.30 579.50
00032433 00000114 921.82 197.25 342.89 518.72 961.74 410.79 1079.39 405.92 973.53 494.75 977.94 584.00 1078.15 579.60
00032434 00000115 922.48 195.42 343.13 518.89 963.07 411.51 1081.29 406.08 975.49 492.72 978.75 583.76 1078.50 579.03
00032435 DELETE   924.18 198.82 342.16 514.70 967.02 416.25 1083.14 410.79 980.27 492.63 982.67 583.82 1080.57 579.03
00032436 DELETE   923.89 198.96 342.41 514.32 968.12 416.67 1085.27 411.09 984.92 493.96 984.15 585.24 1081.37 580.44
00032437 00000118 924.13 202.20 342.49 510.12 968.78 415.30 1089.73 408.84 989.51 496.57 986.84 585.57 1086.22 580.20
00032438 00000119 925.82 199.62 342.41 512.67 970.88 413.60 1094.59 406.96 992.27 497.64 988.01 586.44 1090.44 581.23
00032439 00000120 927.39 196.27 344.15 516.43 973.03 411.94 1097.07 406.28 992.83 497.82 990.00 585.84 1095.24 581.40
00032440 00000121 927.65 197.11 343.49 515.75 972.94 410.82 1097.05 406.35 992.65 499.35 989.48 584.67 1095.82 581.17
00032441 00000122 927.03 195.52 344.33 517.33 971.30 409.20 1095.35 404.86 989.64 498.24 987.19 583.98 1093.57 580.62
00032442 00000123 925.67 194.50 344.68 518.00 970.29 408.79 1092.39 405.66 987.12 497.81 985.13 581.76 1091.16 579.20
00032443 00000124 926.64 191.50 344.41 522.08 970.44 407.95 1090.45 404.99 984.58 495.52 985.17 581.64 1089.34 579.22
00032444 00000125 926.95 192.90 342.69 519.63 969.80 406.35 1088.90 404.58 982.53 495.20 983.82 580.06 1088.45 578.56
00032445 00000126 926.94 192.72 343.44 518.53 969.87 405.79 1088.82 404.23 982.74 495.62 984.05 579.63 1088.95 578.20
00032446 00000127 926.47 192.82 344.50 519.05 970.72 405.71 1091.43 403.98 985.18 495.33 985.59 579.19 1092.25 577.51
00032447 00000128 926.26 191.85 345.74 519.44 972.25 405.92 1094.16 404.56 989.55 496.99 987.06 578.46 1095.06 577.16
00032448 00000129 927.25 190.59 345.91 520.37 974.01 405.73 1096.85 405.16 992.61 497.82 990.47 577.55 1099.87 576.80
00032449 00000130 927.37 192.00 345.94 519.01 974.85 405.68 1098.02 405.15 993.63 498.16 992.30 577.24 1102.59 576.39
00032450 00000131 926.91 193.40 346.58 517.95 973.62 406.62 1097.28 405.54 992.61 499.04 991.43 578.32 1101.99 577.02
00032451 00000132 924.36 194.53 346.88 517.00 971.31 406.28 1094.32 404.71 989.95 497.77 987.90 577.59 1098.43 575.80
00032452 00000133 924.22 192.52 346.31 519.99 969.99 406.33 1091.07 405.89 985.69 496.09 985.90 576.79 1095.50 575.84
00032453 00000134 926.80 195.48 339.52 513.59 963.21 413.87 1092.62 405.86 985.51 496.32 980.68 576.85 1100.95 570.96
00032454 DELETE   925.13 197.19 341.18 510.68 962.55 415.55 1090.78 407.35 983.64 495.40 979.44 578.24 1096.26 572.48
00032455 00000136 923.88 197.32 341.79 511.71 963.61 413.02 1091.10 406.94 986.65 498.11 980.27 579.15 1093.84 575.55
00032456 00000137 922.65 196.63 342.42 513.28 963.92 411.72 1091.09 405.31 986.98 500.22 980.46 582.15 1091.22 578.68
00032457 00000138 925.50 195.84 340.59 518.25 967.81 410.93 1085.18 406.66 983.27 497.25 985.65 584.44 1081.31 581.01
00032458 00000139 923.68 196.48 343.80 519.07 964.29 411.44 1085.21 405.31 980.35 496.79 982.46 585.57 1082.64 580.58
00032459 00000140 919.60 195.19 346.03 521.39 960.90 410.86 1084.12 404.83 978.23 495.80 979.37 584.13 1084.17 578.95
00032460 00000141 919.07 194.68 347.57 521.30 961.03 410.96 1084.90 404.54 979.20 495.76 980.77 583.85 1085.86 578.30
00032461 00000142 921.41 196.43 344.75 518.81 963.94 411.47 1087.00 405.86 982.62 497.13 984.72 583.59 1089.29 578.62
00032462 DELETE   922.89 196.55 342.44 514.35 961.22 416.15 1091.85 407.89 985.71 499.30 979.32 581.47 1096.17 575.85
00032463 DELETE   923.88 195.44 339.38 519.25 964.65 418.54 1085.10 410.90 984.36 493.43 984.34 587.59 1082.71 581.24
CROP_BBOX: 693 0 1502 867
