Video ID: 	pviohmVPYK8
H: 	1080
W: 	1920
FPS: 	25.0

FRAME INDEX X0 Y0 W H [Landmarks (5 Points)]

00002764 00000000 822.82 171.07 524.45 751.76 941.61 458.09 1167.01 491.49 1014.83 603.21 928.91 716.75 1110.97 746.37
00002765 00000001 823.35 170.06 523.24 752.43 939.36 457.06 1160.82 491.93 1006.54 601.99 926.04 716.74 1101.68 747.61
00002766 00000002 825.93 167.57 517.26 741.91 938.72 450.85 1158.36 486.44 1003.49 591.56 924.71 705.43 1096.88 737.07
00002767 00000003 826.25 160.70 512.79 735.93 937.72 445.00 1157.69 478.79 1002.14 584.74 923.93 695.86 1095.11 725.95
00002768 00000004 827.19 155.38 512.63 735.26 937.63 444.18 1155.88 478.10 998.53 575.39 920.59 688.63 1094.98 718.59
00002769 00000005 825.10 151.15 514.55 738.24 936.19 445.87 1153.41 478.58 995.55 571.05 917.26 685.42 1094.60 714.22
00002770 00000006 821.73 153.27 514.96 734.94 933.52 446.42 1151.75 480.04 993.53 573.27 913.95 684.14 1094.68 713.64
00002771 00000007 814.04 159.09 511.54 732.03 916.90 447.98 1142.05 472.97 980.38 575.02 904.79 690.78 1090.24 712.94
00002772 DELETE   803.30 164.35 516.15 737.96 900.33 458.23 1121.38 478.80 959.05 586.49 894.17 705.07 1074.06 724.13
00002773 DELETE   783.92 166.75 516.27 745.09 870.49 469.92 1079.65 481.53 921.49 602.13 873.86 720.24 1045.60 731.76
00002774 DELETE   751.23 188.57 530.13 730.05 834.27 480.75 1045.09 481.25 883.68 617.47 856.75 737.29 1018.77 739.88
00002775 00000011 740.99 190.72 523.70 736.51 821.86 488.79 1021.05 484.08 860.50 628.30 850.04 751.01 1000.87 749.05
00002776 00000012 736.22 183.24 521.38 740.86 813.61 488.72 1010.56 477.20 853.87 623.54 845.57 751.66 994.96 744.10
00002777 00000013 742.15 176.67 518.83 739.51 817.00 481.70 1013.71 470.91 855.66 611.85 847.91 741.53 1000.88 734.84
00002778 00000014 746.81 172.39 522.15 738.32 824.31 477.67 1025.85 467.65 867.27 602.44 854.06 733.29 1010.94 727.76
00002779 00000015 744.34 165.09 526.67 742.31 828.85 472.18 1033.98 465.38 876.70 600.10 854.91 726.00 1021.02 721.43
00002780 00000016 746.49 170.02 520.24 740.66 820.52 482.12 1013.60 469.90 861.24 608.16 854.35 731.93 1009.31 722.95
00002781 00000017 735.06 170.90 521.47 745.75 806.81 490.19 993.34 475.45 843.38 616.66 845.61 739.12 997.22 727.23
00002782 00000018 721.29 181.82 532.45 736.58 799.48 494.76 996.28 478.39 845.77 620.73 842.01 750.29 994.00 737.31
00002783 00000019 729.03 179.39 522.40 741.97 802.94 498.90 987.56 482.63 840.35 625.27 844.35 746.79 993.02 733.25
00002784 00000020 728.14 186.03 527.84 735.23 804.58 497.59 1003.33 482.73 852.32 625.93 846.83 752.54 1001.81 740.38
00002785 00000021 728.09 179.96 526.66 749.37 813.24 499.81 999.41 490.46 854.19 637.18 857.95 754.00 1005.67 744.75
00002786 00000022 731.08 182.24 529.67 749.01 820.24 503.18 1008.67 493.86 864.21 638.00 865.77 757.42 1013.19 748.23
00002787 00000023 731.39 186.71 532.71 747.75 822.90 503.48 1014.11 497.31 869.27 638.95 866.05 759.87 1013.90 753.30
00002788 00000024 734.38 197.26 527.53 745.06 816.65 510.32 1016.34 497.91 864.30 638.66 859.25 764.70 1018.27 754.10
00002789 00000025 735.06 199.79 520.22 742.31 810.46 513.36 1004.80 503.44 848.35 638.26 848.89 763.86 1006.89 754.67
00002790 00000026 734.88 204.67 519.21 733.90 807.15 513.84 1001.53 507.87 843.13 642.44 843.68 761.22 1003.51 755.23
00002791 00000027 736.69 212.54 522.61 731.17 812.92 516.97 1009.34 512.69 854.49 653.03 853.72 764.68 1013.75 760.29
00002792 00000028 742.34 215.19 522.27 726.59 820.03 519.30 1018.57 515.68 866.92 656.68 862.32 765.37 1024.25 761.62
00002793 00000029 743.84 210.33 518.69 727.21 817.63 514.35 1014.44 511.03 858.93 651.40 856.69 761.66 1015.91 758.41
00002794 00000030 742.68 203.00 511.42 724.55 811.27 509.11 1001.10 506.38 840.95 636.56 841.91 750.53 1000.02 747.35
00002795 00000031 738.58 201.52 510.25 720.40 806.81 506.67 995.31 503.88 835.03 632.44 836.66 745.93 995.03 742.38
00002796 00000032 738.58 201.36 517.03 727.43 811.96 509.97 1003.05 506.40 845.21 637.39 843.89 749.35 1005.16 745.46
00002797 00000033 739.26 210.08 523.21 725.04 815.55 518.74 1014.64 513.63 860.18 652.02 853.79 761.82 1016.41 757.17
00002798 00000034 739.56 217.43 522.48 727.51 814.49 519.29 1013.95 521.85 855.77 659.53 849.66 764.73 1013.72 766.36
00002799 00000035 743.26 216.57 515.19 734.76 812.17 512.36 1006.17 521.18 839.97 653.81 839.51 760.01 1002.92 766.37
00002800 DELETE   748.28 206.20 512.30 737.63 817.23 505.68 1010.09 512.92 841.32 635.83 836.58 752.53 999.32 757.93
00002801 DELETE   751.05 203.97 527.23 734.96 828.22 489.70 1029.16 501.93 858.47 629.10 841.30 743.69 1011.79 754.94
00002802 DELETE   761.89 191.50 526.29 745.19 840.82 484.91 1049.75 496.84 880.02 622.11 850.34 736.31 1029.95 747.90
00002803 00000039 773.62 189.74 525.03 743.99 856.34 482.69 1064.55 494.64 897.32 618.20 862.52 734.96 1040.95 746.66
00002804 00000040 780.65 192.38 523.54 738.09 865.05 487.38 1074.89 496.50 910.72 620.26 873.21 738.25 1046.35 747.63
00002805 00000041 792.71 187.75 518.96 740.75 874.95 485.80 1083.03 502.37 921.26 631.49 881.91 738.94 1051.32 754.14
00002806 00000042 803.30 196.22 519.17 729.85 888.02 488.92 1100.60 504.78 935.42 626.10 895.50 738.84 1058.70 753.69
00002807 00000043 811.58 182.02 513.64 742.17 892.06 476.07 1108.64 490.55 943.52 617.85 897.61 734.09 1066.54 747.73
00002808 00000044 815.48 176.32 511.53 739.89 896.93 468.79 1117.31 484.05 952.64 607.00 899.28 726.10 1069.43 740.64
00002809 00000045 816.49 174.17 514.61 740.44 902.00 465.40 1120.08 479.98 957.21 601.33 906.12 723.08 1071.64 737.03
00002810 00000046 807.21 174.34 533.16 749.58 910.99 467.66 1127.92 479.52 965.67 601.39 916.51 729.06 1077.08 741.79
00002811 00000047 810.28 169.70 535.74 751.07 916.35 472.20 1138.96 481.80 979.44 606.08 925.10 734.52 1090.40 745.16
00002812 00000048 819.28 173.28 532.02 742.53 919.29 469.90 1144.07 477.43 982.62 599.26 927.60 732.91 1092.62 742.33
00002813 00000049 821.33 169.38 527.43 743.16 918.81 460.25 1134.75 472.80 969.69 590.28 922.03 720.66 1083.11 734.47
00002814 00000050 817.60 167.87 524.04 741.43 910.39 456.63 1122.39 471.24 952.75 582.78 910.64 716.71 1063.39 732.63
00002815 00000051 814.96 172.36 519.17 738.89 904.46 456.05 1114.01 472.90 941.59 586.49 903.50 718.52 1057.40 736.04
00002816 00000052 814.82 174.91 524.10 744.66 905.24 461.79 1117.41 473.64 947.34 593.54 908.73 724.43 1067.25 737.62
00002817 00000053 817.24 175.83 527.52 749.01 908.90 466.58 1122.11 475.38 953.51 594.53 914.72 727.74 1077.46 738.20
00002818 00000054 818.51 175.69 529.23 751.52 911.12 464.61 1125.33 473.91 956.08 591.65 914.92 725.62 1079.90 736.43
00002819 00000055 820.79 173.09 529.03 753.01 912.93 462.63 1125.68 473.15 955.98 591.98 916.41 722.55 1082.87 734.22
00002820 00000056 824.12 172.56 527.76 752.45 915.24 463.32 1129.52 473.39 960.68 594.19 918.94 721.80 1089.01 733.00
00002821 00000057 825.67 171.25 524.76 744.92 918.18 463.60 1135.73 474.96 970.73 596.87 919.82 720.63 1097.01 731.76
00002822 00000058 827.50 169.42 525.80 741.41 919.51 463.43 1139.15 476.00 973.62 598.29 920.52 718.79 1098.54 731.03
00002823 00000059 830.13 169.07 525.21 736.76 922.48 462.36 1140.60 475.76 974.90 596.40 922.66 715.31 1099.00 728.35
00002824 00000060 831.53 167.81 523.32 735.70 923.86 460.86 1141.53 474.28 976.96 595.13 924.49 713.31 1099.54 726.39
00002825 00000061 833.84 166.27 522.80 740.00 926.49 459.19 1142.07 473.61 976.69 593.54 925.46 712.32 1100.27 726.26
00002826 00000062 836.09 166.37 521.78 741.78 928.30 459.01 1142.40 472.74 976.73 591.04 927.92 713.03 1101.31 726.28
00002827 00000063 836.64 165.48 522.28 745.98 928.74 458.12 1141.35 472.85 974.66 589.53 927.49 711.80 1102.26 725.82
00002828 00000064 837.48 165.69 521.30 744.40 928.16 456.91 1139.02 472.03 971.80 588.29 927.28 709.35 1103.48 723.58
00002829 00000065 836.87 165.07 520.06 740.74 929.16 453.65 1138.12 469.23 972.18 584.25 927.71 703.08 1105.57 717.58
00002830 00000066 838.38 163.84 515.84 738.58 929.12 450.59 1137.47 466.17 971.02 581.90 927.34 698.07 1108.05 712.44
00002831 00000067 837.98 162.61 516.30 736.23 929.14 447.67 1137.94 465.12 971.29 579.71 925.71 694.12 1106.29 710.16
00002832 00000068 840.07 163.85 515.58 727.92 930.53 445.24 1140.70 465.35 973.17 577.95 924.42 691.14 1103.11 709.71
00002833 00000069 843.47 162.35 515.43 723.70 935.12 439.94 1144.86 464.04 977.30 573.54 925.83 686.07 1101.16 708.32
00002834 00000070 849.17 158.30 512.89 728.11 938.84 437.66 1150.27 462.65 981.52 571.98 928.91 686.10 1103.60 709.31
00002835 00000071 852.21 158.78 511.64 727.71 940.59 438.20 1152.48 461.88 983.84 571.91 931.41 687.49 1107.31 709.55
00002836 00000072 851.43 158.44 511.57 727.38 939.03 440.07 1151.66 462.47 984.16 573.79 930.92 688.41 1108.15 709.40
00002837 00000073 849.43 159.52 512.81 728.14 937.39 441.97 1150.37 464.11 982.94 576.68 930.66 689.87 1109.46 710.49
00002838 00000074 849.12 163.56 513.00 730.36 938.56 446.24 1150.45 468.66 985.09 582.82 931.85 692.81 1112.33 713.63
00002839 00000075 851.74 164.93 512.53 735.99 941.43 450.79 1151.14 471.25 987.13 585.26 936.82 698.23 1114.26 717.36
00002840 00000076 852.50 164.87 513.53 736.08 942.84 449.08 1153.27 469.80 988.33 584.31 938.23 698.11 1114.75 717.53
00002841 00000077 855.21 162.84 513.57 736.78 944.93 446.82 1156.21 467.43 989.61 580.06 939.55 697.07 1117.07 716.35
00002842 00000078 859.00 160.40 511.42 736.96 945.59 447.94 1157.60 468.79 990.74 581.90 940.92 697.68 1117.41 717.23
00002843 00000079 862.94 163.27 509.48 731.86 947.61 449.61 1160.52 471.93 993.39 585.19 942.86 698.30 1118.39 719.08
00002844 00000080 867.58 163.58 507.97 731.82 948.56 453.43 1165.09 473.96 996.25 588.14 944.56 705.30 1116.34 725.05
00002845 00000081 869.36 164.14 508.04 736.78 948.12 455.26 1164.74 475.84 996.30 594.05 944.12 711.77 1109.90 731.99
00002846 00000082 868.49 163.64 508.68 736.22 949.27 454.51 1165.82 475.05 996.81 590.79 943.64 710.20 1109.05 730.42
00002847 00000083 866.63 161.87 508.93 745.17 949.50 451.93 1162.82 471.00 993.45 586.55 944.87 711.84 1108.62 730.60
00002848 00000084 862.77 161.76 510.86 747.87 945.99 453.90 1158.69 471.74 990.22 588.25 943.67 711.07 1117.24 728.14
00002849 00000085 859.23 163.35 512.62 742.48 944.08 452.00 1154.98 471.17 988.40 587.88 941.93 705.80 1116.11 723.84
00002850 00000086 857.21 165.71 512.09 733.58 943.79 451.24 1154.01 470.73 988.81 586.47 940.99 701.34 1115.50 719.66
00002851 00000087 857.73 161.62 510.42 731.20 943.46 448.58 1155.79 468.97 990.18 584.21 939.82 696.53 1117.84 715.59
00002852 00000088 860.56 161.43 510.09 729.24 945.54 448.52 1158.34 468.73 992.51 584.08 942.53 695.49 1120.82 714.31
00002853 00000089 861.45 161.63 509.71 728.69 946.64 448.79 1159.58 469.15 994.04 583.88 943.58 695.27 1122.50 714.15
00002854 00000090 859.83 161.74 509.77 730.75 945.89 447.93 1157.70 466.64 992.40 579.98 942.35 696.79 1118.51 714.43
00002855 00000091 857.14 161.98 511.98 736.80 944.72 445.95 1155.17 464.37 988.41 576.98 939.90 697.74 1115.71 715.19
00002856 00000092 856.50 161.93 511.11 739.95 942.77 447.26 1152.50 464.10 986.29 577.90 938.84 700.01 1114.46 716.27
00002857 00000093 854.98 164.19 511.60 738.95 942.41 452.72 1149.33 468.63 985.35 580.46 939.15 701.50 1114.19 716.86
00002858 00000094 856.16 166.35 512.31 736.10 943.67 459.92 1148.05 473.39 984.05 580.95 941.28 703.31 1115.55 716.47
00002859 00000095 859.12 166.65 512.54 737.57 947.29 460.02 1152.58 473.64 986.93 579.33 944.00 704.13 1118.40 717.55
00002860 00000096 863.15 162.86 510.43 745.26 952.54 453.45 1159.38 469.97 991.76 576.99 947.65 703.74 1120.29 719.99
00002861 00000097 865.09 157.05 510.19 750.99 952.83 438.96 1163.97 456.47 993.25 564.58 946.12 699.02 1118.89 716.46
00002862 00000098 863.28 147.42 515.71 756.94 955.21 427.57 1166.94 444.39 995.08 551.53 947.46 692.35 1117.91 708.79
00002863 00000099 863.56 144.94 517.25 758.01 957.06 422.02 1170.24 439.24 998.29 545.13 948.01 689.35 1117.24 706.12
00002864 00000100 864.71 146.57 516.64 754.70 960.29 420.83 1173.37 440.09 1001.93 544.61 950.15 687.92 1116.52 706.50
00002865 00000101 867.26 146.53 513.30 737.86 960.93 425.17 1175.89 446.74 1005.32 548.58 950.57 682.34 1113.67 702.97
00002866 00000102 868.70 146.10 507.44 731.19 960.00 427.76 1177.95 452.99 1005.67 553.13 945.66 679.90 1111.48 703.68
00002867 00000103 869.88 148.46 508.20 730.36 960.94 429.36 1179.29 455.55 1005.85 554.97 946.25 680.82 1113.93 705.33
00002868 00000104 870.13 150.20 506.39 725.78 960.89 430.31 1181.24 457.00 1008.13 556.51 945.88 680.80 1114.16 705.76
00002869 00000105 869.28 149.46 507.26 723.21 959.62 429.47 1179.92 457.02 1006.58 556.08 943.81 679.52 1109.95 705.30
CROP_BBOX: 507 0 1722 1080
