Video ID: 	11hecCaavYM
H: 	1080
W: 	1920
FPS: 	25.0

FRAME INDEX X0 Y0 W H [Landmarks (5 Points)]

00002422 00000000 820.39 152.30 385.37 633.37 857.03 392.33 1019.53 396.62 886.45 520.90 875.39 626.22 998.32 629.02
00002423 00000001 823.15 154.56 388.62 632.33 857.22 388.75 1022.44 390.01 887.73 516.66 876.81 627.87 999.99 628.05
00002424 00000002 825.64 152.31 393.95 638.70 857.86 388.74 1022.56 389.50 885.85 515.35 877.84 631.05 999.82 630.53
00002425 00000003 826.29 150.56 394.63 643.90 857.38 388.17 1020.82 389.98 883.07 517.43 876.52 635.33 996.98 635.67
00002426 00000004 825.35 154.41 396.47 644.86 856.25 390.66 1018.75 392.38 880.63 523.38 877.15 640.79 995.16 641.03
00002427 00000005 824.81 151.78 397.01 655.77 854.25 392.15 1016.53 396.24 874.71 531.37 875.01 646.57 994.36 649.03
00002428 00000006 823.38 157.27 399.68 656.77 851.05 391.23 1015.28 399.25 870.38 538.89 873.45 652.29 990.94 658.23
00002429 00000007 822.05 160.70 400.03 657.08 847.67 391.44 1013.12 402.44 867.11 542.61 868.36 654.70 986.16 663.35
00002430 00000008 821.19 157.09 400.28 659.53 845.68 386.88 1010.67 400.75 865.09 540.94 864.08 651.93 979.82 663.37
00002431 00000009 819.79 154.22 398.65 658.83 842.79 386.11 1007.90 397.83 864.95 537.13 860.74 650.59 974.47 660.47
00002432 00000010 815.79 150.20 401.00 660.58 839.71 383.16 1005.72 396.83 862.34 536.66 855.21 646.78 970.84 658.61
00002433 00000011 812.28 148.77 399.13 660.48 837.79 382.47 1005.36 398.06 861.41 537.66 850.14 645.12 967.50 658.99
00002434 00000012 807.28 151.59 398.88 655.78 833.03 380.94 1005.62 398.00 861.83 537.59 842.92 645.03 963.63 660.50
00002435 00000013 799.00 152.84 395.80 649.21 826.61 379.55 1001.92 396.89 859.48 534.32 834.09 641.25 960.21 657.60
00002436 00000014 785.50 148.78 396.29 648.94 815.00 378.65 994.34 394.85 853.86 532.94 821.99 641.44 950.85 657.03
00002437 00000015 773.35 141.57 395.53 653.91 805.71 378.12 988.63 394.93 847.15 530.50 810.89 639.91 942.70 656.05
00002438 00000016 764.37 151.17 395.64 644.65 802.49 382.82 978.06 394.94 838.77 524.39 812.46 635.97 939.25 645.68
00002439 00000017 755.57 148.20 391.10 651.75 794.17 384.42 971.38 396.38 832.53 524.57 805.33 639.21 932.58 649.13
00002440 00000018 746.21 149.24 387.19 652.72 788.89 385.62 964.73 400.08 829.21 525.74 798.99 638.55 924.14 651.19
00002441 00000019 730.38 156.99 389.57 648.64 784.15 388.15 954.09 407.18 819.59 527.26 781.31 637.70 916.92 653.77
00002442 00000020 723.53 167.11 385.27 640.30 777.88 388.62 947.41 412.14 813.56 531.43 769.62 636.76 906.65 656.61
00002443 00000021 714.79 172.94 385.48 635.00 773.14 389.53 944.40 415.72 810.75 531.83 760.52 637.73 894.06 660.33
00002444 DELETE   704.21 183.13 388.56 623.95 765.80 388.95 940.23 417.92 804.60 533.66 752.82 638.23 883.12 663.25
00002445 00000023 695.19 186.30 390.69 619.13 759.59 390.95 935.97 419.15 800.95 535.41 748.87 638.13 879.28 662.48
00002446 00000024 690.85 186.08 387.03 613.99 750.60 396.47 928.57 418.49 791.41 535.54 742.25 640.29 871.26 659.48
00002447 DELETE   686.65 183.70 380.60 611.82 741.34 396.47 917.17 418.08 781.29 537.10 735.05 638.04 864.64 657.01
00002448 00000026 680.53 180.52 377.80 609.16 734.12 395.04 908.62 415.75 774.37 534.23 729.85 635.95 857.98 654.30
00002449 00000027 669.50 184.31 383.60 605.36 727.86 394.25 912.37 419.98 769.97 533.03 718.91 639.28 851.80 661.02
00002450 00000028 664.92 181.49 384.24 607.78 725.37 393.43 909.26 418.11 765.84 531.21 717.43 639.54 850.28 660.16
00002451 DELETE   666.41 180.21 374.55 603.17 718.68 389.97 900.66 416.03 763.13 536.08 714.73 635.37 850.12 657.97
00002452 00000030 660.00 180.39 380.19 604.92 713.23 397.25 886.60 418.15 746.91 532.51 704.65 634.89 841.00 653.73
00002453 00000031 660.30 185.11 379.34 599.61 711.63 399.79 884.13 418.66 746.11 534.41 704.97 636.26 839.65 653.64
00002454 00000032 666.35 186.55 379.21 599.93 719.68 401.38 898.58 421.41 757.51 536.49 719.25 643.41 846.38 659.78
00002455 00000033 671.14 188.15 380.94 596.17 723.69 402.79 900.83 421.44 761.22 540.89 723.10 642.44 849.74 658.12
00002456 00000034 679.94 190.65 377.06 588.56 730.31 400.53 907.06 419.19 769.57 537.77 729.28 640.99 855.23 656.98
00002457 DELETE   692.48 184.31 374.09 592.60 738.57 394.74 911.09 415.32 774.91 536.02 737.28 634.77 868.77 651.46
00002458 00000036 698.22 189.21 374.28 587.49 743.19 392.16 922.47 413.87 783.88 535.75 737.34 637.74 871.60 656.60
00002459 00000037 700.43 185.35 375.00 590.33 745.67 391.45 925.00 413.10 787.10 534.55 738.77 636.62 872.52 655.74
00002460 00000038 699.81 187.21 375.12 587.53 745.72 392.43 925.45 413.04 787.72 534.23 739.89 637.61 873.53 655.68
00002461 00000039 698.18 188.36 373.27 586.01 744.20 393.68 922.91 414.48 785.61 535.43 737.91 637.13 872.53 655.33
00002462 00000040 694.41 190.65 371.85 584.71 741.17 395.39 918.67 416.29 781.97 538.26 735.37 638.60 869.50 656.72
00002463 00000041 688.75 185.69 371.54 590.76 736.74 398.95 913.04 419.04 776.78 539.09 731.81 639.91 861.77 657.31
00002464 00000042 684.82 185.34 370.23 588.57 732.17 401.62 908.92 419.87 774.40 539.92 729.75 641.59 857.26 657.59
00002465 00000043 679.56 187.48 370.64 587.28 729.34 405.87 906.05 422.94 771.25 542.73 728.98 643.17 853.72 658.05
00002466 00000044 676.78 193.65 370.72 584.86 726.09 407.31 901.57 425.47 765.23 544.76 726.91 643.14 850.23 658.45
00002467 00000045 676.57 189.31 364.28 586.77 723.70 405.04 894.61 425.52 764.07 546.25 725.90 641.96 849.78 659.26
00002468 00000046 675.24 195.55 361.84 581.71 718.80 407.10 891.32 428.22 761.17 547.16 721.65 642.96 846.02 660.76
00002469 00000047 672.51 197.81 361.66 580.69 716.43 407.00 889.19 430.74 758.94 551.97 718.37 642.79 844.78 662.72
00002470 00000048 670.72 198.55 362.62 580.59 714.34 407.25 887.65 432.09 756.85 553.19 715.28 643.57 843.42 664.34
00002471 00000049 669.68 200.18 360.42 580.92 712.76 408.33 884.59 434.04 754.50 554.64 712.71 643.16 840.76 664.73
00002472 00000050 665.96 199.55 360.71 583.32 708.62 408.97 880.56 435.56 749.97 556.83 706.95 643.04 837.75 665.51
00002473 00000051 666.63 204.06 358.52 580.73 709.84 413.75 874.93 439.44 740.88 560.68 700.65 645.74 832.65 667.84
00002474 00000052 660.28 208.64 360.51 576.95 700.88 410.78 875.49 439.22 743.20 565.57 698.75 644.84 833.90 668.77
00002475 00000053 654.64 211.16 362.43 576.40 696.08 412.61 873.32 440.39 740.05 567.62 695.70 648.69 830.16 672.02
00002476 00000054 650.37 214.33 361.95 574.28 692.58 415.77 870.14 443.16 735.63 569.35 692.82 651.79 826.86 674.57
00002477 00000055 647.29 213.13 361.51 578.08 697.18 425.42 863.98 449.21 732.28 572.01 690.85 656.56 820.09 676.94
00002478 00000056 641.01 211.32 370.37 583.92 692.03 420.04 861.44 448.71 723.17 569.01 691.28 652.70 818.79 677.08
00002479 00000057 643.32 216.09 359.34 578.56 692.61 432.16 860.50 455.25 730.40 577.43 687.41 659.92 816.86 679.75
00002480 00000058 636.99 213.15 370.21 582.25 689.29 423.41 861.95 451.06 723.34 571.36 688.74 653.58 818.40 677.15
00002481 00000059 633.92 214.42 371.09 579.15 688.15 423.29 861.12 450.74 723.39 569.28 686.79 652.60 816.69 675.88
00002482 00000060 630.66 215.79 371.14 577.44 685.36 423.51 859.17 450.99 720.81 570.07 683.97 651.31 815.45 674.49
00002483 00000061 625.07 207.87 367.02 582.86 679.73 426.62 857.11 451.78 729.08 578.84 674.44 657.45 816.54 679.25
00002484 00000062 620.23 212.27 373.65 582.47 672.07 421.00 859.89 451.18 718.42 577.59 670.49 662.45 816.26 689.01
00002485 00000063 615.35 209.63 374.98 582.14 669.09 419.20 854.87 448.58 715.41 575.22 667.56 659.21 810.87 685.35
00002486 00000064 610.58 203.72 375.27 588.90 663.11 418.46 848.73 447.82 709.21 576.06 663.21 659.33 806.09 685.57
00002487 00000065 605.10 205.17 376.38 587.37 657.34 415.74 843.77 447.52 706.09 578.38 659.68 657.86 800.93 685.98
00002488 00000066 600.45 203.56 376.20 588.50 652.61 416.91 839.38 447.72 703.30 578.06 658.07 659.31 796.11 686.52
00002489 DELETE   603.34 208.41 364.83 577.60 658.75 430.93 823.13 452.07 698.69 572.52 657.06 651.58 787.33 669.85
00002490 00000068 598.95 212.08 365.52 576.17 655.05 429.61 818.83 451.17 693.40 570.12 651.39 651.99 782.28 670.75
00002491 00000069 596.85 210.93 364.91 576.86 653.98 428.17 817.57 451.41 692.30 570.37 648.07 650.68 779.54 671.07
00002492 00000070 594.35 207.63 363.67 580.27 652.12 428.90 815.01 452.99 691.08 572.60 645.72 651.05 778.24 671.84
00002493 00000071 590.46 208.60 364.70 578.50 650.71 429.13 813.15 453.13 690.92 573.23 644.91 651.73 775.95 672.40
00002494 00000072 589.16 208.63 365.24 578.38 650.25 429.31 812.89 453.67 690.43 573.64 644.04 652.40 775.08 673.31
00002495 00000073 589.38 207.69 365.15 579.29 649.90 429.34 812.02 453.74 689.98 573.68 644.32 652.36 775.08 673.29
00002496 00000074 592.12 207.15 364.46 579.90 650.58 429.71 812.43 451.91 690.47 572.53 647.01 652.72 777.18 672.00
00002497 00000075 595.16 206.67 364.78 579.93 652.12 428.67 815.56 449.32 692.86 570.19 648.89 651.40 780.08 669.68
00002498 00000076 598.13 210.93 365.24 574.58 648.75 419.35 823.17 443.83 699.10 567.58 651.66 647.44 785.91 667.97
00002499 00000077 601.87 207.58 363.04 575.83 651.84 418.46 823.72 441.81 700.68 564.78 655.28 645.86 786.08 665.40
00002500 00000078 604.33 201.39 363.19 582.22 655.12 417.14 826.04 439.11 702.39 561.31 658.87 644.35 788.65 662.92
00002501 00000079 604.92 197.95 365.93 584.84 657.28 415.88 828.65 436.43 703.62 558.06 660.98 643.45 790.96 660.96
00002502 00000080 606.37 196.03 368.34 586.24 657.90 414.81 829.93 435.15 703.80 559.90 662.33 642.40 793.43 659.90
00002503 00000081 609.96 193.27 368.85 589.92 660.42 413.02 835.44 434.07 706.52 561.12 664.67 642.07 797.87 660.20
00002504 00000082 612.98 189.52 370.12 593.60 663.86 413.54 838.46 433.55 709.39 558.66 668.20 642.09 800.59 659.33
00002505 00000083 616.69 189.11 369.65 594.91 667.17 412.86 840.97 433.16 710.81 556.31 669.79 642.11 801.80 659.35
00002506 00000084 618.62 189.68 370.88 592.98 669.55 413.64 842.86 433.72 711.69 556.08 673.34 642.46 804.26 659.27
00002507 00000085 621.85 187.36 370.94 594.78 672.72 413.08 846.02 434.41 713.36 556.99 675.65 642.13 808.47 659.67
00002508 00000086 623.50 186.03 373.57 594.55 675.71 411.14 850.23 432.83 716.15 554.92 678.18 641.14 812.57 658.82
00002509 00000087 623.58 187.41 376.50 592.16 678.82 409.05 853.93 431.50 719.20 552.26 680.19 640.00 813.96 658.39
00002510 00000088 624.43 185.92 377.57 593.22 680.60 407.56 855.91 431.44 721.25 553.04 680.86 639.60 815.28 659.06
00002511 00000089 625.28 187.42 377.89 592.50 681.73 405.88 857.58 430.37 721.82 552.52 681.63 639.33 816.55 659.17
00002512 00000090 624.96 188.67 379.61 590.41 681.50 404.37 858.08 427.87 722.45 550.88 681.85 639.27 816.41 658.30
00002513 00000091 624.81 189.16 379.82 589.49 681.41 404.36 857.94 427.56 722.49 550.31 681.58 639.46 816.20 658.22
00002514 00000092 624.12 188.37 379.40 590.00 681.13 403.49 858.52 425.60 723.74 548.52 681.77 639.50 816.66 657.38
00002515 00000093 622.06 190.54 380.14 583.69 678.96 401.43 858.48 421.46 724.49 545.61 682.54 638.93 817.49 654.94
00002516 00000094 621.88 189.95 379.96 583.10 677.00 398.87 858.35 418.39 723.67 544.59 681.63 638.39 817.72 653.78
00002517 00000095 621.11 188.98 380.64 583.19 676.40 396.19 858.80 416.09 724.48 544.66 680.63 637.77 818.09 653.47
00002518 00000096 620.97 184.38 381.10 586.95 676.91 395.93 859.49 415.11 726.14 544.52 681.72 637.66 819.03 652.85
00002519 00000097 620.61 183.15 382.50 589.35 677.18 397.19 860.57 416.82 726.75 546.62 682.29 638.51 820.20 654.04
00002520 00000098 620.36 181.34 383.82 590.59 678.35 398.14 861.52 417.55 727.82 546.71 684.21 638.59 821.64 653.97
00002521 00000099 621.13 181.47 384.56 590.61 679.67 398.88 862.62 416.93 730.50 546.12 686.39 638.34 824.31 652.61
00002522 00000100 623.31 177.51 383.76 592.00 680.77 398.19 862.58 414.90 732.45 544.63 687.27 638.13 825.71 651.27
00002523 00000101 625.74 174.75 383.93 594.58 683.11 397.46 863.86 413.33 733.78 543.69 690.11 638.48 828.18 650.91
00002524 00000102 629.32 176.78 383.10 595.42 687.06 396.68 866.49 414.48 736.19 545.59 693.07 638.59 831.14 652.55
00002525 00000103 636.28 178.32 379.11 599.44 692.31 396.99 869.32 419.12 738.41 547.73 695.39 638.78 833.00 656.41
00002526 00000104 639.65 177.49 379.77 604.27 695.63 397.68 874.32 422.33 741.17 551.93 697.00 640.03 837.97 660.00
00002527 00000105 642.90 179.28 379.17 603.86 699.49 401.17 877.90 426.00 746.01 551.70 698.93 640.76 839.42 661.52
00002528 00000106 645.26 183.94 380.46 601.73 703.12 401.08 881.00 427.80 748.28 554.52 700.24 640.55 840.08 663.43
00002529 00000107 647.28 183.20 380.67 603.72 705.75 402.67 881.92 429.59 750.13 554.71 703.67 640.99 842.17 664.21
00002530 00000108 648.39 182.11 379.35 603.68 706.53 403.14 882.43 430.28 750.87 555.06 704.74 640.87 842.88 664.31
00002531 00000109 648.16 182.89 379.46 602.24 706.61 402.45 882.14 429.25 750.25 553.25 704.56 640.48 841.88 663.67
00002532 00000110 647.22 183.66 378.97 601.34 705.30 401.95 881.44 428.04 749.98 552.37 703.72 640.39 841.78 662.82
00002533 00000111 645.77 185.77 378.61 599.40 702.46 402.14 879.06 426.68 747.53 552.63 701.85 641.65 840.23 662.79
00002534 00000112 644.40 186.66 378.72 599.46 701.46 402.14 879.21 426.50 747.11 552.88 701.05 642.11 840.33 663.07
00002535 00000113 643.84 184.63 377.89 601.36 700.47 403.62 877.62 426.77 746.85 552.59 701.37 642.72 840.38 662.53
00002536 00000114 642.22 183.33 378.38 601.33 699.24 402.70 876.80 426.27 746.34 553.13 700.40 642.34 839.44 662.31
00002537 00000115 641.55 182.96 378.58 600.92 698.61 402.30 876.48 425.27 746.28 552.35 700.38 642.25 839.53 661.65
00002538 00000116 642.48 183.07 377.41 599.40 698.88 401.47 876.23 424.13 746.63 551.21 701.37 641.76 840.03 660.85
00002539 00000117 643.16 183.86 377.30 597.82 699.66 401.59 877.00 424.57 746.86 550.47 701.82 641.49 839.94 660.95
00002540 00000118 644.79 186.81 377.12 593.99 701.59 400.92 878.89 424.24 749.16 549.13 702.95 640.56 840.90 660.48
00002541 00000119 645.33 185.72 379.44 595.15 705.26 400.09 882.35 423.68 752.96 547.50 704.72 639.14 842.42 659.58
00002542 00000120 647.76 182.59 379.59 595.11 708.11 399.64 884.38 422.96 754.77 546.23 707.36 638.18 843.82 658.43
00002543 00000121 650.60 180.04 379.20 596.70 711.41 399.61 886.34 422.94 756.35 545.49 710.34 637.08 846.26 657.57
00002544 00000122 655.29 179.22 376.97 595.97 714.77 399.78 887.89 422.29 758.14 544.49 713.07 635.36 848.91 655.45
00002545 00000123 659.14 182.26 374.67 594.01 716.80 400.25 889.53 422.22 760.86 544.64 715.35 635.16 850.35 655.21
00002546 00000124 664.70 187.06 370.71 586.00 718.61 398.62 902.06 422.08 774.69 551.09 723.03 640.10 858.43 660.23
00002547 00000125 666.18 189.43 370.72 585.12 720.89 398.92 903.47 422.34 775.35 550.63 724.53 640.20 858.84 660.36
00002548 00000126 667.24 190.13 370.24 585.18 721.76 400.89 903.44 423.38 775.99 551.22 725.73 641.06 858.81 660.46
00002549 00000127 668.21 189.38 369.29 585.96 721.69 401.29 902.49 423.45 774.47 549.80 725.33 641.03 857.66 660.13
00002550 00000128 668.16 189.18 369.11 585.39 721.87 402.03 902.27 423.21 773.85 548.04 725.67 641.27 858.21 659.54
00002551 00000129 670.92 188.26 367.41 584.10 722.96 401.75 901.12 421.23 774.50 547.02 728.08 640.82 858.49 657.63
00002552 00000130 672.19 188.17 366.43 583.24 723.77 399.67 901.60 419.93 774.89 547.35 728.92 638.91 859.39 656.36
00002553 00000131 672.79 186.75 365.89 585.20 723.82 400.18 901.05 419.64 774.73 546.55 728.90 638.89 859.12 655.78
00002554 00000132 673.04 187.55 365.30 584.23 723.87 400.58 900.73 419.76 774.71 546.79 729.22 639.29 858.77 655.93
00002555 00000133 674.25 186.50 365.10 585.69 725.25 401.57 901.05 419.76 775.01 546.12 731.04 639.86 859.04 655.67
00002556 00000134 675.29 185.96 365.70 585.72 726.91 403.03 901.70 419.48 776.83 546.11 733.66 639.98 860.67 654.40
00002557 00000135 677.32 189.84 365.58 581.39 728.81 402.38 903.62 418.44 778.38 546.15 735.74 639.53 862.65 653.48
00002558 00000136 680.26 184.67 366.41 587.78 731.45 401.82 905.36 417.53 780.56 545.33 738.19 638.95 864.76 652.65
00002559 00000137 682.91 182.81 367.82 587.39 734.29 400.14 908.36 415.96 782.29 544.38 740.58 637.98 868.60 651.54
00002560 00000138 684.51 182.30 369.50 588.05 736.69 397.27 912.49 414.54 783.50 542.47 741.27 635.65 872.76 650.28
00002561 00000139 685.73 179.46 371.38 589.80 739.65 395.77 917.18 413.05 788.58 540.06 743.51 635.47 877.18 649.75
00002562 00000140 688.98 175.73 372.38 593.36 742.64 396.29 921.65 412.60 793.42 539.89 746.48 635.59 882.08 648.87
00002563 00000141 691.09 178.28 374.40 589.99 744.91 394.81 927.12 411.18 797.07 539.67 748.83 635.71 887.18 648.79
00002564 00000142 693.39 179.87 375.68 588.46 747.09 394.48 930.30 409.71 800.50 539.27 751.83 634.93 891.33 647.00
00002565 00000143 695.21 175.31 377.33 592.84 750.22 394.53 931.36 409.27 802.70 536.99 754.69 633.19 893.47 644.81
00002566 00000144 696.62 173.91 378.68 594.73 752.89 393.72 933.73 408.38 805.44 533.96 757.22 631.76 895.99 643.16
00002567 00000145 698.81 175.32 378.50 593.14 754.86 392.72 936.01 408.49 807.13 534.33 758.26 631.14 897.01 643.47
00002568 00000146 701.97 172.91 377.35 596.25 757.42 392.23 937.29 408.88 807.84 534.86 759.10 630.66 898.29 643.64
00002569 00000147 704.17 171.04 376.83 599.15 758.73 391.70 937.80 407.98 808.60 534.83 760.37 630.51 900.36 643.17
00002570 00000148 704.71 169.08 378.57 602.90 759.83 391.44 939.39 407.66 809.91 535.79 761.57 631.05 902.40 643.78
00002571 00000149 705.07 169.43 379.18 601.59 759.97 390.79 940.02 407.75 809.82 535.58 761.06 630.30 902.89 643.54
00002572 00000150 704.78 168.35 381.08 603.64 760.31 390.64 940.31 407.06 811.61 535.89 762.40 630.08 904.64 642.91
00002573 00000151 704.97 167.18 380.45 606.45 760.47 389.86 940.21 406.12 811.96 535.42 762.27 630.00 905.15 642.66
00002574 00000152 704.42 165.83 381.41 607.91 760.38 389.64 940.61 405.51 812.49 535.12 762.29 629.88 905.60 642.29
00002575 00000153 703.80 167.03 381.93 606.16 759.72 389.21 941.02 405.26 812.35 535.12 761.35 629.85 905.03 642.44
00002576 00000154 702.90 165.45 382.94 607.31 758.91 388.98 940.53 405.00 811.78 535.12 760.61 629.64 904.53 642.25
00002577 00000155 702.07 163.87 383.58 607.32 758.31 388.97 939.52 404.02 812.02 533.37 760.79 627.90 904.72 639.73
00002578 00000156 702.21 159.53 382.41 610.85 758.57 387.37 938.35 401.57 812.92 532.08 761.03 625.59 904.71 636.75
00002579 00000157 702.27 155.44 380.49 610.92 757.13 387.02 937.72 400.80 812.04 531.61 759.36 623.45 904.55 634.15
00002580 00000158 699.86 143.90 380.47 621.36 750.69 383.41 937.77 398.24 812.80 534.85 757.26 627.10 900.93 640.48
00002581 00000159 700.40 141.61 379.88 622.05 751.73 382.25 938.08 398.17 813.36 534.35 756.75 625.36 900.46 639.67
00002582 00000160 703.60 152.56 380.26 612.21 759.24 385.92 938.70 400.02 813.33 529.32 759.75 621.20 904.04 632.20
00002583 00000161 704.17 155.09 380.80 611.98 761.48 387.09 940.31 401.82 814.86 530.87 762.37 623.24 906.41 634.66
00002584 00000162 705.06 159.31 382.29 611.44 763.33 388.21 942.85 403.77 816.90 534.61 765.25 626.35 909.90 638.43
00002585 00000163 707.63 163.92 381.45 607.80 766.75 389.40 945.37 407.18 818.15 534.36 766.95 626.59 911.66 640.48
00002586 00000164 710.71 162.54 380.84 610.18 770.58 391.00 946.70 409.62 819.20 533.52 768.81 626.86 913.17 641.46
00002587 00000165 711.91 162.62 380.80 609.38 772.21 391.64 947.74 410.03 820.91 532.89 770.46 627.05 914.09 641.61
00002588 00000166 712.66 162.10 380.30 608.43 773.74 391.50 948.48 410.61 821.84 532.14 771.07 625.84 914.46 641.02
00002589 00000167 712.80 162.47 381.02 608.45 774.56 389.62 949.16 409.48 822.40 532.04 770.87 624.34 915.02 640.08
00002590 00000168 711.97 160.97 381.40 608.32 774.22 388.68 948.39 407.66 823.15 531.47 770.96 623.39 914.61 638.38
00002591 00000169 711.19 156.76 380.83 610.25 773.30 387.38 947.07 406.08 821.89 529.79 769.82 621.08 913.69 635.66
00002592 00000170 714.63 147.82 375.77 614.14 765.70 378.54 949.25 400.23 822.88 534.81 768.18 622.73 911.77 642.21
