Video ID: 	XV_W6kPqR9U
H: 	1080
W: 	1920
FPS: 	25.0

FRAME INDEX X0 Y0 W H [Landmarks (5 Points)]

00003885 00000000 995.64 121.54 386.74 508.37 1058.57 325.27 1218.28 289.03 1119.19 394.98 1103.25 523.51 1217.63 495.79
00003886 00000001 991.00 132.38 388.04 508.35 1050.51 333.25 1203.31 296.81 1105.82 409.28 1103.64 531.93 1200.76 501.42
00003887 DELETE   979.12 143.59 394.97 510.91 1041.78 351.10 1195.47 321.03 1098.75 433.51 1098.53 546.79 1192.97 521.40
00003888 DELETE   978.57 160.88 386.17 520.86 1034.91 373.39 1180.43 342.45 1091.36 470.19 1099.28 576.86 1189.66 550.49
00003889 DELETE   965.25 177.67 391.79 524.57 1026.97 391.50 1167.96 356.79 1079.59 493.01 1097.20 601.13 1183.49 571.82
00003890 00000005 955.16 179.51 389.50 519.88 1020.59 392.79 1160.20 363.08 1076.17 492.61 1089.80 600.66 1182.87 576.85
00003891 DELETE   961.36 157.40 392.42 540.41 1015.91 383.22 1157.87 344.60 1068.62 479.08 1085.38 589.72 1177.42 556.58
00003892 00000007 949.07 147.75 388.69 526.17 1007.17 356.61 1155.04 327.90 1062.72 455.97 1067.88 571.23 1161.18 549.18
00003893 00000008 954.63 148.84 387.32 510.09 1006.27 356.30 1153.43 318.00 1063.53 435.96 1072.19 557.57 1157.76 524.78
00003894 00000009 944.79 145.38 389.65 521.05 1006.46 356.06 1148.51 320.88 1058.61 441.10 1061.40 553.90 1162.25 526.48
00003895 00000010 941.88 149.27 390.15 523.10 1002.60 360.19 1145.95 325.88 1053.86 444.61 1057.30 559.55 1156.38 533.24
00003896 00000011 941.57 151.35 387.62 521.84 1000.26 362.38 1144.34 329.97 1050.28 449.57 1055.07 560.21 1156.69 535.13
00003897 00000012 939.69 152.30 389.60 519.63 998.28 363.96 1143.78 329.40 1049.47 450.19 1053.07 558.62 1158.34 531.45
00003898 00000013 939.46 150.75 386.66 521.62 995.82 363.80 1138.53 329.40 1044.14 450.15 1049.03 556.74 1154.59 529.74
00003899 00000014 935.34 151.24 388.27 520.23 992.27 365.35 1136.07 327.95 1041.19 450.70 1048.77 558.53 1154.69 529.01
00003900 00000015 935.56 151.30 389.00 520.81 989.75 369.54 1133.78 327.62 1034.72 448.12 1046.60 561.65 1153.49 528.34
00003901 00000016 930.40 147.45 391.80 524.20 986.62 368.18 1131.23 327.48 1031.61 448.43 1044.83 562.07 1151.68 529.65
00003902 00000017 926.39 147.04 394.26 523.49 984.93 366.39 1128.53 327.18 1030.62 449.97 1045.85 562.11 1149.38 530.73
00003903 00000018 923.33 149.57 393.57 520.30 983.07 364.98 1125.73 327.37 1028.97 451.13 1044.62 562.56 1145.20 532.40
00003904 00000019 930.52 152.77 384.74 514.28 984.62 375.32 1122.05 335.64 1025.77 448.07 1040.55 559.32 1142.79 526.98
00003905 00000020 928.66 150.90 387.52 513.72 976.52 391.93 1119.85 341.20 1024.29 442.85 1035.68 561.05 1145.47 518.14
00003906 00000021 926.35 154.24 390.54 509.11 974.50 382.16 1120.83 332.13 1023.61 440.22 1035.30 557.00 1148.70 514.81
00003907 00000022 915.59 155.75 399.38 508.22 978.03 368.33 1122.21 325.26 1029.55 444.93 1039.97 553.36 1150.52 517.37
00003908 00000023 912.02 152.66 399.80 509.45 975.40 365.86 1123.05 322.09 1029.33 445.14 1040.12 554.98 1150.49 518.61
00003909 00000024 909.38 148.25 401.19 511.96 974.22 366.67 1123.23 321.10 1029.86 445.84 1041.29 557.57 1150.45 519.95
00003910 00000025 908.52 149.11 402.47 506.95 973.29 367.65 1123.91 321.71 1029.88 443.69 1038.65 555.25 1150.45 517.25
00003911 00000026 907.90 144.75 402.68 509.57 973.70 365.50 1125.42 321.42 1032.08 441.57 1037.54 552.19 1151.46 515.91
00003912 00000027 910.11 148.16 399.88 503.62 975.16 364.96 1125.33 320.36 1033.43 440.09 1038.56 548.07 1153.30 511.12
00003913 00000028 911.80 148.55 399.75 502.93 977.07 365.36 1126.76 318.87 1035.88 437.52 1039.23 546.38 1156.35 507.94
00003914 00000029 913.28 144.55 399.23 507.47 979.01 365.31 1128.36 317.03 1038.92 435.08 1040.96 546.03 1158.19 506.38
00003915 00000030 913.13 143.66 399.24 510.13 978.89 362.94 1128.64 314.65 1039.07 434.18 1041.64 546.03 1158.62 506.34
00003916 00000031 914.01 144.67 394.63 510.50 981.00 360.69 1130.56 314.12 1042.09 432.92 1045.76 549.08 1156.25 511.44
00003917 00000032 915.08 144.00 396.62 511.72 982.00 362.52 1132.37 311.84 1042.58 433.36 1049.78 551.85 1160.76 510.71
00003918 00000033 919.18 148.75 394.16 505.07 984.74 372.43 1133.25 320.82 1042.88 432.02 1050.36 547.35 1164.95 505.25
00003919 00000034 921.10 148.42 393.77 505.12 986.55 374.92 1135.58 319.90 1046.12 430.39 1051.25 548.17 1167.87 503.29
00003920 00000035 920.28 145.50 394.92 507.44 987.74 369.07 1138.52 315.34 1048.77 426.35 1050.46 546.38 1167.73 502.75
00003921 00000036 919.72 147.08 397.43 501.03 988.32 365.10 1140.75 311.86 1051.89 424.89 1051.01 543.10 1169.67 499.85
00003922 00000037 917.30 144.99 403.98 500.21 988.62 363.57 1144.13 308.59 1054.44 423.58 1052.26 543.07 1172.15 498.39
00003923 00000038 919.40 146.12 403.48 500.16 990.30 363.15 1146.98 307.91 1056.89 424.13 1055.11 543.81 1176.20 498.96
00003924 00000039 922.00 145.61 400.97 501.73 991.08 362.20 1148.14 306.08 1057.19 424.55 1056.56 544.88 1178.28 499.47
00003925 00000040 923.84 145.19 400.20 501.55 992.43 362.03 1148.99 304.88 1058.59 423.84 1058.42 543.88 1180.80 497.59
00003926 00000041 925.32 146.22 399.08 498.58 994.20 360.22 1150.03 303.45 1060.34 423.22 1060.06 541.59 1182.64 495.65
00003927 00000042 928.06 143.70 397.80 501.05 995.94 359.89 1150.42 302.14 1061.79 422.57 1061.02 541.15 1183.35 494.44
00003928 00000043 929.14 143.68 397.10 500.25 996.82 359.56 1151.23 302.05 1061.96 421.40 1060.38 540.31 1183.02 493.80
00003929 00000044 930.53 143.51 395.93 499.76 998.35 357.74 1151.39 301.03 1062.96 421.61 1061.45 539.09 1183.13 493.27
00003930 00000045 931.89 142.72 394.14 501.89 999.03 357.44 1151.40 299.61 1063.14 422.00 1063.77 539.06 1186.43 491.98
00003931 00000046 933.52 142.13 390.86 504.28 998.68 358.67 1152.46 297.57 1064.21 421.88 1066.66 540.22 1192.15 490.23
00003932 00000047 933.59 143.15 391.26 502.35 998.82 357.82 1152.82 297.00 1065.30 421.83 1067.95 539.94 1192.87 490.11
00003933 00000048 934.26 143.56 388.96 503.31 999.06 357.71 1152.81 296.42 1065.78 422.44 1069.56 540.92 1194.04 490.76
00003934 00000049 933.04 141.82 389.54 509.67 999.32 356.53 1152.08 298.14 1066.52 424.06 1069.75 542.42 1192.35 494.93
00003935 00000050 934.01 142.09 389.70 509.67 999.34 356.98 1152.22 296.93 1066.54 423.71 1070.48 542.51 1194.43 493.45
00003936 00000051 932.82 141.97 392.61 507.71 1000.19 354.67 1154.43 296.35 1067.44 419.90 1069.32 538.83 1195.15 491.24
00003937 00000052 933.12 141.75 393.49 507.13 1001.01 354.91 1155.13 296.66 1068.20 419.54 1068.87 537.58 1195.39 489.93
00003938 00000053 933.98 141.70 392.47 507.00 1001.31 354.69 1155.54 296.64 1068.69 419.81 1069.25 537.46 1195.86 490.03
00003939 00000054 935.24 143.83 391.34 505.96 1000.68 355.01 1155.18 296.00 1067.89 420.34 1069.90 538.46 1197.15 489.93
00003940 00000055 934.76 142.88 392.22 505.72 1001.01 355.17 1156.84 296.50 1068.88 419.40 1069.30 537.62 1197.52 489.44
00003941 00000056 935.25 143.68 391.54 501.18 1001.57 354.37 1157.91 297.01 1069.33 418.69 1068.62 536.65 1195.74 489.72
00003942 00000057 935.33 144.12 392.10 499.95 1002.33 352.83 1157.86 296.34 1069.30 417.45 1068.68 535.45 1195.29 489.28
00003943 00000058 935.60 143.76 391.21 500.38 1001.76 353.37 1158.10 295.38 1069.11 417.12 1069.10 535.18 1197.84 487.62
00003944 00000059 936.88 142.55 389.81 502.07 1001.73 352.49 1157.50 294.35 1069.23 416.62 1069.42 534.95 1198.88 487.20
00003945 00000060 939.10 144.91 386.11 500.80 1001.22 350.49 1153.92 291.92 1065.75 415.67 1070.48 534.21 1198.76 485.90
00003946 00000061 939.21 144.50 385.65 501.83 1002.22 348.67 1153.93 290.28 1066.25 414.35 1071.57 533.68 1198.72 485.59
00003947 00000062 938.30 142.33 386.91 501.61 1002.56 348.92 1155.34 289.40 1067.61 411.33 1070.13 533.44 1197.17 484.81
00003948 00000063 935.48 141.41 389.16 497.24 1002.78 346.15 1156.29 289.78 1067.33 406.95 1065.62 529.85 1191.34 484.10
00003949 00000064 937.44 137.70 390.58 499.77 1005.48 341.93 1159.05 292.40 1068.62 403.64 1061.95 528.52 1182.32 489.24
00003950 00000065 937.96 132.83 393.89 499.31 1006.03 338.24 1157.70 292.10 1065.89 398.92 1056.43 522.18 1176.21 485.52
00003951 00000066 939.58 126.80 394.82 504.27 1005.36 332.65 1158.20 285.42 1062.32 386.30 1051.93 516.43 1177.69 478.40
00003952 00000067 946.46 123.36 385.91 500.13 1007.29 322.68 1158.73 278.48 1062.24 377.92 1053.61 508.95 1174.98 473.78
00003953 00000068 956.08 122.17 381.25 497.23 1014.89 332.85 1162.69 284.36 1061.92 374.58 1055.65 504.81 1183.45 466.20
00003954 00000069 961.53 116.36 379.02 501.87 1019.60 326.51 1167.46 277.36 1064.75 365.52 1058.14 500.86 1186.88 462.28
00003955 00000070 975.97 119.39 376.94 503.62 1018.74 308.36 1173.38 260.90 1070.95 358.80 1075.69 503.05 1197.03 464.87
00003956 00000071 986.96 120.79 374.76 507.34 1033.10 296.69 1186.14 259.25 1082.70 358.08 1086.14 503.91 1200.48 473.25
00003957 00000072 993.47 119.41 376.22 507.37 1040.30 294.07 1196.84 262.36 1086.78 362.85 1091.47 504.29 1205.77 478.13
00003958 00000073 996.92 117.76 376.89 506.59 1052.66 302.75 1212.27 269.44 1106.42 370.85 1094.36 508.16 1213.65 481.13
00003959 00000074 1001.33 116.69 377.74 501.73 1058.57 304.71 1218.93 274.35 1112.76 372.52 1095.18 503.65 1215.50 479.56
00003960 00000075 1002.31 114.76 380.21 499.19 1062.15 303.09 1221.70 273.82 1118.55 369.38 1098.70 497.85 1217.56 474.77
00003961 00000076 1004.89 104.76 379.99 498.83 1064.67 294.18 1228.84 267.82 1124.64 361.39 1098.81 486.36 1220.99 465.74
00003962 00000077 1008.26 95.03 381.34 502.39 1070.87 286.88 1238.24 261.53 1133.02 355.77 1102.57 479.59 1223.81 460.16
00003963 00000078 1008.81 91.12 387.19 505.86 1076.62 285.65 1247.88 254.22 1142.04 348.86 1110.37 479.87 1233.81 455.47
00003964 00000079 1014.25 90.27 387.61 510.79 1085.18 286.47 1257.30 253.95 1151.36 349.58 1119.69 485.11 1240.68 459.93
00003965 00000080 1021.90 99.73 385.01 506.99 1091.73 291.63 1261.99 260.40 1157.91 357.04 1128.49 493.28 1248.26 468.81
00003966 00000081 1025.99 115.36 382.17 502.74 1097.74 303.90 1263.38 272.72 1167.91 372.83 1138.18 502.77 1258.14 478.45
00003967 00000082 1026.32 118.90 382.51 508.68 1099.49 315.05 1265.29 282.82 1167.20 385.18 1140.01 513.64 1262.61 488.30
00003968 00000083 1027.73 116.10 380.40 516.52 1098.68 322.17 1263.79 290.19 1168.37 397.85 1142.89 521.47 1265.30 496.34
00003969 00000084 1023.56 122.54 380.51 515.13 1095.21 328.74 1259.18 296.02 1163.85 405.07 1141.14 529.20 1258.81 504.06
00003970 DELETE   1019.70 122.95 379.54 517.90 1084.70 329.18 1251.40 297.14 1150.40 406.19 1127.34 528.59 1251.43 504.60
00003971 DELETE   1003.84 124.11 385.77 512.70 1071.15 325.82 1234.23 295.70 1134.66 401.12 1112.53 523.47 1235.91 501.42
00003972 DELETE   994.00 129.64 386.95 502.14 1058.63 328.33 1221.84 293.10 1119.70 397.81 1100.01 521.36 1222.29 494.39
00003973 00000088 995.21 127.92 379.80 506.64 1049.26 326.51 1210.00 296.13 1102.84 404.18 1093.24 524.61 1208.38 499.59
00003974 00000089 990.74 136.03 379.35 501.71 1043.06 329.18 1205.27 298.37 1097.82 407.53 1092.38 531.48 1202.92 505.92
00003975 00000090 983.91 143.32 387.04 509.57 1042.86 341.39 1209.14 308.28 1099.95 414.68 1088.53 540.40 1199.25 512.84
00003976 00000091 989.32 153.51 385.85 507.35 1048.52 348.02 1215.58 313.79 1108.53 422.11 1097.93 552.25 1204.79 523.57
00003977 00000092 990.63 162.29 386.32 507.93 1053.73 354.56 1223.06 323.94 1118.97 438.63 1102.95 560.41 1220.08 534.29
00003978 00000093 994.96 169.69 380.76 505.90 1055.56 356.27 1223.68 328.03 1124.26 437.86 1101.51 560.95 1225.10 538.02
00003979 00000094 1000.64 165.28 380.57 510.66 1061.07 358.35 1229.19 332.76 1128.01 442.61 1104.02 562.78 1232.30 541.73
00003980 00000095 996.04 159.02 388.84 514.46 1066.20 357.20 1234.97 331.87 1130.61 445.84 1110.09 557.63 1236.11 537.56
00003981 00000096 998.15 155.95 390.59 517.09 1069.76 358.02 1237.66 330.49 1135.37 445.86 1114.79 559.29 1237.86 537.79
00003982 00000097 1005.69 156.98 389.46 509.66 1071.95 353.90 1245.03 325.75 1143.48 439.08 1118.55 561.29 1241.94 537.70
00003983 00000098 1003.71 154.12 390.49 510.81 1075.62 352.67 1243.70 326.16 1142.14 440.77 1119.18 552.76 1239.95 532.61
00003984 00000099 1006.63 151.42 389.73 510.96 1077.49 352.19 1246.15 324.26 1143.78 437.77 1120.24 552.14 1240.30 531.22
00003985 00000100 1010.60 145.56 387.26 512.30 1080.24 350.70 1248.11 320.66 1147.93 433.26 1123.26 549.14 1244.18 526.79
00003986 00000101 1016.26 145.47 383.58 506.92 1080.42 350.01 1250.14 318.64 1146.16 429.11 1122.58 547.57 1246.49 523.92
00003987 00000102 1016.76 144.00 385.08 507.53 1081.35 348.96 1252.57 316.70 1147.66 426.59 1123.16 545.85 1249.72 521.29
00003988 00000103 1017.32 139.40 385.98 513.08 1083.05 346.81 1253.26 312.54 1150.80 425.69 1126.60 546.37 1251.19 520.28
00003989 00000104 1017.40 135.89 385.75 517.68 1084.54 343.11 1254.92 308.87 1153.71 420.71 1129.77 544.74 1254.38 518.58
00003990 00000105 1020.87 128.67 384.89 520.71 1086.08 340.21 1256.33 305.27 1151.64 413.91 1127.20 540.27 1254.67 513.52
00003991 00000106 1023.03 125.79 382.64 517.78 1087.89 336.24 1257.46 302.33 1151.01 408.93 1126.93 534.17 1255.23 508.30
00003992 00000107 1025.01 121.90 382.48 517.81 1089.65 333.47 1259.30 298.19 1152.73 403.74 1129.26 530.60 1259.15 503.44
00003993 00000108 1024.55 119.95 382.87 520.21 1090.86 331.26 1260.78 296.06 1154.75 399.71 1130.79 528.00 1261.56 500.65
00003994 00000109 1022.97 120.39 384.11 522.95 1092.95 331.39 1259.17 294.17 1158.81 398.64 1135.84 531.04 1259.77 502.13
00003995 00000110 1022.81 122.64 381.53 521.85 1094.40 332.43 1258.68 296.68 1162.45 403.28 1140.46 535.47 1257.09 508.23
00003996 00000111 1021.74 124.90 383.82 520.94 1093.04 334.76 1259.70 300.61 1162.28 412.18 1139.44 539.46 1257.08 513.35
00003997 00000112 1022.17 128.46 385.30 516.31 1092.79 339.05 1260.03 304.57 1164.56 418.44 1140.17 540.45 1261.23 513.73
00003998 00000113 1022.35 137.92 383.89 509.58 1092.38 344.97 1258.80 312.65 1163.76 426.91 1138.62 542.37 1261.06 517.59
00003999 00000114 1024.03 146.53 381.19 502.66 1093.74 350.47 1260.01 319.81 1165.72 438.08 1140.29 545.47 1261.33 522.20
00004000 00000115 1022.02 148.42 383.31 503.29 1094.01 353.52 1260.66 323.43 1166.56 442.16 1142.18 547.50 1263.00 524.68
00004001 00000116 1021.58 149.74 383.41 503.95 1093.81 355.66 1261.79 324.82 1167.94 443.76 1144.78 550.75 1266.09 527.22
00004002 00000117 1018.90 150.18 386.49 506.14 1091.22 357.50 1261.68 324.80 1165.61 444.86 1145.24 553.42 1268.84 528.15
00004003 00000118 1018.86 146.53 386.18 512.66 1088.62 359.41 1260.00 322.13 1162.46 443.88 1146.20 555.97 1272.60 526.63
00004004 00000119 1021.25 144.59 384.07 514.97 1089.42 358.60 1260.38 319.23 1163.77 442.69 1146.23 553.16 1276.08 521.88
00004005 00000120 1023.13 142.43 382.89 512.82 1090.01 357.89 1259.27 316.07 1164.13 439.30 1146.65 548.90 1278.29 515.45
00004006 00000121 1023.04 140.84 383.00 514.00 1089.29 356.32 1257.66 312.72 1163.96 436.68 1147.02 547.71 1278.75 512.64
00004007 00000122 1023.39 139.06 382.27 513.82 1087.79 355.77 1256.42 311.28 1161.04 432.64 1145.60 546.72 1277.91 510.95
00004008 00000123 1023.19 140.66 381.98 507.39 1088.30 355.30 1255.69 310.24 1161.84 429.09 1144.68 544.46 1275.38 508.39
00004009 00000124 1021.27 135.24 385.33 508.33 1089.21 349.74 1256.18 309.58 1161.86 423.65 1140.90 541.61 1268.04 509.93
00004010 00000125 1018.57 131.93 387.41 512.60 1088.91 344.88 1254.62 306.28 1159.90 419.95 1138.66 540.24 1262.45 510.02
00004011 00000126 1018.92 131.87 383.95 512.69 1089.62 341.89 1255.42 304.35 1161.13 418.41 1139.82 540.64 1260.12 511.61
00004012 00000127 1018.95 127.42 384.20 518.16 1090.04 338.45 1256.19 301.58 1160.58 414.44 1139.80 539.17 1260.20 510.71
00004013 00000128 1021.23 125.89 380.63 516.54 1091.27 336.32 1255.77 298.12 1161.47 408.26 1141.58 536.83 1259.93 507.36
00004014 00000129 1023.95 125.43 377.09 514.05 1093.51 332.03 1256.11 293.37 1164.20 401.72 1142.51 530.64 1261.24 500.92
CROP_BBOX: 712 0 1685 885
