Video ID: 	UhBKCY5rEwA
H: 	1080
W: 	1920
FPS: 	25.0

FRAME INDEX X0 Y0 W H [Landmarks (5 Points)]

00007991 00000000 617.61 220.44 512.27 741.68 724.24 469.18 976.42 484.45 827.74 660.46 737.12 761.36 940.95 775.41
00007992 00000001 622.49 218.90 503.18 719.31 719.65 461.80 975.65 482.91 823.98 652.64 732.98 746.75 936.51 766.14
00007993 DELETE   629.56 202.40 492.40 716.92 733.16 461.55 981.91 481.05 838.06 640.94 741.02 735.72 941.41 752.10
00007994 00000003 638.07 192.10 490.34 720.43 743.29 439.92 990.57 459.27 847.87 629.28 754.97 726.02 951.80 742.63
00007995 00000004 641.83 197.36 487.41 708.18 748.10 440.71 997.50 450.15 859.91 623.72 768.28 727.14 962.74 735.38
00007996 00000005 642.23 206.43 487.02 693.75 751.08 437.73 1001.85 443.97 866.16 620.88 777.23 725.74 968.73 730.95
00007997 00000006 645.99 198.96 483.16 692.35 752.88 432.95 1001.59 436.48 869.61 617.29 783.56 722.02 969.49 725.45
00007998 00000007 653.41 196.89 470.68 676.36 757.40 431.26 1002.63 427.28 879.86 604.93 789.42 712.60 976.12 708.75
00007999 00000008 657.16 197.60 473.28 672.12 763.20 425.95 1005.51 421.25 884.72 597.15 794.36 703.50 983.91 698.71
00008000 00000009 664.25 191.62 472.13 685.24 769.00 424.44 1008.25 417.93 889.89 596.19 799.86 703.35 991.53 697.15
00008001 00000010 668.56 194.12 472.12 689.70 773.98 426.09 1011.89 418.66 895.02 598.62 806.33 707.72 997.21 700.63
00008002 DELETE   676.05 196.02 474.68 687.83 780.35 429.31 1019.16 422.63 900.29 598.80 812.08 708.78 1003.10 701.98
00008003 00000012 682.45 187.13 473.20 696.81 787.70 429.44 1024.19 421.34 906.75 597.94 820.86 706.39 1013.12 698.29
00008004 DELETE   689.58 190.09 476.83 691.90 797.15 429.30 1033.26 419.56 917.63 593.69 833.99 704.88 1024.53 695.12
00008005 DELETE   694.98 190.50 482.99 688.99 806.32 422.18 1050.72 417.28 933.02 601.65 845.73 700.54 1036.89 697.20
00008006 00000015 704.64 190.14 489.38 691.81 813.90 427.71 1056.13 414.05 941.64 598.69 865.42 704.83 1056.61 693.92
00008007 DELETE   711.91 187.47 490.42 703.82 820.37 438.99 1060.90 414.89 953.68 602.09 878.74 712.27 1076.35 690.75
00008008 00000017 713.40 184.47 494.19 720.33 827.48 453.11 1063.29 420.54 965.30 616.49 895.14 727.39 1088.43 699.27
00008009 00000018 717.10 188.96 500.40 720.48 831.13 461.82 1064.81 426.63 966.75 625.67 904.27 735.61 1092.78 705.09
00008010 DELETE   715.83 196.86 510.17 716.21 829.19 468.65 1067.80 433.31 965.14 637.63 906.62 740.81 1098.40 709.82
00008011 00000020 713.86 206.06 520.24 713.10 831.36 475.83 1072.59 436.56 970.90 645.14 916.07 748.94 1107.15 714.48
00008012 00000021 724.33 208.08 514.02 710.79 838.01 483.29 1075.07 442.54 975.58 651.23 922.89 753.70 1111.76 718.61
00008013 00000022 730.81 213.34 509.56 709.82 844.01 486.81 1080.40 445.48 980.52 657.41 929.31 757.30 1119.00 721.59
00008014 DELETE   732.12 205.24 520.74 716.09 846.29 489.00 1092.22 453.86 986.77 661.03 929.03 752.57 1135.66 721.86
00008015 DELETE   743.00 203.09 519.76 718.05 854.43 485.93 1098.87 452.81 992.08 658.58 934.00 750.05 1137.99 721.19
00008016 00000025 749.36 205.88 518.57 714.84 858.02 484.91 1104.47 450.36 994.84 655.08 937.74 748.48 1143.70 718.65
00008017 DELETE   748.91 204.37 524.82 718.73 865.56 489.04 1110.22 455.87 1002.07 652.22 939.32 747.57 1146.54 718.75
00008018 DELETE   747.87 206.78 522.89 718.48 863.13 486.15 1107.54 454.22 998.12 653.07 938.34 748.17 1144.12 720.42
00008019 DELETE   740.90 195.52 521.26 730.31 853.90 484.92 1101.04 449.45 992.45 651.18 931.76 750.17 1139.43 719.48
00008020 00000029 732.14 205.23 521.21 714.06 843.79 482.43 1091.36 447.24 981.84 652.16 923.13 748.29 1130.25 717.60
00008021 00000030 725.13 216.94 518.36 699.00 836.30 477.91 1078.51 436.44 973.29 647.25 924.76 753.42 1112.61 717.31
00008022 00000031 718.79 209.58 526.45 709.76 829.08 478.15 1074.03 437.97 966.45 648.01 918.97 755.15 1107.91 720.15
00008023 00000032 717.24 208.30 525.19 709.52 826.66 478.05 1070.19 436.80 962.31 647.11 919.64 756.64 1104.82 720.60
00008024 00000033 722.75 212.69 516.11 706.94 827.63 480.31 1070.46 439.01 962.92 649.55 921.89 761.45 1105.11 725.57
00008025 00000034 725.68 217.36 517.40 705.85 833.96 481.30 1075.64 440.40 968.69 650.62 928.58 763.79 1108.48 728.07
00008026 00000035 735.78 224.02 506.52 706.61 842.34 481.48 1077.84 440.57 975.44 651.73 940.14 766.18 1113.62 730.01
00008027 00000036 744.10 220.33 512.12 712.96 848.66 487.05 1087.57 445.74 981.81 652.97 939.32 761.62 1133.88 726.85
00008028 00000037 750.13 214.07 511.67 716.69 855.64 486.06 1094.43 445.64 988.43 648.59 943.58 757.81 1137.76 723.93
00008029 00000038 753.96 218.92 515.42 708.87 859.69 484.83 1097.41 442.91 991.66 645.36 949.81 753.69 1142.33 718.45
00008030 00000039 759.64 216.86 515.20 703.44 864.29 484.47 1102.38 441.88 996.73 643.07 954.33 753.13 1144.30 717.15
00008031 00000040 762.55 219.71 513.49 695.64 867.38 486.14 1107.31 446.27 1001.44 645.39 954.59 752.30 1145.32 718.54
00008032 00000041 759.46 225.11 518.08 698.74 865.94 492.06 1105.55 452.29 1001.35 653.83 958.28 760.38 1145.37 727.07
00008033 00000042 767.88 243.48 512.93 700.52 868.83 503.08 1105.18 460.23 1005.40 663.21 965.84 775.41 1150.73 739.85
00008034 00000043 765.45 240.10 512.39 712.64 867.97 508.83 1104.34 466.34 1002.14 671.23 965.71 784.90 1147.76 749.38
00008035 00000044 766.17 249.43 506.61 692.39 862.62 509.91 1102.76 468.77 994.93 673.83 953.89 778.23 1143.41 744.08
00008036 00000045 763.39 253.63 505.40 688.45 858.10 510.71 1099.44 469.96 990.86 676.10 947.85 777.97 1140.84 744.06
00008037 00000046 759.61 253.37 506.94 689.24 855.67 511.45 1096.82 471.17 988.39 678.16 947.47 782.45 1133.97 748.95
00008038 00000047 756.43 246.07 506.32 705.87 855.43 517.01 1093.03 475.60 985.67 681.22 948.09 791.69 1127.87 757.40
00008039 00000048 750.19 246.77 507.30 717.94 853.65 520.49 1090.82 479.07 986.26 684.83 944.92 798.44 1128.12 763.71
00008040 00000049 740.26 259.94 504.47 704.43 844.10 529.20 1076.49 482.95 972.70 688.01 937.96 808.18 1112.37 766.89
00008041 00000050 736.13 268.08 502.91 694.99 838.43 531.94 1071.14 486.13 966.10 694.07 933.71 808.87 1108.49 767.94
00008042 00000051 730.62 269.88 506.27 694.08 833.13 531.79 1068.61 486.67 960.98 696.29 927.28 807.76 1105.93 767.59
00008043 00000052 725.03 270.62 509.18 694.25 829.53 533.95 1064.92 488.33 958.52 698.29 924.69 809.02 1102.93 768.57
00008044 00000053 720.71 270.12 511.67 701.55 826.51 535.28 1060.85 489.88 955.04 701.59 923.92 813.58 1100.33 773.25
00008045 00000054 716.77 271.88 516.57 706.96 824.21 534.27 1057.90 492.41 952.30 702.73 923.55 815.91 1095.09 778.82
00008046 00000055 714.53 278.24 518.90 697.17 822.26 536.21 1059.09 497.78 951.15 708.77 919.07 816.37 1092.19 782.18
00008047 00000056 715.18 276.61 517.42 696.46 822.89 536.78 1060.48 497.91 951.65 707.80 917.62 816.58 1092.22 782.05
00008048 00000057 717.97 276.79 515.49 696.98 824.24 534.81 1061.45 495.14 952.47 705.68 918.17 815.44 1093.15 780.16
00008049 00000058 720.14 270.51 514.70 712.51 825.88 535.24 1062.49 493.93 954.31 705.01 920.05 817.50 1097.41 780.91
00008050 00000059 719.35 274.89 517.19 709.67 825.89 533.64 1064.45 492.44 954.53 703.47 918.55 816.53 1098.13 779.99
00008051 00000060 721.72 277.56 514.94 707.11 826.91 533.95 1065.75 493.49 954.63 703.28 918.31 817.14 1097.59 781.21
00008052 00000061 721.65 274.76 516.34 704.75 825.30 534.80 1066.30 496.00 952.87 703.51 914.11 815.33 1094.89 781.04
00008053 00000062 723.21 272.69 515.57 709.77 826.67 534.28 1066.26 495.66 953.08 704.08 916.03 817.16 1094.19 782.78
00008054 00000063 726.58 271.39 516.78 720.75 831.03 533.97 1070.63 496.20 957.71 703.73 921.50 821.04 1098.30 787.18
00008055 00000064 732.04 268.11 515.30 731.43 836.77 534.59 1075.64 497.09 963.77 704.66 927.80 826.03 1102.60 792.12
00008056 00000065 739.55 264.13 519.38 742.16 846.39 530.28 1091.80 498.06 979.72 703.14 927.95 824.24 1115.48 796.82
00008057 00000066 744.36 269.19 520.52 744.07 853.26 527.54 1097.93 499.04 984.44 702.05 929.85 824.16 1117.91 799.86
00008058 00000067 743.56 259.69 525.14 755.74 850.58 529.10 1094.39 503.48 972.16 701.49 923.30 820.31 1113.00 798.67
00008059 00000068 745.16 260.91 527.81 754.46 854.09 529.23 1098.81 504.94 974.23 701.56 923.21 822.41 1111.51 802.18
00008060 00000069 755.25 280.09 523.47 734.40 862.94 522.42 1106.75 501.30 985.23 696.67 929.43 820.42 1116.25 802.36
00008061 00000070 761.97 272.71 518.21 735.89 871.91 521.46 1112.40 510.61 987.35 695.21 924.80 811.99 1112.76 802.38
00008062 00000071 763.69 267.87 517.12 735.29 871.93 525.05 1111.90 513.55 985.85 697.60 924.13 810.27 1113.50 800.34
00008063 00000072 767.31 265.08 514.52 739.00 858.68 529.18 1103.34 507.95 966.15 695.55 914.44 810.57 1116.33 792.18
00008064 00000073 771.11 273.36 510.32 728.71 859.37 526.25 1101.91 506.28 966.60 689.57 915.10 810.46 1109.94 793.53
00008065 00000074 774.50 266.54 505.07 721.06 863.50 519.34 1102.96 504.15 968.44 684.63 915.03 804.68 1103.16 792.21
00008066 00000075 780.27 263.55 499.60 714.24 866.34 513.34 1108.68 502.28 971.87 682.32 916.03 798.47 1104.00 789.75
00008067 00000076 785.78 269.57 496.49 703.74 868.86 503.25 1112.21 498.71 973.08 679.48 913.17 790.37 1099.57 787.65
00008068 00000077 791.68 273.49 492.81 699.46 871.21 498.82 1113.98 498.17 974.59 675.44 911.85 788.56 1096.08 789.42
00008069 00000078 797.76 267.10 489.47 709.43 876.25 490.64 1119.83 493.94 977.50 670.84 915.32 788.66 1094.80 793.02
00008070 00000079 803.89 255.43 485.59 726.51 880.11 483.46 1124.52 489.33 977.88 668.03 917.30 791.52 1092.33 798.22
00008071 00000080 810.27 254.66 483.71 724.29 884.73 487.85 1125.25 494.81 978.64 664.74 916.15 789.87 1091.32 797.59
00008072 00000081 817.77 251.72 485.15 723.57 893.82 490.67 1128.60 501.45 978.89 662.51 920.93 784.52 1097.37 795.11
00008073 00000082 820.75 248.79 488.61 725.47 893.32 482.85 1136.75 494.73 982.38 664.12 920.93 779.78 1105.38 791.14
00008074 00000083 824.01 243.63 489.85 730.96 896.76 472.74 1142.69 487.55 983.42 660.32 920.83 773.62 1110.69 787.13
00008075 00000084 828.20 236.04 483.65 727.17 902.45 470.83 1146.65 490.60 984.07 654.66 912.14 766.53 1104.85 782.84
00008076 00000085 825.69 241.10 488.08 727.71 901.78 467.73 1146.56 490.54 983.09 655.65 916.88 764.04 1103.03 784.69
00008077 00000086 826.79 241.65 487.82 730.31 902.45 466.53 1144.03 490.23 980.11 655.11 918.46 767.79 1100.55 789.09
00008078 00000087 821.81 235.76 496.25 738.77 911.10 472.08 1147.43 494.56 981.57 656.06 920.30 770.58 1101.26 790.34
00008079 00000088 819.06 237.13 498.04 738.81 909.40 471.45 1146.46 499.26 978.69 657.88 914.50 770.27 1096.51 794.48
00008080 00000089 816.65 228.00 498.62 737.33 905.31 473.38 1147.38 502.32 975.82 662.32 907.02 760.97 1101.25 785.95
00008081 00000090 825.13 233.19 486.66 727.15 900.41 466.74 1140.70 501.31 968.88 659.08 900.92 757.29 1091.67 785.79
00008082 00000091 817.10 228.89 498.92 736.15 907.82 468.75 1146.89 502.31 974.21 657.67 906.15 758.33 1094.08 787.36
00008083 00000092 826.20 237.78 486.63 729.81 897.97 459.02 1140.94 496.41 965.02 647.78 897.94 756.64 1080.79 790.20
00008084 00000093 825.64 238.93 486.91 728.81 899.33 458.78 1143.00 498.31 966.11 648.09 897.83 755.91 1080.55 791.21
00008085 00000094 818.11 230.53 496.90 732.44 910.76 466.54 1147.89 504.94 975.45 656.91 904.82 756.76 1088.11 789.87
00008086 00000095 821.36 235.32 495.51 725.61 911.84 469.21 1148.11 507.96 976.84 661.31 907.00 757.49 1089.81 790.76
00008087 00000096 831.33 264.04 487.98 692.33 904.56 473.79 1152.37 520.01 974.57 666.30 906.57 759.09 1088.80 797.92
00008088 00000097 834.01 255.19 488.03 702.03 907.24 477.31 1153.84 523.44 975.97 673.95 908.63 763.18 1087.58 802.42
00008089 00000098 836.85 244.59 487.27 716.42 910.43 482.88 1154.49 528.26 978.16 678.16 913.78 774.06 1084.63 812.89
00008090 00000099 839.76 255.47 486.47 710.71 907.78 489.06 1154.76 528.50 980.52 685.82 919.61 783.68 1095.82 817.59
00008091 00000100 833.52 256.28 491.41 730.21 908.89 507.91 1150.08 528.97 987.80 696.69 923.35 792.43 1116.43 810.57
00008092 00000101 828.40 289.89 498.69 705.70 898.66 519.65 1141.61 529.94 982.43 703.83 928.19 804.59 1126.57 813.18
00008093 DELETE   825.82 322.84 499.07 666.88 891.05 519.77 1125.52 527.83 963.69 705.37 923.89 797.74 1115.62 803.44
00008094 DELETE   819.12 320.44 497.37 656.75 869.54 519.57 1090.20 528.49 925.78 701.87 906.63 792.73 1089.96 799.01
00008095 DELETE   815.57 305.62 484.27 663.34 858.51 517.75 1063.99 529.62 901.27 690.77 889.81 786.59 1057.16 796.74
00008096 00000105 810.21 287.91 485.48 676.30 856.10 513.79 1051.82 527.61 885.99 681.12 883.92 780.85 1045.31 792.52
00008097 DELETE   813.09 279.67 480.73 678.34 856.30 507.25 1055.84 522.14 890.25 675.13 883.52 775.32 1047.21 787.79
00008098 00000107 817.81 292.60 477.43 663.07 863.78 507.52 1067.41 519.51 904.63 675.50 893.67 772.44 1061.06 782.43
00008099 DELETE   825.72 295.50 480.78 658.91 881.11 506.09 1090.14 518.99 930.15 673.37 909.81 767.11 1083.35 777.23
00008100 DELETE   829.41 301.98 481.00 661.84 902.81 500.22 1115.23 515.25 961.36 667.25 927.06 768.75 1097.11 780.81
00008101 00000110 831.28 280.40 485.82 684.12 914.89 513.30 1131.44 521.83 984.00 674.38 935.83 772.03 1117.81 779.32
00008102 00000111 832.03 267.22 484.63 697.46 919.37 517.13 1136.07 525.18 990.42 675.50 937.90 774.58 1120.53 781.64
00008103 00000112 831.90 275.58 473.47 688.23 911.58 513.21 1126.79 523.66 983.69 676.97 934.73 775.16 1116.15 782.98
00008104 00000113 829.45 278.94 464.75 672.55 905.02 523.31 1116.87 529.26 975.86 674.47 925.49 773.19 1107.31 776.82
00008105 00000114 824.44 282.19 464.56 663.68 897.94 516.07 1112.07 523.36 967.58 671.78 919.14 768.93 1100.02 773.46
00008106 DELETE   815.26 274.04 473.99 674.80 892.49 508.61 1113.83 515.15 968.76 671.21 922.95 767.50 1101.29 773.10
00008107 00000116 812.19 263.70 467.29 687.68 887.18 506.96 1104.63 509.23 962.00 665.20 920.83 765.24 1099.44 767.26
00008108 00000117 805.62 264.10 471.47 684.47 883.06 501.12 1100.57 503.95 959.96 663.70 920.00 762.70 1096.58 765.23
00008109 00000118 802.66 267.73 467.76 669.23 879.10 497.49 1100.07 498.92 960.06 661.38 918.41 758.26 1095.22 759.48
00008110 00000119 799.17 267.84 471.38 665.40 875.84 496.05 1097.16 497.43 957.10 657.99 914.41 753.44 1091.99 754.37
00008111 00000120 795.21 268.84 473.77 669.83 874.01 495.44 1096.39 495.17 955.69 658.91 914.06 754.35 1095.21 753.72
00008112 00000121 794.99 270.94 473.39 676.64 873.97 498.44 1095.54 495.74 956.97 661.58 914.94 759.68 1097.79 757.04
00008113 00000122 795.92 272.19 471.94 679.36 875.34 498.92 1097.18 496.37 958.72 665.22 916.44 762.26 1100.63 759.75
00008114 00000123 797.20 273.72 469.78 679.55 877.70 501.21 1100.14 497.49 962.45 666.30 918.40 763.52 1104.36 760.07
CROP_BBOX: 388 0 1551 1080
