Video ID: 	KZpHl8LnmvA
H: 	1080
W: 	1920
FPS: 	25.0

FRAME INDEX X0 Y0 W H [Landmarks (5 Points)]

00004520 00000000 908.21 226.06 415.82 597.19 1093.26 444.80 1258.92 473.45 1202.71 560.05 1087.92 658.64 1214.05 682.16
00004521 00000001 910.93 228.72 417.27 591.61 1098.13 444.16 1263.21 473.83 1206.91 560.29 1092.90 656.51 1218.25 680.80
00004522 00000002 910.66 231.77 420.57 591.66 1097.73 449.23 1263.89 480.33 1205.29 566.60 1090.10 659.42 1217.45 684.72
00004523 00000003 912.46 234.64 422.40 586.10 1103.22 451.82 1271.33 485.65 1212.74 568.61 1093.83 658.42 1223.28 686.23
00004524 00000004 920.89 231.24 413.64 575.61 1105.63 445.96 1281.63 480.88 1221.05 563.65 1101.15 654.10 1235.46 682.90
00004525 00000005 922.00 228.34 412.22 572.56 1103.12 445.08 1282.30 478.57 1219.81 565.20 1098.88 652.34 1236.31 679.95
00004526 00000006 920.05 232.87 412.72 564.09 1094.45 447.29 1275.10 479.25 1207.21 568.82 1088.10 651.12 1227.55 677.65
00004527 00000007 918.94 233.62 410.97 563.12 1089.92 448.91 1271.22 479.21 1202.28 570.36 1085.50 652.36 1226.41 677.47
00004528 00000008 916.79 232.23 409.52 567.77 1084.87 450.08 1266.53 477.77 1197.81 570.95 1083.72 655.16 1224.17 677.78
00004529 00000009 912.90 231.55 407.74 573.64 1079.25 451.84 1263.26 480.48 1193.46 568.28 1077.28 657.08 1220.57 680.42
00004530 00000010 907.46 226.65 412.63 588.32 1076.31 447.82 1257.25 476.41 1190.70 563.76 1073.19 655.18 1218.09 678.21
00004531 00000011 905.07 223.36 411.63 595.07 1074.43 441.56 1252.39 467.98 1189.25 560.31 1070.79 654.70 1213.45 675.71
00004532 00000012 901.05 222.99 407.67 585.28 1067.40 437.06 1249.98 463.38 1183.36 561.09 1065.29 653.64 1207.85 674.90
00004533 00000013 894.36 221.85 408.83 591.57 1057.56 436.62 1239.63 459.23 1173.36 564.49 1056.77 657.62 1199.06 675.86
00004534 00000014 887.53 219.70 409.11 602.41 1050.35 438.81 1229.82 460.45 1164.86 567.66 1050.30 662.93 1190.72 680.57
00004535 00000015 887.44 222.99 400.81 595.05 1045.84 445.82 1224.58 465.51 1161.18 566.34 1049.21 664.16 1195.02 680.49
00004536 00000016 883.54 226.96 401.25 593.56 1044.73 451.28 1221.48 469.94 1161.51 571.38 1046.49 663.67 1195.33 679.40
00004537 00000017 881.91 233.52 402.94 596.53 1047.67 454.77 1222.60 475.39 1162.98 576.35 1041.55 665.11 1194.73 682.96
00004538 00000018 880.72 233.38 414.67 600.64 1058.76 451.30 1228.06 478.24 1170.20 578.44 1044.28 662.23 1192.61 684.73
00004539 DELETE   888.19 232.26 415.32 591.51 1067.78 445.42 1247.51 474.30 1185.59 567.66 1061.83 657.84 1210.72 681.42
00004540 00000020 895.97 234.59 412.48 577.34 1077.01 442.90 1256.82 474.18 1192.44 563.44 1069.70 651.50 1213.86 676.95
00004541 00000021 898.22 231.85 414.05 582.36 1079.76 440.36 1257.25 473.28 1193.14 562.00 1070.26 651.41 1211.49 678.21
00004542 00000022 898.93 230.44 414.23 582.01 1081.25 435.45 1256.62 469.06 1193.02 556.85 1070.05 647.03 1209.79 674.19
00004543 00000023 900.54 227.98 412.69 580.33 1079.13 433.13 1256.97 467.19 1191.29 554.49 1067.99 644.16 1209.81 671.77
00004544 00000024 900.07 227.86 409.93 576.58 1074.34 432.24 1254.02 465.61 1186.83 553.11 1064.28 642.29 1208.46 669.50
00004545 00000025 896.39 225.03 411.15 579.39 1070.12 431.99 1247.81 463.70 1182.42 553.22 1059.28 639.97 1204.74 665.77
00004546 00000026 894.26 222.96 410.25 582.59 1064.22 432.09 1241.80 461.15 1176.20 554.21 1055.68 642.40 1200.32 665.77
00004547 00000027 888.69 223.44 409.97 587.18 1054.15 435.63 1231.50 460.95 1166.72 555.04 1046.65 644.32 1196.05 664.85
00004548 00000028 889.65 226.97 400.88 579.64 1046.27 441.76 1221.80 465.00 1157.69 558.19 1039.13 642.92 1196.70 662.83
00004549 00000029 886.85 225.06 397.89 578.56 1038.39 443.40 1215.29 461.74 1153.52 556.77 1036.29 644.48 1194.55 660.32
00004550 00000030 882.04 222.14 398.15 574.05 1029.69 440.19 1208.36 454.88 1145.72 552.83 1029.26 640.18 1189.66 653.00
00004551 00000031 874.78 226.74 399.52 567.70 1021.09 448.27 1200.40 461.10 1135.73 554.81 1022.73 640.24 1182.62 651.43
00004552 DELETE   866.68 228.27 403.72 574.54 1017.45 448.00 1193.85 463.05 1130.06 556.79 1018.42 644.24 1172.68 657.04
00004553 00000033 862.26 228.82 403.82 580.02 1012.77 445.14 1188.57 459.82 1124.82 554.53 1014.60 646.75 1166.93 659.11
00004554 00000034 857.73 225.66 406.76 586.40 1009.20 443.24 1183.58 456.18 1120.89 553.01 1012.64 647.37 1164.00 657.91
00004555 00000035 853.80 224.21 408.83 588.83 1004.56 441.75 1181.32 454.10 1117.57 550.26 1010.35 647.64 1162.66 657.47
00004556 00000036 850.09 221.42 409.49 587.56 998.57 439.96 1180.25 452.64 1112.23 547.72 1006.76 645.39 1160.83 655.11
00004557 00000037 848.37 218.34 407.65 586.98 993.23 437.70 1179.19 449.26 1109.07 547.25 1005.58 645.67 1159.84 654.40
00004558 00000038 845.03 219.24 409.60 589.58 989.84 436.12 1174.48 448.25 1105.10 546.30 999.83 643.58 1156.80 652.51
00004559 00000039 840.42 220.53 410.69 589.77 986.28 435.57 1169.59 446.78 1101.02 545.27 995.41 643.43 1150.90 651.71
00004560 00000040 837.53 221.79 410.08 588.89 981.14 436.64 1164.32 447.42 1095.65 545.14 990.29 643.01 1147.66 651.12
00004561 00000041 835.87 224.31 409.78 583.29 975.86 436.93 1160.63 446.30 1090.90 544.67 986.67 642.58 1145.29 649.79
00004562 00000042 834.88 226.39 406.10 575.70 972.52 444.69 1157.31 452.53 1087.80 544.46 985.47 644.08 1145.87 650.32
00004563 00000043 833.40 226.85 404.62 572.68 970.51 447.22 1155.48 453.60 1086.23 545.43 984.34 643.96 1145.53 649.22
00004564 00000044 833.49 224.75 402.83 571.35 969.44 447.94 1153.66 453.33 1084.43 545.14 983.83 642.54 1144.94 647.10
00004565 00000045 833.12 225.16 402.68 566.03 969.61 446.87 1153.58 452.19 1084.06 543.98 983.32 640.35 1143.88 644.94
00004566 00000046 832.80 225.48 402.22 561.71 970.17 446.47 1154.90 452.34 1084.76 544.64 982.98 639.78 1144.03 644.97
00004567 00000047 833.07 227.20 402.64 562.87 971.12 448.05 1155.01 455.90 1084.61 548.26 982.06 640.99 1142.98 647.82
00004568 00000048 834.59 230.41 403.16 561.91 972.73 448.76 1157.14 459.62 1084.35 550.27 983.09 643.19 1142.05 652.31
00004569 00000049 835.59 229.96 404.98 564.55 974.23 448.93 1160.11 460.49 1086.00 551.00 984.74 644.83 1143.32 654.36
00004570 00000050 837.01 227.55 405.51 564.79 976.11 448.13 1163.01 460.75 1087.93 552.31 985.34 644.68 1144.58 655.17
00004571 00000051 837.66 226.96 407.01 569.37 978.42 448.80 1165.26 462.08 1090.11 555.68 988.38 646.19 1146.15 657.11
00004572 00000052 837.43 226.67 409.63 583.06 982.54 448.24 1165.98 463.36 1093.46 556.99 990.63 650.04 1147.28 661.93
00004573 00000053 840.34 224.71 408.80 588.09 986.79 446.68 1169.02 463.63 1097.79 556.57 992.98 650.83 1148.44 663.80
00004574 00000054 846.60 224.42 407.48 576.97 991.71 444.74 1175.84 463.16 1101.78 555.29 996.82 647.09 1150.19 661.51
00004575 00000055 850.50 223.61 407.14 572.03 997.05 443.21 1182.86 464.30 1107.88 556.07 1000.88 644.73 1153.58 661.45
00004576 00000056 855.49 220.38 407.03 581.15 1005.50 441.05 1189.02 463.84 1115.53 554.84 1005.23 644.93 1158.62 663.35
00004577 00000057 857.60 223.46 410.55 584.96 1012.71 435.18 1189.89 455.69 1122.28 550.72 1008.95 641.50 1161.68 658.51
00004578 00000058 862.48 221.14 409.01 578.65 1014.80 430.14 1193.94 451.45 1126.02 543.05 1010.66 634.49 1166.26 652.36
00004579 00000059 863.87 221.11 408.82 576.40 1017.50 430.22 1196.14 451.56 1129.07 543.74 1013.10 632.38 1170.12 650.26
00004580 00000060 865.47 222.60 408.39 581.59 1019.48 434.27 1196.50 455.54 1128.92 550.60 1013.50 637.53 1169.75 655.43
00004581 00000061 866.84 225.05 408.38 584.67 1023.17 435.49 1197.91 456.13 1132.57 553.45 1017.26 641.57 1170.85 659.03
00004582 00000062 870.24 223.54 407.52 585.12 1023.43 433.44 1200.16 453.96 1133.85 549.44 1018.02 639.72 1175.24 657.17
00004583 00000063 870.74 223.50 409.43 579.91 1023.03 428.06 1200.06 445.73 1136.30 540.60 1020.15 633.43 1179.20 648.43
00004584 00000064 871.76 209.78 407.74 579.22 1018.89 422.86 1199.24 438.02 1134.56 533.72 1023.94 628.68 1180.00 640.98
00004585 00000065 871.44 205.01 404.34 571.36 1014.32 419.69 1198.94 436.37 1131.15 528.39 1022.11 622.34 1179.92 635.51
00004586 00000066 870.43 207.95 405.53 570.26 1013.70 422.95 1198.40 440.70 1129.05 535.88 1018.65 626.35 1176.13 640.68
00004587 DELETE   868.10 218.29 404.21 569.64 1014.88 436.89 1196.70 456.60 1126.21 548.35 1014.19 634.80 1172.23 650.90
00004588 DELETE   865.48 227.12 405.92 571.90 1013.99 450.67 1192.80 470.68 1120.48 561.64 1011.22 643.50 1166.64 660.41
00004589 DELETE   861.43 232.76 411.11 575.54 1013.52 460.88 1191.22 484.20 1118.85 569.38 1007.05 650.64 1162.37 670.42
00004590 00000070 860.92 237.59 414.53 574.82 1016.52 461.83 1194.05 486.11 1122.23 572.65 1010.17 654.43 1163.12 674.89
00004591 00000071 863.10 234.91 413.18 578.69 1018.97 456.43 1196.09 480.40 1126.38 571.11 1012.69 652.71 1166.98 673.04
00004592 00000072 866.68 228.47 409.54 574.39 1020.74 447.23 1199.93 470.61 1128.82 565.58 1016.14 645.78 1170.95 665.52
00004593 00000073 869.10 224.15 405.15 569.11 1022.42 439.63 1199.53 459.68 1131.94 559.17 1017.64 638.35 1173.04 655.30
00004594 00000074 869.10 219.69 404.26 569.13 1021.18 433.16 1201.04 452.28 1133.40 549.74 1018.03 633.87 1175.71 649.99
00004595 00000075 866.29 216.90 407.96 576.31 1018.67 429.99 1198.50 448.76 1130.96 546.65 1017.05 635.04 1171.07 650.57
00004596 00000076 863.62 219.95 407.13 579.96 1015.06 434.81 1192.70 451.07 1125.98 552.13 1016.69 641.18 1167.60 654.52
00004597 00000077 858.51 223.20 410.48 591.46 1010.80 445.71 1188.20 461.25 1121.18 563.23 1015.21 654.78 1162.93 667.24
00004598 DELETE   852.94 231.77 416.09 596.34 1007.67 460.72 1184.37 475.29 1117.88 576.71 1015.29 670.68 1159.95 681.88
00004599 00000079 850.13 238.78 417.05 599.15 1001.02 466.12 1180.65 480.42 1108.54 588.20 1005.10 678.22 1155.35 689.61
00004600 00000080 847.08 239.86 418.12 591.81 995.61 464.25 1177.36 480.04 1101.89 582.83 999.97 671.87 1154.09 684.49
00004601 00000081 847.07 232.72 418.05 587.79 996.16 455.47 1180.85 475.66 1103.53 571.40 995.91 659.26 1153.21 675.74
00004602 00000082 851.95 227.83 410.85 582.14 996.81 445.04 1180.31 462.41 1105.31 559.07 998.66 648.18 1155.37 662.05
00004603 00000083 855.88 220.13 409.01 575.68 1003.02 433.65 1184.97 452.40 1113.38 545.91 1002.57 634.30 1159.96 649.70
00004604 00000084 858.30 211.89 408.23 577.18 1002.77 423.96 1185.75 443.20 1114.85 536.31 1004.30 627.31 1160.08 643.04
00004605 00000085 858.59 209.47 407.31 576.72 1001.16 423.61 1184.74 442.79 1112.90 535.38 1002.70 625.91 1159.06 641.54
00004606 00000086 856.55 215.00 407.51 575.17 1000.27 429.67 1182.74 448.68 1110.62 541.49 1000.59 628.92 1159.24 644.40
00004607 00000087 853.23 221.48 408.82 578.36 996.53 436.03 1179.66 453.52 1105.43 550.54 996.80 637.88 1155.42 652.13
00004608 00000088 851.06 223.90 410.05 578.06 993.19 439.92 1177.34 457.19 1101.85 553.81 995.61 642.06 1154.26 655.90
00004609 00000089 850.82 221.86 410.57 576.47 991.97 438.27 1176.67 454.95 1101.08 550.95 996.25 639.96 1154.77 653.30
00004610 00000090 852.26 217.57 408.86 573.56 991.49 435.03 1177.93 451.71 1102.17 546.80 997.32 636.67 1155.94 650.07
00004611 00000091 851.69 216.41 409.12 573.30 993.24 433.16 1179.03 450.21 1104.08 546.18 998.57 635.23 1155.88 648.93
00004612 00000092 852.90 220.11 409.05 578.96 995.15 435.67 1178.79 453.35 1103.16 551.99 1000.92 641.99 1152.24 655.97
00004613 00000093 854.48 221.59 408.22 581.02 998.60 438.68 1180.88 457.12 1106.48 556.07 1005.25 648.33 1150.78 662.72
00004614 00000094 859.44 220.68 405.79 577.20 1008.37 433.42 1187.08 451.98 1116.63 551.96 1012.62 643.93 1156.20 658.73
00004615 00000095 864.13 206.11 408.57 581.32 1013.98 421.47 1194.97 439.78 1128.28 538.16 1020.56 633.40 1165.86 647.85
00004616 00000096 871.91 195.05 406.08 588.09 1021.75 412.36 1202.07 432.23 1135.78 525.43 1023.97 623.38 1174.34 639.32
00004617 00000097 877.35 194.51 404.68 590.15 1028.04 413.25 1206.19 435.66 1139.54 523.74 1023.60 620.36 1179.04 638.92
00004618 00000098 879.28 205.70 404.75 585.55 1033.64 422.06 1211.81 443.66 1146.43 537.55 1027.35 629.25 1184.22 647.37
00004619 00000099 882.74 219.10 403.12 578.33 1035.38 432.32 1212.50 454.69 1144.39 551.71 1026.75 636.83 1184.67 656.16
00004620 00000100 885.83 222.48 400.17 573.92 1035.63 440.01 1214.98 460.31 1148.36 558.00 1033.41 644.00 1189.02 661.14
00004621 00000101 888.41 221.22 397.99 567.44 1034.48 436.65 1217.49 457.04 1148.65 552.27 1034.54 640.81 1191.43 657.95
00004622 00000102 891.15 212.07 393.89 562.67 1033.17 427.27 1220.05 445.80 1150.59 532.83 1037.06 631.58 1194.81 647.51
00004623 DELETE   886.95 192.77 403.94 577.33 1037.94 412.27 1224.04 432.55 1154.12 521.49 1046.49 615.82 1199.31 633.58
00004624 00000104 886.96 187.58 402.95 581.59 1036.87 408.73 1222.64 430.04 1152.50 516.29 1045.38 612.69 1198.01 631.17
00004625 00000105 885.17 191.75 404.56 580.95 1036.48 412.49 1222.47 431.81 1152.80 523.26 1043.74 617.39 1197.20 634.46
00004626 00000106 889.15 206.51 395.63 570.27 1030.67 425.67 1217.57 440.01 1149.65 532.40 1037.34 631.67 1195.51 644.05
00004627 00000107 888.98 213.14 395.39 570.87 1029.14 433.35 1215.90 447.08 1147.19 544.12 1032.96 638.47 1193.97 650.67
00004628 00000108 886.19 215.16 397.31 573.97 1029.16 433.14 1209.86 446.15 1145.14 541.34 1033.11 635.55 1192.06 646.82
00004629 00000109 881.71 213.06 402.34 574.67 1027.06 425.93 1205.82 438.03 1143.25 534.52 1032.43 631.39 1188.91 641.35
00004630 00000110 880.00 204.54 403.15 577.53 1022.12 419.89 1204.05 431.71 1139.08 527.96 1030.62 624.53 1189.25 633.71
00004631 00000111 876.51 201.78 405.08 579.00 1019.62 417.56 1201.53 430.40 1136.82 528.95 1027.08 622.67 1185.85 632.63
00004632 00000112 875.44 208.94 406.13 576.46 1019.83 420.39 1198.98 432.67 1135.54 535.81 1025.72 627.24 1181.64 637.11
00004633 00000113 875.42 211.08 405.53 576.37 1020.81 423.08 1199.49 436.53 1135.29 539.37 1025.12 630.18 1180.31 641.14
00004634 00000114 875.94 210.49 405.05 575.15 1020.10 422.87 1199.63 436.18 1134.76 538.67 1025.25 629.98 1180.16 640.79
00004635 00000115 874.85 206.10 404.28 573.94 1015.04 419.64 1197.68 431.55 1131.98 535.17 1025.79 628.28 1179.39 637.59
00004636 00000116 872.88 201.38 403.95 573.31 1009.91 417.65 1195.57 427.86 1126.90 531.05 1024.56 627.41 1176.33 635.08
00004637 00000117 870.83 201.00 404.42 573.80 1006.51 416.92 1193.93 428.04 1122.58 531.52 1020.86 627.83 1172.30 636.18
00004638 00000118 870.14 202.51 403.88 575.11 1005.25 417.44 1191.69 429.23 1119.61 532.27 1017.83 629.40 1167.62 638.54
00004639 00000119 867.85 203.74 405.99 579.17 1005.57 419.00 1188.38 431.18 1118.15 532.30 1017.36 631.44 1162.66 640.80
00004640 00000120 865.33 205.20 407.43 581.07 1005.43 418.65 1186.77 429.31 1118.28 530.59 1018.52 632.61 1160.60 640.52
00004641 00000121 863.64 205.81 408.92 582.29 1004.78 417.01 1186.08 426.95 1117.86 528.67 1018.85 633.00 1158.77 640.22
00004642 00000122 862.89 204.04 409.46 583.82 1004.02 416.73 1185.75 426.37 1117.22 528.03 1018.81 633.23 1158.05 640.09
00004643 00000123 860.79 205.21 410.76 584.66 1002.95 418.83 1184.07 428.73 1116.43 531.32 1019.42 635.33 1157.15 642.28
00004644 00000124 861.42 205.41 409.35 582.40 1001.65 420.90 1183.80 432.81 1114.55 532.51 1016.01 634.48 1156.52 643.12
00004645 00000125 861.75 206.20 407.08 572.03 998.77 421.46 1182.90 437.01 1110.11 533.10 1009.55 628.24 1155.27 640.13
00004646 00000126 862.26 206.22 405.69 565.37 996.64 421.63 1181.51 436.83 1109.13 533.26 1006.31 623.47 1157.24 635.53
00004647 00000127 860.94 204.07 406.25 565.08 993.79 424.39 1178.51 438.77 1104.43 530.66 1004.17 622.19 1156.03 633.14
00004648 00000128 859.93 203.37 405.44 566.36 991.77 430.07 1172.50 443.78 1098.47 529.96 1000.49 618.68 1154.46 629.16
00004649 00000129 855.91 200.35 406.88 570.16 991.45 432.98 1175.12 446.57 1094.63 532.38 995.83 620.72 1151.59 631.95
00004650 00000130 854.67 203.12 406.52 569.60 990.16 434.42 1173.39 448.61 1092.39 534.72 993.12 621.00 1150.33 632.79
00004651 00000131 858.93 210.58 402.88 564.48 988.53 435.21 1167.67 454.61 1090.00 538.88 992.00 621.68 1146.12 637.34
00004652 00000132 857.47 215.13 404.19 566.35 987.50 440.35 1168.38 460.44 1089.03 543.59 990.51 627.42 1146.61 643.34
00004653 00000133 853.53 219.25 407.79 570.73 987.25 443.60 1166.36 462.67 1088.71 546.00 991.25 632.19 1144.48 647.35
00004654 00000134 851.71 219.82 409.68 575.91 988.11 443.97 1166.78 463.49 1089.49 547.35 990.36 633.16 1144.99 648.74
00004655 00000135 851.08 219.40 410.49 580.30 987.61 444.30 1166.72 462.52 1090.06 545.72 989.88 633.67 1148.00 648.17
00004656 00000136 851.04 219.28 411.50 583.69 988.71 443.21 1167.24 462.00 1091.06 543.78 990.17 632.38 1150.57 647.35
00004657 00000137 850.30 220.73 412.49 587.31 990.66 441.77 1166.75 460.48 1092.49 543.46 989.47 631.56 1150.23 646.40
00004658 00000138 849.74 221.74 413.51 586.64 990.28 442.29 1167.05 459.83 1092.85 543.51 989.50 632.30 1151.60 646.28
00004659 00000139 849.81 221.80 414.01 587.70 990.54 442.15 1167.42 458.97 1093.82 543.48 990.77 633.58 1151.78 646.87
00004660 00000140 850.21 220.84 413.51 586.23 990.81 440.76 1168.05 457.27 1094.14 543.77 993.26 634.64 1150.19 647.63
00004661 00000141 850.64 216.85 412.90 585.38 988.84 439.22 1169.82 456.56 1093.70 544.07 995.23 638.28 1147.53 651.76
00004662 00000142 850.81 215.52 412.82 583.10 988.73 438.34 1170.96 456.42 1094.54 544.03 995.09 637.05 1147.86 651.13
00004663 00000143 854.40 212.70 408.57 579.27 990.49 437.00 1172.49 455.25 1096.60 541.36 997.67 634.06 1148.95 648.30
00004664 00000144 857.78 204.43 406.06 580.57 992.67 434.17 1174.62 450.77 1100.23 538.38 1004.05 632.66 1151.86 645.20
00004665 00000145 859.43 197.47 406.42 578.93 993.59 427.41 1177.62 439.64 1104.75 532.03 1010.31 631.79 1153.13 640.34
00004666 00000146 861.54 196.12 405.95 579.44 997.18 424.32 1180.61 433.48 1110.11 527.74 1015.37 631.66 1156.49 637.50
00004667 00000147 860.91 196.61 405.98 581.59 998.24 422.11 1181.50 432.27 1111.39 527.23 1015.46 630.36 1157.10 636.89
00004668 00000148 857.30 200.90 408.61 588.79 998.54 424.28 1181.48 439.28 1110.95 535.25 1010.22 632.54 1155.81 643.61
00004669 00000149 851.68 215.09 412.07 588.74 993.77 434.17 1176.48 448.76 1103.04 548.77 1003.42 643.27 1152.76 654.20
00004670 00000150 843.02 222.45 417.95 596.32 986.64 446.57 1170.56 461.49 1095.16 561.76 996.99 657.95 1148.03 668.97
00004671 00000151 837.65 227.85 422.66 604.73 982.75 460.71 1168.63 476.08 1091.77 578.67 991.03 670.45 1149.12 682.03
00004672 00000152 837.03 245.04 424.57 606.52 982.31 474.26 1168.80 484.85 1091.03 597.85 987.66 685.14 1150.42 693.20
00004673 00000153 844.03 263.09 420.46 592.26 984.50 477.60 1173.86 488.34 1095.65 611.34 995.85 693.20 1142.23 700.59
00004674 00000154 847.04 266.79 422.09 595.83 989.34 477.69 1178.90 487.67 1102.34 611.58 1002.28 699.81 1145.32 706.71
00004675 00000155 853.65 266.19 418.66 594.33 994.93 478.72 1181.97 486.05 1109.52 607.41 1009.78 700.63 1151.51 705.56
00004676 00000156 856.95 264.07 417.86 590.61 999.19 475.64 1185.14 482.48 1114.94 602.13 1013.15 695.06 1156.49 699.45
00004677 00000157 861.55 254.84 412.71 591.38 1002.75 471.90 1187.62 479.97 1117.96 595.02 1014.14 684.78 1163.46 690.10
00004678 00000158 862.81 243.69 412.46 596.86 1007.84 464.95 1189.93 474.81 1120.98 586.03 1016.78 674.38 1167.19 681.27
00004679 00000159 865.90 228.84 408.76 602.34 1017.76 457.48 1194.02 470.50 1129.17 572.12 1024.59 669.07 1174.55 679.11
00004680 DELETE   869.00 227.88 406.67 594.11 1020.06 448.21 1196.97 460.97 1132.70 565.91 1030.34 663.01 1176.27 672.97
00004681 00000161 875.68 220.65 402.18 588.86 1023.13 443.87 1201.73 456.12 1138.37 561.79 1039.12 660.93 1179.13 670.29
00004682 00000162 883.88 216.87 399.71 589.60 1030.28 439.16 1207.01 450.30 1145.85 555.71 1046.96 658.32 1184.91 667.05
00004683 00000163 888.08 217.55 401.20 590.79 1038.98 436.73 1213.57 450.77 1151.57 551.09 1048.19 652.74 1189.77 664.02
00004684 00000164 891.05 217.30 403.65 594.64 1039.66 431.82 1217.36 450.79 1149.32 550.16 1041.41 645.01 1187.35 660.38
