Video ID: 	w_dSsBuufHk
H: 	1080
W: 	1920
FPS: 	25.0

FRAME INDEX X0 Y0 W H [Landmarks (5 Points)]

00006616 00000000 977.05 74.39 382.21 529.09 1027.63 304.96 1188.44 286.17 1087.50 393.34 1075.03 490.73 1190.19 474.38
00006617 00000001 987.28 73.38 380.00 534.99 1040.50 308.69 1200.99 293.16 1098.12 400.22 1083.36 492.00 1205.11 478.40
00006618 DELETE   995.26 85.68 376.02 526.79 1048.00 316.30 1207.26 299.76 1107.84 408.92 1093.39 497.33 1214.55 482.87
00006619 00000003 997.88 86.77 386.48 531.12 1057.95 311.63 1219.06 302.07 1109.51 411.09 1095.19 496.55 1222.25 488.88
00006620 00000004 1008.79 100.06 379.96 517.01 1068.28 314.28 1226.82 306.17 1127.57 412.50 1102.24 501.81 1229.31 495.59
00006621 00000005 1018.25 102.19 378.21 525.15 1079.69 317.43 1233.81 309.15 1136.13 412.76 1110.74 503.94 1235.57 498.17
00006622 00000006 1023.77 107.20 379.04 527.14 1085.63 321.19 1239.98 309.48 1140.26 413.32 1117.93 508.23 1246.72 499.43
00006623 00000007 1027.99 112.65 379.07 525.12 1090.85 326.00 1247.51 313.64 1145.94 417.72 1123.78 511.89 1255.86 502.65
00006624 00000008 1031.49 114.39 381.37 521.08 1095.45 330.06 1253.92 318.43 1152.58 424.22 1129.23 514.89 1260.30 506.11
00006625 00000009 1035.09 122.08 381.72 509.29 1101.82 336.54 1260.73 326.08 1158.80 430.08 1134.11 517.49 1261.96 509.95
00006626 00000010 1041.55 121.78 380.10 507.41 1106.48 343.71 1265.64 332.92 1164.55 438.92 1140.01 522.17 1265.86 514.38
00006627 00000011 1050.60 130.51 370.22 498.22 1108.51 342.41 1270.46 335.97 1169.19 440.45 1143.58 523.75 1266.15 517.80
00006628 00000012 1051.88 132.40 373.02 503.09 1112.12 347.90 1274.61 339.01 1174.08 443.39 1144.08 524.13 1268.03 515.94
00006629 00000013 1057.30 139.26 370.30 497.47 1117.08 349.59 1275.66 342.94 1174.62 444.37 1148.52 529.15 1270.71 522.82
00006630 00000014 1060.05 144.51 369.23 497.49 1121.07 353.74 1277.18 348.57 1177.62 446.11 1151.02 531.33 1271.64 526.04
00006631 00000015 1059.57 146.83 370.78 495.60 1120.95 353.38 1277.67 348.60 1177.91 445.92 1150.86 531.54 1270.96 526.45
00006632 00000016 1059.41 142.74 372.28 496.90 1115.74 354.14 1279.29 347.85 1175.00 447.22 1145.42 530.01 1270.26 523.95
00006633 00000017 1058.96 138.53 372.39 498.40 1114.58 352.53 1278.63 345.69 1173.82 444.83 1144.02 528.05 1270.73 521.53
00006634 00000018 1057.86 138.72 371.52 496.81 1113.47 352.14 1277.10 344.37 1172.91 440.70 1142.89 527.90 1267.49 520.68
00006635 00000019 1056.74 135.08 371.18 507.05 1113.57 351.78 1274.08 343.34 1171.15 431.13 1142.03 527.29 1260.00 519.57
00006636 00000020 1055.42 134.86 369.22 499.06 1113.80 350.08 1268.16 341.18 1164.54 422.34 1138.47 524.39 1253.81 516.47
00006637 00000021 1050.88 128.81 367.23 503.67 1107.80 349.55 1262.30 340.08 1157.93 413.91 1128.51 515.62 1243.27 507.44
00006638 00000022 1044.78 126.62 370.91 503.41 1104.17 343.23 1259.61 333.93 1152.32 412.19 1125.86 512.32 1240.50 504.23
00006639 00000023 1041.76 126.30 370.23 504.61 1103.21 341.51 1260.27 332.18 1151.84 414.40 1124.68 516.96 1239.85 509.14
00006640 00000024 1036.52 126.40 375.79 508.83 1100.48 346.02 1260.23 337.48 1154.61 428.37 1123.03 521.28 1249.78 516.22
00006641 00000025 1035.79 135.81 373.25 505.47 1099.55 350.72 1259.00 339.68 1154.13 433.56 1124.78 526.07 1251.97 518.88
00006642 00000026 1033.42 137.47 371.76 505.56 1097.63 353.35 1255.60 345.29 1151.79 439.39 1123.75 527.38 1250.70 522.39
00006643 00000027 1030.72 147.16 371.28 499.86 1094.57 358.07 1251.19 348.99 1149.42 445.07 1123.10 531.49 1247.53 525.50
00006644 00000028 1034.74 163.17 364.09 487.11 1091.29 358.32 1249.09 348.75 1146.48 444.34 1122.61 535.43 1240.87 526.22
00006645 00000029 1032.89 161.53 365.50 489.22 1089.31 359.68 1247.05 351.55 1145.57 448.63 1119.99 536.15 1238.27 528.23
00006646 00000030 1032.09 162.30 365.37 490.83 1087.89 361.07 1246.33 353.00 1144.60 449.89 1117.47 536.87 1236.30 528.97
00006647 00000031 1031.42 158.91 364.65 495.19 1088.68 360.44 1246.84 353.05 1145.61 448.92 1116.85 537.38 1235.23 530.09
00006648 00000032 1031.23 158.66 365.09 496.16 1088.52 360.87 1246.30 352.52 1146.20 448.62 1118.94 538.97 1235.61 530.83
00006649 00000033 1031.62 159.16 364.26 497.58 1088.22 359.89 1245.93 352.70 1145.87 449.39 1119.35 540.56 1234.34 533.27
00006650 00000034 1032.31 160.61 365.31 499.83 1088.75 359.76 1247.49 353.18 1147.24 450.04 1120.36 543.37 1232.17 536.57
00006651 00000035 1033.17 161.21 365.75 500.76 1089.60 359.56 1248.93 353.59 1148.19 450.04 1122.53 546.41 1231.01 540.08
00006652 00000036 1033.82 156.90 369.30 504.31 1090.00 360.76 1246.82 352.15 1147.54 455.25 1120.65 548.80 1236.97 543.41
00006653 00000037 1036.70 157.37 367.09 506.73 1090.93 365.37 1249.31 356.17 1147.08 458.52 1118.85 552.34 1240.38 546.29
00006654 00000038 1037.23 159.52 366.11 507.92 1092.61 372.65 1249.83 362.44 1150.19 465.70 1120.89 557.39 1245.29 550.60
00006655 00000039 1039.46 170.53 362.80 496.99 1090.39 379.26 1258.06 369.78 1155.55 471.74 1117.76 555.64 1251.92 546.61
00006656 00000040 1038.02 163.75 367.39 506.55 1094.03 380.00 1254.49 369.79 1155.02 474.07 1120.62 558.55 1254.22 551.60
00006657 00000041 1039.42 174.54 362.86 499.51 1090.84 380.74 1259.30 373.21 1156.03 479.15 1118.63 559.89 1250.36 552.32
00006658 00000042 1036.26 177.33 365.96 497.89 1087.95 380.28 1258.41 374.03 1153.29 480.58 1115.94 561.52 1247.89 554.96
00006659 00000043 1035.28 177.58 365.53 497.84 1087.43 380.87 1256.80 374.42 1150.99 478.75 1115.14 560.58 1246.68 553.82
00006660 00000044 1032.13 171.07 366.84 501.24 1090.17 382.11 1248.01 378.18 1147.04 478.35 1113.37 559.06 1245.45 557.32
00006661 00000045 1032.88 168.66 364.50 504.25 1087.59 382.46 1244.45 378.58 1142.76 480.04 1110.52 560.13 1243.63 558.35
00006662 00000046 1031.79 172.50 363.51 502.92 1087.59 381.72 1242.86 377.25 1142.71 479.20 1111.82 561.07 1240.04 559.16
00006663 00000047 1030.18 171.83 364.46 504.67 1086.71 382.06 1241.87 376.92 1143.44 478.11 1111.79 562.12 1238.85 559.71
00006664 00000048 1027.86 170.51 365.41 501.36 1083.22 381.53 1238.38 375.25 1140.90 477.98 1111.02 561.17 1236.92 557.48
00006665 00000049 1026.80 170.07 365.19 501.96 1081.96 382.32 1238.22 376.54 1140.19 478.73 1108.59 560.88 1236.62 557.74
00006666 00000050 1026.50 173.99 363.12 501.02 1080.55 381.04 1240.66 373.22 1139.89 476.87 1111.88 560.36 1235.40 552.51
00006667 00000051 1024.68 171.68 365.51 500.43 1080.60 382.32 1237.18 377.11 1138.73 479.22 1106.54 560.35 1233.28 557.33
00006668 00000052 1024.07 170.94 365.90 502.83 1080.31 382.16 1237.14 376.99 1138.82 478.32 1105.30 560.03 1232.44 557.10
00006669 00000053 1023.79 170.82 365.48 502.10 1079.72 381.47 1236.55 375.57 1138.99 477.37 1104.86 558.91 1231.98 555.54
00006670 00000054 1023.67 168.31 365.97 502.10 1078.93 379.20 1235.00 372.02 1139.23 475.17 1105.55 557.67 1229.76 553.34
00006671 00000055 1024.35 160.24 365.02 506.43 1078.09 376.33 1233.84 368.62 1139.69 471.17 1105.09 555.44 1228.32 550.87
00006672 00000056 1024.47 159.37 364.51 506.97 1077.36 374.12 1232.90 365.79 1138.32 467.97 1104.95 553.83 1226.51 549.07
00006673 00000057 1024.64 163.83 363.30 502.84 1080.63 370.90 1236.15 365.71 1139.71 464.65 1113.29 552.11 1226.82 546.39
00006674 00000058 1023.84 163.79 364.26 503.80 1080.43 370.57 1236.29 365.89 1139.67 465.33 1113.20 552.97 1225.93 547.71
00006675 00000059 1023.89 155.03 365.55 510.22 1076.10 372.88 1233.48 366.74 1135.91 468.41 1101.91 553.98 1227.48 550.85
00006676 00000060 1025.77 155.93 365.18 513.42 1077.15 376.55 1234.48 370.15 1134.71 470.74 1102.17 560.43 1228.76 557.38
00006677 00000061 1027.53 158.05 363.90 511.38 1079.44 376.69 1235.13 370.23 1137.67 471.69 1105.33 558.43 1230.53 555.27
00006678 00000062 1028.58 164.37 363.59 506.54 1081.34 376.05 1235.84 369.65 1138.44 471.55 1107.61 558.32 1230.74 554.89
00006679 00000063 1029.12 161.62 363.91 507.11 1082.37 376.34 1237.04 370.45 1140.18 472.31 1107.97 556.85 1231.84 553.61
00006680 00000064 1029.04 165.54 364.81 501.65 1082.65 376.04 1238.05 369.45 1140.49 471.46 1108.00 555.45 1232.77 551.66
00006681 00000065 1029.21 163.13 363.68 502.89 1083.00 375.55 1238.45 369.13 1141.14 470.19 1107.15 552.81 1233.36 549.22
00006682 00000066 1029.72 164.19 364.09 501.44 1083.59 375.19 1239.97 368.92 1142.01 470.06 1107.18 552.08 1234.73 548.62
00006683 00000067 1030.18 164.19 364.11 501.60 1084.59 375.19 1240.82 369.42 1142.94 469.53 1107.67 551.35 1236.17 548.32
00006684 00000068 1030.43 163.53 365.02 503.79 1084.97 376.43 1241.41 370.09 1142.31 469.82 1107.52 552.36 1238.02 548.89
00006685 00000069 1029.89 162.73 366.03 504.42 1084.39 377.42 1240.92 370.47 1142.12 470.66 1108.16 553.43 1239.73 549.35
00006686 00000070 1030.34 161.97 365.85 504.64 1085.16 378.04 1241.86 371.38 1142.76 471.13 1108.13 553.20 1240.33 549.27
00006687 00000071 1031.44 163.59 365.34 502.27 1086.58 378.49 1243.66 371.98 1145.09 471.59 1109.26 552.46 1241.69 548.75
00006688 00000072 1032.25 163.36 364.72 503.05 1087.44 379.01 1244.27 371.79 1145.89 471.93 1109.99 552.48 1242.70 548.19
00006689 00000073 1032.49 162.99 365.40 503.43 1088.81 378.88 1246.03 371.76 1147.89 471.78 1111.10 552.11 1244.18 547.78
00006690 00000074 1032.80 161.70 366.09 505.72 1089.70 377.79 1247.01 370.47 1149.07 470.40 1112.21 552.08 1244.49 547.68
00006691 00000075 1033.85 162.00 365.47 508.91 1090.45 377.37 1247.89 369.95 1148.73 469.78 1112.13 552.95 1245.69 548.48
00006692 00000076 1034.27 164.47 365.73 509.47 1091.35 378.16 1248.94 371.05 1149.06 470.34 1112.80 555.32 1246.06 551.30
00006693 00000077 1033.87 166.74 366.21 505.03 1091.25 378.74 1249.43 371.26 1149.54 471.04 1113.44 556.06 1246.72 551.71
00006694 00000078 1033.55 165.81 366.32 502.46 1090.82 378.86 1249.35 370.88 1150.14 471.63 1113.82 555.44 1246.44 550.61
00006695 00000079 1033.05 165.22 366.70 502.33 1090.37 379.95 1249.59 371.31 1150.52 472.16 1113.75 554.93 1248.04 549.41
00006696 00000080 1033.04 165.47 367.08 501.98 1090.22 379.93 1249.30 371.15 1150.13 472.07 1113.53 554.54 1248.11 548.86
00006697 00000081 1033.06 167.14 367.10 504.96 1090.36 380.33 1248.45 370.86 1148.81 471.08 1112.99 555.05 1248.04 548.81
00006698 00000082 1033.84 167.71 366.97 515.72 1091.07 380.59 1247.96 370.85 1147.13 469.81 1112.93 557.73 1249.79 551.32
00006699 00000083 1033.37 166.30 367.79 519.17 1090.79 380.72 1247.92 370.46 1146.64 468.98 1113.11 559.13 1250.10 552.33
00006700 00000084 1032.96 166.32 367.42 519.06 1090.04 380.28 1247.55 369.83 1146.07 468.72 1112.17 559.01 1250.11 552.06
00006701 00000085 1033.04 165.35 366.49 517.76 1089.91 378.71 1248.16 368.98 1147.01 468.82 1112.79 558.93 1249.31 552.69
00006702 00000086 1033.38 164.60 365.66 512.26 1089.47 378.20 1248.11 369.87 1146.74 470.39 1112.77 559.02 1246.52 553.93
00006703 00000087 1033.48 162.43 364.60 509.60 1088.62 375.95 1247.11 368.93 1145.68 470.50 1113.69 558.87 1243.22 555.03
00006704 00000088 1033.10 160.72 365.54 511.10 1087.99 374.60 1246.65 369.53 1144.82 471.64 1112.99 558.05 1241.73 555.86
00006705 00000089 1033.91 170.35 362.53 503.75 1087.55 375.19 1250.26 369.83 1146.50 472.29 1113.70 558.58 1237.89 552.84
00006706 00000090 1034.50 171.87 362.14 500.07 1087.43 374.60 1249.23 369.92 1145.50 470.90 1113.67 557.69 1236.50 552.45
00006707 00000091 1034.93 169.24 361.56 502.01 1088.12 375.06 1249.58 370.12 1146.65 470.47 1114.02 557.33 1236.76 551.97
00006708 00000092 1035.08 169.30 362.16 503.82 1088.72 376.18 1252.11 369.57 1148.79 471.34 1114.68 557.96 1239.67 551.24
00006709 00000093 1033.59 160.62 366.61 511.06 1088.81 376.19 1248.78 369.19 1146.56 471.14 1113.64 559.51 1243.75 555.61
00006710 00000094 1033.53 161.06 366.84 511.70 1088.77 376.39 1248.30 369.40 1145.92 470.71 1113.58 559.91 1242.90 555.98
00006711 00000095 1033.85 159.85 365.51 512.26 1088.73 377.01 1248.02 369.80 1146.17 470.75 1113.50 559.63 1243.48 555.56
00006712 00000096 1032.97 162.56 366.14 509.29 1088.06 377.58 1247.01 370.20 1145.49 470.86 1113.22 559.85 1242.38 555.56
00006713 00000097 1032.51 161.51 365.54 509.78 1087.19 377.07 1245.45 370.01 1144.19 469.98 1111.79 559.13 1239.91 555.16
00006714 00000098 1031.29 161.19 365.90 508.11 1084.58 374.81 1243.47 367.49 1141.96 469.62 1110.08 558.21 1237.67 554.05
00006715 00000099 1030.79 161.76 365.61 507.07 1083.82 374.17 1242.50 366.54 1141.43 469.00 1109.32 557.45 1236.09 553.14
00006716 00000100 1030.31 160.05 365.43 508.40 1083.02 372.93 1241.59 366.12 1140.88 468.66 1108.65 556.80 1235.14 553.26
00006717 00000101 1029.41 158.54 365.21 510.06 1082.23 373.51 1241.09 366.40 1141.16 468.72 1107.59 556.13 1235.03 552.47
00006718 00000102 1028.89 159.83 365.00 508.77 1082.09 374.16 1240.50 366.63 1141.26 468.65 1107.53 556.69 1234.54 552.65
00006719 00000103 1028.94 161.19 364.75 507.94 1082.16 375.71 1240.35 367.89 1140.60 469.38 1107.25 557.41 1235.12 553.04
00006720 00000104 1028.32 160.61 365.14 509.11 1081.95 376.57 1240.44 368.97 1140.13 469.84 1106.56 558.37 1235.52 554.09
00006721 00000105 1027.89 163.09 365.53 507.48 1082.04 377.26 1241.05 369.62 1140.63 470.78 1106.25 559.07 1236.18 554.81
00006722 00000106 1028.13 164.27 364.96 507.00 1082.29 378.10 1240.97 370.98 1140.41 471.62 1106.08 559.09 1236.54 555.20
00006723 00000107 1027.39 164.14 365.50 507.52 1081.98 378.50 1241.19 371.27 1140.91 472.09 1106.19 559.71 1237.10 555.74
00006724 00000108 1027.45 163.83 365.37 507.82 1082.16 378.77 1241.24 371.81 1141.07 472.31 1106.05 559.75 1237.31 556.02
00006725 00000109 1027.82 164.37 364.78 507.30 1082.39 378.65 1240.95 372.46 1140.76 472.78 1106.23 559.60 1237.16 556.42
00006726 00000110 1027.79 164.97 365.05 506.50 1082.31 378.51 1241.16 372.46 1140.85 472.78 1106.27 558.78 1237.34 555.64
00006727 00000111 1027.45 165.73 365.38 505.90 1082.53 379.06 1241.55 373.10 1141.15 473.01 1106.24 558.74 1237.88 555.61
00006728 00000112 1027.75 166.81 365.56 505.43 1083.02 380.19 1242.05 374.61 1141.46 473.75 1106.77 559.38 1238.45 556.59
00006729 00000113 1028.94 167.52 365.27 505.31 1084.46 380.92 1242.45 376.12 1141.62 474.87 1107.96 559.53 1239.53 557.32
00006730 00000114 1029.06 169.48 365.91 505.64 1085.13 381.22 1243.62 377.46 1141.93 476.15 1107.84 559.84 1240.09 558.49
00006731 00000115 1029.56 172.72 365.78 502.96 1086.58 381.25 1245.26 378.73 1142.35 477.10 1108.19 559.89 1240.46 559.51
00006732 00000116 1030.09 173.43 366.01 502.99 1087.32 382.67 1246.77 379.22 1142.91 477.92 1109.02 561.88 1241.76 560.65
00006733 00000117 1030.69 176.56 365.94 500.25 1089.11 382.72 1248.33 379.85 1144.80 478.19 1110.05 561.89 1241.79 561.31
00006734 00000118 1031.50 174.77 365.48 500.40 1090.07 382.34 1249.64 379.74 1146.23 478.24 1110.75 560.89 1242.83 560.49
00006735 00000119 1032.49 171.01 365.40 503.40 1090.44 381.44 1250.34 378.94 1146.39 476.69 1110.66 560.16 1243.24 559.81
00006736 00000120 1032.42 170.43 365.85 505.77 1090.97 381.59 1250.39 378.50 1146.91 476.35 1111.57 560.53 1243.98 559.67
00006737 00000121 1032.42 169.87 366.73 506.97 1091.48 381.26 1250.99 378.52 1147.02 476.05 1111.66 560.28 1243.94 559.71
00006738 00000122 1032.62 171.46 366.69 506.76 1092.41 380.18 1250.50 377.93 1147.33 475.47 1113.09 559.80 1242.15 559.80
00006739 00000123 1033.56 169.35 366.43 511.11 1092.15 377.21 1248.77 375.14 1145.58 473.11 1113.07 559.58 1239.43 559.85
00006740 00000124 1034.75 163.28 365.75 518.40 1090.63 375.35 1249.32 373.09 1142.95 470.73 1109.89 560.52 1239.47 560.67
00006741 00000125 1034.16 161.12 364.49 518.09 1088.34 369.66 1247.32 368.34 1140.19 465.56 1108.64 559.55 1233.32 560.68
00006742 00000126 1034.07 153.29 364.33 523.42 1086.69 364.23 1247.59 361.13 1138.28 457.68 1105.92 557.31 1230.16 557.25
00006743 00000127 1033.52 150.91 364.72 525.39 1088.03 357.93 1247.37 355.33 1139.28 450.03 1106.85 552.01 1227.03 552.66
00006744 00000128 1033.44 149.44 366.44 527.36 1090.04 352.36 1247.72 347.39 1140.61 442.52 1109.72 550.03 1224.80 548.85
00006745 00000129 1033.50 148.98 365.74 526.67 1090.87 349.89 1247.32 344.35 1140.92 438.61 1109.15 546.40 1223.32 544.90
00006746 00000130 1031.95 142.93 367.87 529.04 1089.81 347.61 1247.83 341.12 1140.23 435.34 1107.20 542.38 1223.97 540.05
00006747 00000131 1029.62 148.04 370.93 514.09 1093.89 348.72 1248.82 345.02 1141.88 425.94 1111.35 534.86 1219.41 530.99
00006748 00000132 1029.62 142.17 373.28 508.50 1093.00 349.90 1249.18 345.09 1140.12 423.81 1107.12 526.70 1223.14 522.25
00006749 00000133 1030.87 141.95 373.02 499.00 1092.04 348.61 1247.86 343.91 1139.03 425.70 1104.81 522.90 1224.48 518.64
00006750 00000134 1030.33 139.29 372.94 499.82 1092.14 347.61 1248.50 344.96 1138.69 425.23 1102.66 521.44 1222.51 518.92
00006751 00000135 1030.89 139.25 372.13 499.08 1092.21 347.06 1247.90 344.74 1138.18 425.22 1102.10 521.15 1221.66 518.96
00006752 00000136 1030.10 139.51 372.91 500.32 1091.82 346.32 1249.01 345.19 1138.22 427.28 1101.37 522.07 1223.01 520.80
00006753 00000137 1028.42 142.31 373.00 497.68 1090.28 346.93 1247.91 347.19 1138.15 430.62 1101.94 522.86 1222.94 522.58
00006754 00000138 1027.85 144.89 373.26 497.59 1089.75 350.10 1247.97 349.83 1139.07 434.48 1103.55 524.47 1223.99 523.62
00006755 00000139 1029.71 150.55 371.54 493.68 1091.12 356.80 1250.06 358.29 1140.95 438.11 1104.22 526.65 1225.45 527.05
00006756 00000140 1033.76 145.96 366.27 500.15 1093.88 362.74 1249.68 363.60 1142.98 440.24 1107.30 530.00 1227.31 529.79
00006757 00000141 1034.54 149.65 368.13 501.53 1094.27 358.43 1252.73 360.70 1144.56 441.24 1108.65 532.17 1227.19 533.14
00006758 00000142 1034.75 152.17 370.53 500.05 1094.48 354.10 1255.73 355.62 1145.94 440.26 1108.80 532.25 1227.70 532.73
00006759 00000143 1036.96 151.83 370.31 501.33 1096.63 352.39 1258.26 355.01 1148.09 442.06 1111.15 533.99 1230.06 535.59
00006760 00000144 1038.95 150.41 370.58 503.95 1099.05 352.33 1260.71 356.39 1151.09 444.00 1113.46 535.39 1232.49 538.04
00006761 00000145 1041.15 152.30 372.14 502.63 1100.70 352.09 1262.85 356.82 1153.50 446.22 1115.42 535.37 1235.18 538.55
00006762 00000146 1041.73 149.84 373.04 504.49 1101.72 352.28 1264.72 358.62 1154.11 447.21 1115.12 534.02 1238.42 538.70
00006763 00000147 1041.89 149.45 373.75 502.02 1101.57 351.47 1265.00 357.66 1154.62 447.67 1114.18 533.58 1238.73 538.19
00006764 00000148 1042.42 149.92 373.70 501.01 1101.41 351.38 1264.93 357.46 1154.22 447.52 1113.28 534.40 1237.16 538.95
00006765 00000149 1042.22 151.24 372.84 500.25 1100.39 351.80 1264.11 357.49 1152.73 447.82 1112.49 535.30 1234.97 539.49
00006766 00000150 1039.75 151.54 371.81 502.76 1099.05 352.75 1263.24 357.46 1152.15 447.26 1111.81 536.92 1234.50 540.31
00006767 00000151 1038.28 151.38 371.96 505.30 1096.84 354.33 1262.55 357.45 1151.22 447.07 1111.17 539.56 1232.31 541.67
00006768 00000152 1035.29 152.55 370.95 507.45 1094.74 355.74 1261.50 359.16 1149.93 448.56 1109.87 541.45 1233.04 543.66
00006769 00000153 1033.01 157.13 369.23 504.90 1092.19 356.10 1259.03 360.23 1147.16 449.39 1107.07 542.97 1230.11 545.47
00006770 00000154 1032.57 157.68 367.65 505.61 1089.26 356.91 1256.13 361.54 1143.61 451.18 1101.93 543.03 1231.39 545.82
00006771 00000155 1030.24 157.31 368.54 506.87 1086.57 359.44 1252.99 362.70 1141.36 453.30 1100.47 544.52 1231.72 545.92
00006772 00000156 1026.56 151.57 373.37 509.16 1079.16 364.32 1243.26 361.92 1129.89 453.78 1094.20 546.71 1230.71 545.80
00006773 00000157 1025.29 150.84 373.47 510.15 1077.47 365.13 1241.28 362.44 1128.37 454.27 1092.72 546.52 1230.05 545.23
00006774 00000158 1023.33 152.36 372.51 509.94 1076.81 365.38 1239.65 363.33 1128.24 454.04 1090.32 545.34 1227.82 544.64
00006775 00000159 1022.83 152.90 371.51 509.25 1076.36 366.39 1238.19 364.85 1128.41 454.90 1089.76 544.99 1226.62 544.63
00006776 00000160 1021.80 155.72 372.55 506.06 1075.16 366.68 1236.74 364.08 1127.23 455.35 1089.48 545.75 1225.29 544.50
00006777 00000161 1021.52 157.37 372.35 504.91 1075.20 366.18 1235.99 363.85 1127.50 456.06 1089.96 544.89 1224.88 543.93
00006778 00000162 1020.68 158.03 373.22 504.67 1075.00 366.65 1236.61 363.75 1128.32 455.56 1090.57 545.92 1224.91 544.48
