Video ID: 	LVBhANi7gGY
H: 	1080
W: 	1920
FPS: 	23.976023976023978

FRAME INDEX X0 Y0 W H [Landmarks (5 Points)]

00011726 00000000 572.31 321.63 371.42 563.10 779.65 570.53 906.45 600.69 890.01 679.44 752.93 754.50 845.65 781.84
00011727 00000001 578.34 328.99 369.13 566.66 775.32 578.12 915.33 605.20 897.26 685.83 755.39 760.67 864.38 785.80
00011728 00000002 580.30 326.76 369.15 572.00 776.09 585.74 916.40 607.24 897.33 689.29 760.41 766.03 870.48 786.84
00011729 00000003 584.82 334.38 366.42 571.66 774.56 591.14 916.77 608.78 896.84 694.96 762.23 770.68 874.80 788.82
00011730 00000004 585.67 340.45 363.51 563.00 772.86 594.35 915.55 607.50 895.72 695.87 761.06 772.28 873.45 786.79
00011731 DELETE   588.54 340.32 359.74 561.86 772.48 597.50 919.05 608.54 897.91 694.93 760.88 769.71 880.33 782.53
00011732 00000006 586.91 341.32 365.32 551.28 774.78 602.93 924.42 609.93 897.41 690.52 766.93 764.27 889.40 773.57
00011733 00000007 587.17 330.44 367.67 560.61 774.20 594.69 927.63 596.77 905.16 684.00 776.49 764.74 898.43 769.31
00011734 00000008 598.60 325.78 364.43 567.56 778.72 578.18 939.42 579.74 916.85 678.34 779.68 773.18 899.63 777.06
00011735 00000009 603.00 320.30 368.53 573.37 782.32 569.52 946.80 573.12 921.99 674.97 786.18 773.01 906.42 778.32
00011736 00000010 605.92 318.19 370.63 574.49 784.80 563.60 952.83 573.29 927.21 668.94 791.33 768.55 917.10 778.63
00011737 00000011 608.75 314.95 370.85 573.16 788.02 557.77 958.86 570.22 934.83 663.07 793.74 762.64 923.65 775.02
00011738 00000012 605.94 315.45 368.09 567.40 785.39 558.47 947.74 574.44 925.95 653.82 794.60 752.70 918.57 766.95
00011739 00000013 607.04 313.52 370.87 563.48 789.48 557.19 948.37 568.91 927.38 653.61 798.27 747.17 919.48 758.32
00011740 00000014 610.76 312.11 369.28 563.81 790.22 552.90 950.33 568.39 926.15 646.94 800.38 744.26 920.76 758.30
00011741 00000015 610.17 309.51 373.28 572.06 789.85 546.69 952.78 566.83 928.12 641.68 798.96 740.70 922.47 758.33
00011742 00000016 610.13 305.37 373.17 577.19 792.17 542.70 952.46 566.72 931.56 638.40 798.72 738.67 920.68 759.52
00011743 00000017 615.60 305.04 367.53 569.28 794.68 539.77 954.33 568.26 932.04 632.86 797.19 732.18 922.73 756.78
00011744 00000018 620.31 301.07 362.43 563.67 809.33 525.91 957.96 551.77 938.63 634.44 806.75 724.16 925.13 748.12
00011745 00000019 620.05 297.05 361.50 563.22 809.67 524.03 958.73 551.48 937.46 633.03 804.79 720.89 923.27 746.10
00011746 00000020 618.15 297.53 361.65 561.84 807.62 521.58 956.37 550.67 935.41 631.99 804.22 721.89 920.64 748.34
00011747 00000021 617.83 300.12 359.50 561.54 808.64 518.56 956.90 550.47 937.89 631.35 801.60 720.82 920.10 749.72
00011748 00000022 615.06 302.32 360.94 559.00 811.08 517.22 957.52 550.88 939.58 632.01 800.52 717.73 920.21 748.09
00011749 00000023 615.76 301.73 360.92 559.82 812.00 518.80 957.63 550.84 940.75 632.88 801.44 717.59 921.00 746.63
00011750 00000024 615.34 300.87 362.33 561.77 812.93 519.43 959.21 551.60 942.55 633.95 801.24 718.09 921.97 747.25
00011751 00000025 617.75 302.50 361.20 563.51 814.16 522.31 960.99 553.79 945.28 634.71 804.27 719.93 925.28 748.76
00011752 00000026 621.71 302.71 360.47 560.18 816.45 524.01 962.30 553.96 947.78 634.19 809.85 720.39 928.04 747.87
00011753 00000027 625.31 303.58 361.59 554.22 818.89 524.98 966.46 555.55 949.09 633.47 811.61 719.87 930.05 747.87
00011754 00000028 627.34 302.89 363.74 551.94 822.52 526.01 966.39 557.08 950.77 633.89 814.15 717.59 931.07 746.04
00011755 00000029 627.11 302.18 366.21 555.97 822.11 524.51 966.71 556.91 949.68 634.90 814.36 720.03 930.31 749.70
00011756 00000030 631.34 305.85 362.31 558.23 821.45 524.27 965.90 558.13 949.28 636.29 812.16 721.25 927.46 752.46
00011757 00000031 632.13 305.02 362.91 557.59 822.13 525.27 967.51 557.35 949.83 636.99 814.31 721.98 929.35 751.71
00011758 00000032 632.59 304.54 363.91 559.55 820.64 525.65 967.07 557.95 947.47 636.33 812.97 722.58 928.81 752.46
00011759 00000033 632.16 304.31 364.80 564.21 816.61 525.73 966.76 558.68 943.73 638.16 807.56 724.15 927.15 754.60
00011760 00000034 631.88 305.11 365.55 565.77 815.07 528.19 965.46 560.64 939.80 638.99 807.32 725.44 926.43 755.55
00011761 00000035 631.51 306.76 365.65 564.75 814.30 529.07 964.10 561.23 937.38 640.12 807.65 726.17 925.48 756.11
00011762 00000036 629.06 306.45 368.27 565.51 813.59 529.42 963.85 561.38 935.80 640.56 806.05 726.14 924.40 755.87
00011763 00000037 630.61 308.25 368.07 562.89 813.47 530.98 963.97 562.68 935.07 641.60 805.24 726.70 923.32 756.27
00011764 00000038 624.15 312.06 373.45 560.36 805.95 542.86 962.50 580.42 935.11 635.90 802.00 729.46 921.71 761.75
00011765 00000039 622.87 312.04 374.48 563.24 805.71 545.19 960.11 580.98 932.41 637.49 801.31 730.12 918.92 761.03
00011766 00000040 620.27 313.98 376.38 564.31 805.89 548.19 958.94 583.16 931.42 639.93 800.32 731.82 916.24 762.20
00011767 DELETE   616.02 316.05 379.68 568.24 801.96 552.79 960.61 590.70 930.41 644.48 795.16 737.55 916.60 770.50
00011768 DELETE   617.89 318.87 375.46 565.67 804.22 558.64 958.57 594.91 930.54 650.03 794.14 737.60 913.86 769.67
00011769 00000043 616.13 319.41 376.47 562.33 804.09 557.09 959.21 595.44 930.76 651.18 791.35 737.30 912.45 771.07
00011770 00000044 613.05 316.89 377.99 559.75 801.97 551.80 958.48 590.14 928.80 648.89 787.35 733.68 909.20 767.07
00011771 00000045 609.76 315.01 382.08 562.29 801.28 548.49 957.06 586.44 926.18 647.30 785.87 732.14 906.19 765.08
00011772 00000046 605.93 311.87 386.40 572.84 798.62 547.03 957.32 585.49 922.45 651.83 779.04 733.40 903.27 767.15
00011773 00000047 604.59 312.81 388.46 577.62 795.91 550.51 956.29 589.77 917.28 661.54 774.16 740.70 899.63 774.96
00011774 00000048 604.18 321.26 390.61 580.81 794.08 561.20 952.06 593.32 910.93 673.53 777.19 755.98 893.14 784.83
00011775 00000049 605.39 324.00 388.87 579.56 795.35 562.52 951.92 590.59 910.73 675.91 781.54 760.91 894.08 786.29
00011776 00000050 604.47 323.76 392.47 588.02 793.99 562.85 954.17 593.02 915.03 675.03 780.64 762.40 898.62 789.62
00011777 00000051 605.59 321.79 391.32 589.26 793.28 561.92 954.24 591.33 915.04 674.28 780.28 761.08 899.33 787.57
00011778 00000052 606.45 321.14 390.60 588.82 795.08 561.57 954.65 591.57 917.67 673.58 782.24 760.52 900.47 787.40
00011779 00000053 604.64 323.14 391.55 585.89 795.08 564.30 955.26 592.11 918.50 674.35 783.59 761.86 902.35 786.94
00011780 00000054 603.50 325.26 392.58 584.84 795.43 565.17 955.46 593.72 918.61 675.18 782.67 762.37 901.93 788.29
00011781 00000055 604.14 323.55 391.69 585.71 795.65 565.57 955.81 593.41 918.84 674.47 783.14 762.28 902.33 787.55
00011782 00000056 605.40 324.17 390.26 585.17 796.35 565.42 956.21 594.48 919.96 673.85 783.93 761.86 902.59 788.09
00011783 00000057 606.27 324.43 389.24 585.58 796.04 566.07 955.78 594.15 919.97 673.51 784.51 762.36 903.30 787.73
00011784 00000058 607.53 324.96 387.80 584.45 795.74 565.62 955.96 594.60 919.47 671.90 785.19 761.71 903.62 787.79
00011785 00000059 608.49 324.87 387.21 583.97 795.64 564.55 956.48 592.89 920.23 670.57 786.73 761.78 904.65 787.45
00011786 00000060 610.47 327.14 387.20 585.20 796.11 564.18 957.49 591.95 921.23 673.44 784.51 763.03 903.60 788.52
00011787 00000061 613.70 329.66 386.84 585.72 797.52 563.66 963.01 592.29 928.46 675.09 782.35 763.94 908.30 790.42
00011788 00000062 615.50 336.18 382.24 585.69 815.07 566.80 963.09 599.23 937.03 681.90 788.91 764.05 914.55 792.95
00011789 00000063 622.32 344.60 375.32 577.13 823.83 573.34 965.99 605.83 946.16 690.91 795.16 765.64 918.24 795.06
00011790 00000064 627.09 346.53 372.44 570.98 828.42 581.37 968.12 613.83 946.47 698.71 794.01 766.78 916.54 796.58
00011791 00000065 631.50 353.61 372.88 575.44 833.95 587.14 971.81 617.72 951.61 707.28 803.87 776.81 917.10 806.27
00011792 00000066 637.71 366.25 370.15 563.05 838.72 599.93 971.52 623.30 950.86 719.19 818.23 789.61 917.15 813.28
00011793 00000067 639.95 377.55 367.69 558.01 838.35 608.72 973.43 629.43 948.46 745.76 808.26 805.33 902.66 827.32
00011794 00000068 644.02 372.71 366.91 561.50 842.93 615.78 974.44 636.30 948.37 752.39 807.93 810.25 895.81 831.86
00011795 00000069 635.37 382.41 382.77 551.69 828.71 630.60 981.67 644.23 947.87 751.60 809.97 821.07 912.96 833.82
00011796 00000070 633.99 386.87 383.21 550.57 830.42 633.66 981.86 645.81 948.46 755.18 810.63 823.89 912.24 835.92
00011797 00000071 632.85 388.33 383.60 546.75 831.13 632.97 980.95 644.54 948.56 751.51 817.65 823.96 916.64 834.74
00011798 00000072 630.52 386.54 384.28 550.77 837.72 634.38 980.25 646.92 951.58 750.86 820.56 820.32 915.48 832.14
00011799 00000073 644.85 386.10 370.48 549.19 842.12 632.18 977.57 647.39 952.74 751.23 828.66 824.12 913.77 837.94
00011800 00000074 662.51 379.94 352.44 546.25 851.00 626.55 979.16 645.14 963.74 748.78 847.53 825.04 925.46 841.49
00011801 00000075 667.87 362.90 341.36 569.72 872.26 623.15 976.24 639.35 973.75 738.19 855.83 813.46 928.63 829.75
00011802 00000076 658.12 369.25 350.13 558.74 863.98 623.32 971.93 642.38 979.07 737.62 867.32 816.82 931.65 833.12
00011803 00000077 652.75 371.47 355.28 552.88 863.68 620.71 972.43 636.30 982.28 731.44 867.31 811.63 934.57 825.55
00011804 00000078 657.69 366.72 350.00 558.28 864.63 617.49 968.88 633.31 980.74 724.46 869.20 804.89 936.54 818.96
00011805 00000079 656.97 354.83 344.93 570.10 864.57 611.68 968.38 625.68 972.21 722.01 860.00 801.31 934.15 814.97
00011806 00000080 650.30 347.58 350.13 578.45 862.33 609.74 967.11 619.73 973.43 720.42 860.38 802.78 934.49 812.99
00011807 00000081 650.46 352.62 351.59 572.18 861.26 609.06 963.83 620.32 972.42 717.95 861.57 800.13 933.15 811.45
00011808 00000082 651.03 353.76 350.83 571.47 857.19 607.99 962.35 619.18 969.86 716.30 860.80 800.44 932.42 811.67
00011809 00000083 652.81 353.51 348.74 572.56 856.77 609.02 962.41 618.84 969.39 716.89 857.96 799.39 931.20 809.91
00011810 00000084 647.16 349.15 353.73 578.34 855.67 612.02 962.77 617.71 969.92 720.13 857.09 801.78 932.15 809.07
00011811 00000085 648.58 349.34 352.61 582.80 852.87 615.06 962.33 618.89 968.60 724.71 852.60 804.66 929.73 810.92
00011812 00000086 645.92 353.85 353.62 581.09 850.21 614.67 961.85 620.70 965.53 727.64 848.25 807.67 924.22 816.20
00011813 00000087 647.89 350.94 351.82 583.51 849.35 616.76 961.90 622.25 961.68 728.77 844.04 807.91 919.18 816.33
00011814 00000088 640.58 350.52 356.51 583.96 845.67 615.59 963.46 621.56 959.10 732.90 838.98 811.08 916.20 819.95
00011815 00000089 642.16 353.41 352.43 580.38 845.53 615.41 963.24 622.00 957.14 736.77 833.27 811.86 909.22 822.16
00011816 00000090 638.02 365.24 360.68 573.42 829.04 619.41 960.96 621.09 960.43 731.85 840.90 818.77 925.87 821.04
00011817 00000091 638.71 357.73 355.66 579.50 840.29 615.53 959.02 617.19 958.97 732.87 838.29 811.77 918.08 817.74
00011818 00000092 633.31 353.97 359.61 587.59 837.61 616.30 955.28 617.26 960.19 732.19 840.83 815.30 918.94 820.42
00011819 00000093 632.40 353.60 358.29 590.63 836.96 616.99 953.78 617.38 961.13 732.02 841.83 817.06 919.34 821.48
00011820 00000094 630.76 360.67 356.06 582.85 837.65 615.45 952.02 617.78 962.07 731.83 844.53 818.66 919.01 824.40
00011821 00000095 625.43 363.62 356.94 578.07 838.84 616.77 952.88 620.01 959.80 735.36 843.46 821.73 915.07 828.33
00011822 00000096 624.02 366.18 354.79 573.16 838.27 619.47 951.98 623.19 957.46 739.86 838.04 821.55 909.61 828.85
00011823 00000097 619.71 361.37 355.00 578.86 838.11 619.49 950.99 623.57 957.43 743.72 835.51 822.50 907.59 830.15
00011824 00000098 621.28 366.49 351.69 569.36 838.80 619.10 951.72 623.46 955.78 746.67 831.70 821.11 903.56 829.07
00011825 00000099 621.43 362.83 350.64 572.24 835.23 619.63 949.31 622.42 955.23 745.96 833.80 822.89 905.36 829.13
00011826 00000100 617.17 357.90 352.26 576.90 835.07 619.67 947.74 622.22 956.52 744.47 836.80 824.09 906.07 830.28
00011827 00000101 618.37 357.62 350.52 578.69 829.08 620.91 946.34 622.10 952.22 744.64 832.85 823.86 907.83 828.69
00011828 00000102 617.97 359.10 351.64 577.46 821.36 616.59 942.45 620.60 947.95 739.91 826.13 821.05 906.61 827.74
CROP_BBOX: 341 8 1320 1080
