Video ID: 	bOOO8sp0b4g
H: 	1080
W: 	1920
FPS: 	25.0

FRAME INDEX X0 Y0 W H [Landmarks (5 Points)]

00005577 00000000 746.29 94.22 677.40 849.88 902.64 435.82 1194.74 373.79 1067.95 605.13 1013.59 756.69 1236.16 704.87
00005578 00000001 745.19 92.30 670.40 854.91 903.07 436.66 1184.39 377.03 1060.55 611.73 1004.68 751.94 1224.36 701.48
00005579 00000002 741.90 94.98 675.62 857.66 900.42 437.08 1181.73 377.47 1058.30 614.45 1003.08 753.65 1222.34 703.34
00005580 00000003 749.96 97.10 673.00 862.10 905.92 438.68 1185.13 378.44 1060.26 614.16 1008.07 755.70 1227.13 704.87
00005581 00000004 763.67 99.44 669.70 856.14 917.97 436.20 1196.76 380.55 1069.63 615.15 1018.57 756.93 1230.69 709.77
00005582 00000005 777.89 91.81 664.54 856.58 928.48 435.24 1211.78 380.50 1084.06 617.50 1029.23 757.43 1243.33 710.28
00005583 00000006 797.84 90.90 661.34 859.35 944.12 441.69 1226.44 385.16 1098.61 620.12 1048.07 763.12 1261.15 715.12
00005584 00000007 817.21 99.09 661.44 855.06 965.61 438.37 1245.09 391.51 1114.08 629.26 1061.98 759.12 1274.88 719.62
00005585 DELETE   836.28 102.98 660.82 858.73 984.70 439.57 1264.80 392.43 1133.58 631.98 1078.38 762.42 1292.82 722.63
00005586 DELETE   857.32 95.18 653.66 854.57 1002.08 437.75 1284.85 389.57 1152.64 623.99 1094.57 758.76 1308.79 717.70
00005587 00000010 878.42 93.25 655.07 851.59 1019.24 429.70 1303.25 382.09 1169.29 617.58 1112.36 753.10 1328.92 712.23
00005588 00000011 891.35 87.14 650.59 853.12 1037.25 423.37 1319.65 379.87 1184.74 609.96 1118.58 743.46 1338.36 706.22
00005589 00000012 905.48 90.04 651.47 845.30 1047.73 416.74 1334.36 374.09 1195.38 607.82 1127.00 737.45 1351.50 700.79
00005590 00000013 909.33 93.79 653.79 841.46 1052.09 416.44 1341.58 371.60 1203.61 607.53 1132.72 738.38 1359.44 699.67
00005591 00000014 910.10 90.47 657.52 842.92 1053.67 414.03 1345.19 371.07 1204.85 608.15 1133.22 737.99 1361.09 700.73
00005592 00000015 906.03 89.33 658.49 848.12 1052.03 412.85 1340.82 369.73 1202.54 605.50 1131.49 735.94 1359.35 698.63
00005593 00000016 902.84 91.41 657.19 848.57 1047.24 411.93 1334.10 369.36 1196.40 604.85 1126.78 735.00 1353.87 698.30
00005594 00000017 903.62 92.44 651.64 848.17 1045.99 416.34 1332.16 373.53 1194.41 607.26 1125.61 739.06 1349.97 702.37
00005595 00000018 900.32 89.07 650.51 855.34 1041.49 424.52 1327.74 382.04 1188.83 611.46 1121.26 745.30 1342.91 709.11
00005596 00000019 894.02 99.41 648.86 849.46 1035.05 433.31 1318.96 391.91 1180.49 626.02 1119.01 754.14 1336.51 719.16
00005597 00000020 880.76 114.89 670.38 857.50 1024.97 442.61 1308.62 402.39 1177.03 640.66 1122.73 766.50 1347.06 731.57
00005598 00000021 877.99 118.56 668.86 858.60 1021.55 450.00 1307.83 409.54 1174.47 647.69 1116.45 774.81 1345.09 739.30
00005599 00000022 875.79 117.63 670.25 857.74 1020.28 447.30 1307.02 405.89 1175.36 644.56 1117.72 771.63 1345.71 735.46
00005600 00000023 881.01 98.31 656.33 854.49 1021.11 437.37 1307.73 390.56 1172.88 627.11 1116.85 760.77 1335.82 720.91
00005601 00000024 883.76 88.80 650.98 856.22 1029.90 428.20 1305.13 386.77 1170.82 615.57 1111.23 745.03 1324.65 709.62
00005602 00000025 883.65 82.64 651.03 863.72 1028.51 421.50 1303.01 377.05 1170.69 607.28 1112.48 741.76 1326.73 703.84
00005603 00000026 874.04 70.83 664.37 876.21 1024.68 410.11 1306.69 364.75 1177.12 592.40 1117.37 736.34 1336.96 696.97
00005604 00000027 874.35 58.44 658.89 878.78 1024.25 399.37 1302.68 358.61 1172.36 579.36 1113.01 725.15 1328.57 689.61
00005605 00000028 867.38 55.65 663.07 876.70 1019.96 389.94 1297.31 350.13 1167.50 567.53 1106.10 716.18 1323.91 681.23
00005606 00000029 862.27 60.30 664.76 867.09 1013.34 387.94 1291.33 347.32 1161.77 564.93 1102.66 714.37 1318.18 678.82
00005607 00000030 859.68 62.29 660.07 862.82 1008.09 393.04 1285.80 353.13 1154.59 571.74 1094.52 717.59 1309.08 682.99
00005608 00000031 854.39 79.34 654.99 847.72 1002.52 406.80 1284.29 362.52 1155.66 586.27 1092.44 730.48 1306.12 692.26
00005609 00000032 851.53 90.19 659.48 854.77 1000.01 422.88 1288.79 374.31 1156.11 602.39 1089.56 748.72 1309.15 706.81
00005610 00000033 849.36 94.29 658.98 854.13 999.30 432.48 1283.95 385.42 1150.96 612.78 1088.53 754.98 1300.47 714.66
00005611 00000034 852.26 106.21 657.10 844.49 999.39 435.81 1284.87 388.48 1151.51 615.72 1091.51 757.95 1303.23 717.75
00005612 00000035 855.92 107.17 655.91 843.63 1001.02 435.45 1287.31 387.40 1153.97 615.72 1093.70 758.10 1306.52 717.28
00005613 00000036 859.65 98.95 652.88 846.09 1006.38 437.94 1290.29 390.58 1158.35 616.29 1098.49 757.68 1308.74 717.45
00005614 00000037 866.06 100.36 652.92 848.21 1011.77 435.56 1297.86 388.71 1165.39 614.24 1103.96 757.89 1317.05 717.97
00005615 00000038 868.80 98.77 651.70 847.39 1012.67 432.14 1299.82 386.44 1166.05 611.92 1103.60 756.02 1317.19 717.04
00005616 00000039 872.63 95.53 655.29 850.69 1016.18 428.48 1301.77 380.66 1169.01 605.79 1107.26 751.95 1323.85 711.05
00005617 00000040 874.27 83.76 660.73 859.16 1021.02 418.57 1306.11 370.30 1175.18 599.48 1114.60 746.79 1330.22 705.17
00005618 00000041 878.60 83.08 660.71 860.59 1023.43 409.88 1307.46 366.17 1174.70 590.20 1117.00 738.40 1333.51 700.52
00005619 00000042 880.60 80.00 657.31 863.55 1025.75 406.52 1306.19 364.64 1174.78 587.36 1117.65 734.13 1332.89 697.74
00005620 00000043 877.88 78.89 660.58 866.50 1024.07 410.19 1306.67 366.85 1174.22 589.87 1115.93 738.37 1332.38 700.88
00005621 00000044 878.50 79.76 657.32 865.39 1023.70 421.66 1306.58 374.54 1174.77 598.61 1114.93 749.08 1330.49 708.69
00005622 00000045 882.56 94.73 644.24 855.99 1025.52 432.86 1300.68 388.40 1169.02 612.31 1112.09 754.18 1320.52 716.24
00005623 00000046 878.15 94.65 649.95 865.34 1018.62 443.75 1301.10 392.10 1171.38 621.05 1115.66 768.40 1329.56 724.54
00005624 00000047 879.75 108.03 650.32 859.48 1019.00 446.41 1302.71 396.23 1170.78 625.50 1115.02 772.45 1330.61 730.17
00005625 00000048 876.27 113.37 668.10 871.09 1026.27 440.57 1302.91 402.04 1176.74 628.31 1124.22 768.71 1337.95 735.71
00005626 00000049 891.98 117.19 645.92 848.37 1028.19 443.74 1308.14 399.05 1172.16 628.89 1118.59 766.91 1330.20 729.59
00005627 00000050 892.62 113.79 649.12 850.50 1031.61 443.20 1312.06 398.29 1176.09 628.86 1120.63 766.38 1332.91 728.86
00005628 00000051 894.49 112.78 646.55 850.62 1033.91 442.80 1314.78 397.66 1179.15 625.62 1123.11 767.85 1332.41 730.15
00005629 00000052 894.72 107.67 645.34 854.22 1034.03 438.77 1312.59 394.44 1177.99 621.25 1123.94 763.73 1331.82 726.64
00005630 00000053 894.26 100.07 643.91 855.75 1035.61 435.31 1314.49 388.15 1181.15 610.97 1123.31 759.83 1332.45 720.13
00005631 00000054 896.58 97.02 643.52 861.07 1036.17 430.86 1315.71 383.47 1182.40 603.70 1121.13 754.95 1335.30 715.01
00005632 00000055 894.51 89.18 643.11 863.11 1036.51 424.77 1313.23 379.65 1180.54 602.25 1119.66 751.39 1330.64 713.14
00005633 00000056 891.36 94.54 642.12 855.31 1030.62 424.74 1307.02 380.53 1173.19 602.75 1115.08 752.03 1323.25 714.55
00005634 00000057 879.74 92.61 655.95 860.01 1020.55 431.35 1304.24 381.96 1171.72 607.43 1117.26 761.14 1329.38 719.26
00005635 00000058 877.37 89.72 655.41 866.12 1020.96 432.75 1303.77 385.94 1171.86 612.49 1116.42 763.98 1325.86 724.14
00005636 00000059 876.67 90.53 652.29 866.79 1020.26 435.64 1302.93 387.70 1172.10 613.98 1116.29 766.02 1325.09 725.29
00005637 00000060 879.01 95.38 649.08 865.13 1019.86 439.19 1301.74 390.36 1170.76 616.45 1115.28 767.74 1325.23 726.37
00005638 00000061 879.32 95.85 650.49 865.97 1021.23 440.11 1301.15 390.94 1171.12 617.69 1117.58 767.89 1326.92 726.20
00005639 00000062 881.97 95.71 649.27 866.69 1023.87 439.83 1303.64 390.43 1174.13 618.14 1120.36 768.94 1330.17 727.19
00005640 00000063 891.61 105.98 642.71 855.40 1033.32 437.54 1310.79 392.08 1179.19 617.24 1123.44 764.04 1329.39 725.71
00005641 00000064 890.69 96.35 651.18 871.35 1034.52 438.50 1319.68 389.74 1190.52 616.48 1131.43 771.65 1345.68 730.58
00005642 00000065 892.08 89.24 654.97 870.34 1039.89 436.93 1324.10 388.48 1195.93 608.85 1135.96 767.92 1346.07 727.39
00005643 00000066 900.63 84.16 649.53 863.77 1046.65 440.08 1326.05 392.78 1196.01 604.10 1137.69 760.77 1346.89 721.24
00005644 00000067 902.34 87.56 651.96 860.94 1046.77 438.86 1332.92 390.84 1199.96 603.06 1136.74 760.17 1353.76 720.26
00005645 00000068 903.37 87.98 652.18 862.10 1049.44 434.76 1336.69 390.34 1202.40 600.32 1135.15 758.33 1353.75 721.41
00005646 00000069 900.18 88.83 653.49 862.81 1045.73 433.48 1336.31 388.47 1201.93 600.97 1133.55 760.11 1354.00 722.73
00005647 00000070 894.03 90.57 651.91 862.52 1040.00 436.01 1327.70 389.38 1195.90 605.23 1131.86 763.79 1347.64 724.80
00005648 00000071 887.98 87.18 654.50 871.20 1035.35 437.89 1320.84 390.43 1189.19 608.74 1127.51 767.13 1342.44 727.27
00005649 00000072 882.86 87.25 655.17 874.46 1029.56 437.33 1314.41 389.82 1183.95 612.57 1124.12 768.27 1338.85 728.09
00005650 00000073 884.99 92.39 644.40 864.78 1030.77 439.15 1307.52 393.35 1175.73 614.84 1117.96 762.68 1324.99 723.84
00005651 00000074 877.60 87.83 650.25 873.74 1024.15 441.29 1305.72 392.75 1175.82 614.61 1116.06 768.06 1329.43 727.05
00005652 00000075 872.23 86.38 650.52 872.83 1021.35 442.82 1303.92 392.93 1175.44 613.66 1114.00 768.78 1325.80 726.61
00005653 00000076 867.12 91.92 648.74 866.83 1017.26 445.29 1300.08 393.54 1173.24 613.60 1110.76 769.68 1320.35 726.11
00005654 00000077 864.91 91.70 649.09 865.71 1015.95 442.10 1300.63 390.58 1174.10 610.16 1110.08 769.05 1319.64 725.65
00005655 00000078 866.71 85.18 651.12 866.88 1018.77 438.65 1303.23 387.81 1176.80 608.68 1112.99 765.20 1323.60 722.17
00005656 00000079 866.29 86.18 656.33 865.83 1017.60 432.74 1303.18 383.19 1174.99 603.78 1110.93 760.77 1324.87 718.64
00005657 00000080 866.33 81.63 653.49 868.15 1017.75 428.21 1304.70 377.15 1174.82 594.98 1107.47 756.87 1322.52 713.73
00005658 00000081 865.32 73.42 653.89 872.94 1019.10 425.24 1305.54 375.02 1176.58 593.86 1108.68 753.35 1324.59 710.70
00005659 00000082 871.33 75.52 654.39 870.70 1023.35 429.92 1304.06 382.95 1173.64 595.84 1109.55 753.74 1323.22 713.85
00005660 00000083 869.31 86.40 652.46 860.58 1021.34 438.69 1297.73 388.22 1170.95 603.40 1111.95 757.59 1321.03 714.69
00005661 00000084 869.77 83.84 654.95 862.99 1022.01 444.57 1298.55 393.05 1171.10 608.06 1113.35 760.25 1323.60 716.82
00005662 00000085 875.91 80.49 656.77 868.73 1025.66 445.01 1305.74 394.93 1174.58 608.85 1114.82 762.17 1328.79 720.11
00005663 00000086 883.88 90.68 649.45 855.48 1034.85 441.38 1313.92 397.80 1180.35 611.29 1118.70 760.12 1326.60 723.64
00005664 00000087 888.76 82.60 654.71 864.33 1036.76 438.74 1324.53 392.85 1190.66 606.64 1126.28 761.53 1343.31 722.93
00005665 00000088 895.74 86.84 653.46 856.68 1043.20 434.67 1334.35 387.38 1203.68 601.76 1134.29 758.58 1354.18 718.82
00005666 00000089 905.78 93.26 653.34 851.00 1054.83 432.70 1345.88 386.82 1215.17 601.96 1142.31 755.45 1364.02 717.20
00005667 00000090 915.07 88.28 646.46 851.74 1068.13 432.67 1356.78 388.42 1225.16 602.63 1151.26 754.61 1363.92 716.90
00005668 00000091 917.65 85.14 647.57 859.49 1071.77 432.70 1360.34 388.27 1229.27 602.50 1155.41 756.14 1368.73 718.24
00005669 00000092 921.76 83.76 648.35 860.87 1075.20 431.90 1364.76 386.74 1233.71 601.44 1158.62 755.98 1373.96 717.40
00005670 00000093 923.22 90.06 647.22 853.78 1076.66 430.08 1366.38 385.48 1236.19 600.52 1160.77 754.30 1375.03 716.26
00005671 00000094 919.78 84.90 648.16 859.36 1074.24 430.98 1363.99 386.72 1233.49 601.59 1157.95 755.78 1372.11 717.92
00005672 00000095 914.21 98.55 647.29 851.08 1065.44 431.91 1353.24 388.83 1226.67 603.55 1154.37 757.83 1370.34 721.95
00005673 00000096 904.63 90.97 651.17 857.27 1055.02 431.36 1344.36 386.66 1215.87 606.98 1143.29 756.95 1363.51 719.40
00005674 00000097 896.61 90.94 648.23 855.85 1043.08 430.87 1333.47 383.54 1205.20 602.80 1134.54 759.30 1353.17 719.35
00005675 00000098 889.48 88.95 645.72 851.22 1037.08 428.22 1322.10 381.87 1189.25 599.52 1121.01 753.48 1335.46 714.46
00005676 00000099 868.50 79.68 657.05 857.17 1020.92 424.04 1308.76 374.10 1180.44 596.17 1115.12 750.33 1331.06 707.86
00005677 00000100 851.50 83.03 659.65 855.49 1008.29 427.88 1296.64 374.26 1170.53 596.28 1101.36 751.51 1318.84 705.62
00005678 00000101 843.37 84.94 661.55 854.39 1000.61 431.35 1287.71 379.58 1158.10 596.15 1088.84 752.62 1306.51 708.37
00005679 00000102 840.23 92.54 657.25 839.67 992.87 437.17 1276.41 386.99 1144.23 599.59 1079.50 750.52 1294.25 707.81
00005680 00000103 834.50 87.89 661.33 849.88 991.08 440.23 1276.36 390.49 1143.91 604.04 1077.58 754.86 1292.49 712.60
00005681 00000104 836.42 91.49 659.03 853.04 992.42 440.91 1275.81 391.31 1144.60 608.19 1079.55 758.21 1292.48 716.07
00005682 00000105 841.50 93.39 658.22 853.74 1000.73 450.71 1281.04 399.47 1153.60 611.94 1087.34 762.08 1299.15 718.69
00005683 00000106 851.37 104.70 654.51 858.59 1010.91 455.78 1285.79 411.29 1162.79 623.70 1100.73 768.77 1311.63 729.58
00005684 00000107 860.62 109.12 656.28 852.09 1019.95 457.90 1293.33 411.31 1173.13 628.05 1113.62 767.99 1325.60 726.89
00005685 00000108 875.19 91.48 653.76 859.02 1025.14 452.13 1303.35 400.97 1175.09 617.77 1116.54 765.29 1330.48 722.10
00005686 00000109 882.78 87.77 661.40 850.98 1031.12 442.69 1314.85 392.18 1180.75 604.12 1122.45 757.31 1338.21 715.00
00005687 00000110 894.00 83.54 654.72 856.26 1042.69 438.21 1325.09 387.88 1196.76 602.14 1136.83 752.43 1353.98 709.63
00005688 00000111 902.15 91.24 653.88 849.94 1050.48 440.08 1337.57 391.03 1207.64 603.87 1140.46 755.04 1361.19 713.89
00005689 00000112 903.16 91.25 655.73 848.39 1055.08 437.94 1344.57 391.08 1213.70 600.82 1141.10 752.83 1364.17 713.71
00005690 00000113 906.29 91.77 658.22 850.60 1058.70 430.29 1350.91 385.42 1218.53 597.89 1143.73 752.50 1365.81 715.35
00005691 00000114 911.14 92.41 652.77 850.41 1062.20 428.24 1353.41 384.54 1222.95 596.25 1147.52 752.76 1367.13 716.53
00005692 00000115 906.60 88.46 653.46 855.75 1057.29 428.60 1348.72 384.35 1218.84 599.85 1144.04 753.39 1365.27 716.30
00005693 00000116 903.07 88.95 650.75 857.25 1052.55 431.79 1342.77 387.11 1212.29 601.50 1138.66 756.37 1359.49 719.07
00005694 00000117 897.93 92.01 655.51 848.24 1048.95 429.57 1333.88 391.49 1207.75 609.04 1138.59 748.70 1352.99 716.36
00005695 00000118 889.38 80.56 655.22 863.48 1035.36 431.47 1326.40 386.20 1192.99 602.77 1125.47 757.17 1345.90 718.85
00005696 00000119 881.19 84.31 659.90 858.83 1029.39 434.40 1314.18 388.31 1178.97 600.62 1117.27 755.18 1333.80 716.34
00005697 00000120 867.98 84.16 653.95 853.02 1021.60 439.70 1298.30 392.29 1169.72 605.27 1110.03 753.06 1320.21 712.60
00005698 00000121 858.09 94.28 652.92 846.18 1010.50 449.53 1291.38 397.05 1162.82 608.97 1100.99 760.53 1311.46 716.36
00005699 00000122 847.80 91.03 655.60 861.60 1004.50 456.60 1286.15 402.87 1159.25 612.08 1092.91 768.21 1307.46 722.83
00005700 00000123 850.23 105.33 651.66 854.41 1002.54 450.52 1281.32 407.48 1153.88 624.17 1090.89 767.15 1305.00 729.51
00005701 00000124 849.87 108.25 655.03 854.88 1001.40 448.17 1285.08 406.75 1154.78 627.12 1089.20 768.33 1307.10 732.02
00005702 00000125 854.84 108.71 653.01 852.97 1007.44 448.64 1291.17 406.75 1162.68 626.85 1096.53 770.36 1310.32 733.70
00005703 00000126 862.33 105.50 656.88 861.33 1016.00 449.81 1299.14 408.18 1171.51 629.56 1105.86 770.35 1323.40 733.96
00005704 00000127 877.34 95.23 650.52 869.81 1022.08 456.42 1308.87 402.84 1177.68 622.81 1114.02 777.18 1335.47 732.27
00005705 00000128 883.76 94.18 649.36 865.08 1029.66 453.51 1311.35 402.44 1180.96 616.54 1122.22 772.54 1336.88 729.90
00005706 00000129 890.71 86.81 647.02 859.75 1036.04 444.65 1314.25 395.45 1186.19 607.92 1130.80 763.02 1339.45 721.11
00005707 00000130 901.53 79.22 646.91 863.69 1045.48 435.38 1326.98 387.60 1197.47 597.59 1135.16 754.13 1350.61 713.66
00005708 00000131 907.81 81.50 653.66 856.06 1054.12 425.66 1342.33 382.14 1209.81 590.89 1139.51 743.57 1363.08 706.55
00005709 00000132 910.53 80.83 654.54 855.48 1059.18 421.76 1344.09 380.03 1213.27 589.84 1145.26 737.87 1367.01 701.83
00005710 00000133 916.80 80.71 646.76 851.01 1066.21 418.66 1349.48 381.22 1213.05 596.52 1136.57 730.01 1362.74 697.53
00005711 00000134 917.04 79.84 649.57 853.23 1067.53 416.25 1353.12 380.13 1215.07 598.16 1134.74 727.90 1365.45 696.36
00005712 00000135 912.53 84.74 655.29 854.48 1061.03 425.82 1351.14 385.29 1216.34 598.61 1138.33 737.93 1369.38 703.50
00005713 00000136 907.54 84.37 652.29 861.72 1059.42 423.85 1349.24 382.53 1212.94 603.55 1131.77 739.91 1362.15 704.43
00005714 00000137 905.74 89.33 649.15 858.26 1054.60 425.65 1344.50 385.66 1206.60 609.58 1127.72 741.94 1357.61 707.69
00005715 00000138 899.37 87.45 653.53 860.30 1045.92 432.38 1337.49 391.44 1203.35 610.72 1127.57 748.71 1358.67 713.83
00005716 00000139 895.52 84.81 654.20 865.77 1041.87 440.82 1331.32 397.13 1197.81 618.37 1126.19 755.42 1356.61 718.07
00005717 00000140 890.22 102.48 659.06 854.13 1040.36 438.95 1323.54 401.35 1196.43 630.68 1129.92 757.50 1350.21 725.21
00005718 00000141 889.27 102.46 657.79 861.63 1032.68 446.05 1326.00 399.78 1189.62 630.00 1122.52 770.17 1350.90 731.36
00005719 00000142 884.75 106.19 663.14 860.03 1033.91 441.29 1319.26 402.36 1191.07 635.63 1125.64 765.32 1347.21 731.87
00005720 00000143 891.97 95.82 648.72 868.52 1035.84 441.65 1319.51 396.99 1183.06 630.31 1121.11 766.47 1337.12 728.66
00005721 00000144 888.56 89.71 649.86 867.27 1036.95 438.53 1318.11 392.92 1185.30 616.94 1123.74 761.88 1335.80 723.46
00005722 00000145 887.74 80.48 653.50 871.41 1031.77 431.52 1317.55 385.60 1185.76 608.53 1122.05 757.13 1342.07 718.04
00005723 00000146 890.52 81.95 646.63 869.23 1035.78 421.79 1315.40 380.40 1180.01 604.13 1112.01 741.82 1334.20 706.48
00005724 00000147 882.36 78.90 659.40 866.72 1027.48 411.13 1314.62 369.14 1180.86 598.85 1115.64 738.62 1338.81 702.20
00005725 00000148 882.01 88.02 659.59 858.13 1024.16 408.88 1311.05 366.64 1176.43 596.83 1114.32 737.60 1336.07 701.06
00005726 00000149 880.93 85.60 661.20 859.48 1023.68 407.81 1310.14 366.64 1174.75 594.47 1113.27 736.00 1333.89 700.37
00005727 00000150 878.23 82.53 658.21 863.62 1022.10 409.78 1308.77 366.33 1174.89 596.67 1111.88 738.79 1331.99 701.42
00005728 00000151 873.92 77.16 659.17 870.86 1020.56 413.06 1307.62 369.60 1173.33 600.13 1107.92 745.16 1327.55 707.76
00005729 00000152 874.67 81.41 652.67 865.80 1017.55 426.59 1303.49 381.74 1169.37 606.67 1105.66 753.82 1323.29 715.31
CROP_BBOX: 506 0 1806 1080
