Video ID: 	RlrmSu5u9bE
H: 	2160
W: 	3840
FPS: 	23.976023976023978

FRAME INDEX X0 Y0 W H [Landmarks (5 Points)]

00012091 00000000 1515.10 321.59 601.53 925.50 1681.61 764.32 1945.88 754.53 1820.25 928.44 1709.10 1060.23 1928.85 1053.79
00012092 00000001 1510.89 341.33 598.67 919.67 1675.20 779.31 1940.92 768.13 1814.98 945.49 1704.86 1072.98 1928.07 1065.26
00012093 DELETE   1498.20 350.35 601.89 914.13 1659.28 783.77 1927.19 770.33 1799.56 949.92 1696.03 1079.15 1918.49 1069.49
00012094 DELETE   1481.90 357.41 610.09 900.94 1629.21 791.01 1901.82 773.15 1766.48 949.61 1677.90 1078.56 1896.85 1065.90
00012095 DELETE   1459.80 344.70 613.18 909.37 1605.36 784.60 1872.46 770.54 1732.64 954.99 1652.06 1078.55 1867.67 1068.74
00012096 00000005 1452.68 345.54 613.71 908.85 1594.92 777.90 1863.64 767.40 1720.84 953.46 1640.13 1076.93 1856.73 1069.55
00012097 00000006 1451.72 341.21 609.90 914.43 1592.91 773.17 1860.96 761.93 1718.12 951.19 1639.36 1077.70 1854.93 1069.40
00012098 00000007 1449.90 341.19 607.93 915.90 1588.65 770.48 1856.56 757.72 1713.04 948.79 1639.47 1081.43 1849.50 1071.76
00012099 00000008 1441.65 342.64 612.08 911.23 1578.57 776.63 1846.93 760.95 1701.56 947.30 1632.18 1082.46 1842.37 1071.19
00012100 00000009 1437.54 337.72 612.80 917.68 1571.76 781.88 1836.89 768.38 1687.27 946.02 1622.93 1083.18 1830.69 1074.09
00012101 00000010 1436.35 338.37 609.99 922.26 1564.11 772.85 1832.64 758.46 1680.54 944.44 1617.67 1083.86 1824.74 1073.57
00012102 00000011 1434.95 335.07 606.23 925.01 1560.88 761.36 1826.81 749.73 1671.84 941.49 1613.04 1081.16 1820.82 1071.80
00012103 00000012 1431.07 337.16 608.06 918.07 1557.59 757.86 1824.71 745.19 1668.23 939.81 1609.04 1078.99 1820.96 1068.35
00012104 00000013 1427.55 337.59 610.58 911.75 1555.38 755.59 1822.64 741.80 1667.23 935.57 1605.73 1076.64 1819.04 1065.36
00012105 00000014 1425.88 338.54 610.70 903.50 1554.31 755.44 1821.15 741.55 1666.48 934.91 1605.41 1073.19 1818.08 1061.86
00012106 00000015 1426.01 338.30 608.39 901.65 1554.13 756.74 1820.49 742.16 1667.06 936.51 1606.59 1072.59 1817.98 1060.63
00012107 00000016 1426.06 334.78 606.88 905.11 1554.34 761.66 1819.09 744.96 1668.95 937.03 1608.08 1071.93 1816.80 1058.57
00012108 00000017 1426.83 341.21 606.44 898.44 1554.67 772.86 1820.00 751.70 1672.77 934.00 1611.22 1072.11 1818.40 1056.18
00012109 00000018 1426.96 337.35 605.93 902.33 1554.37 768.05 1817.76 747.97 1670.93 934.34 1609.42 1071.34 1817.48 1055.89
00012110 00000019 1425.89 331.51 608.30 916.48 1555.81 762.09 1817.82 743.10 1668.78 931.31 1610.07 1070.58 1817.89 1055.57
00012111 00000020 1425.42 348.08 607.40 906.06 1556.10 766.93 1819.27 746.30 1669.51 926.66 1612.30 1069.79 1819.26 1053.71
00012112 00000021 1423.06 344.64 609.06 911.08 1555.68 767.53 1816.95 746.52 1666.60 920.02 1610.16 1064.20 1817.49 1048.39
00012113 00000022 1422.91 334.35 606.04 924.93 1554.91 753.97 1816.44 734.77 1663.88 917.06 1604.67 1063.71 1816.24 1048.59
00012114 00000023 1420.17 332.49 605.02 929.26 1552.07 745.95 1811.17 727.19 1659.81 915.34 1604.67 1067.95 1812.41 1052.76
00012115 00000024 1417.22 330.32 604.51 912.09 1549.26 744.19 1810.86 728.63 1660.02 917.62 1595.97 1062.53 1808.44 1049.86
00012116 00000025 1417.01 330.55 604.45 910.11 1549.21 743.35 1812.13 728.21 1661.61 918.13 1594.93 1062.22 1809.54 1049.84
00012117 00000026 1418.24 332.43 605.96 918.46 1551.97 746.30 1814.16 727.41 1664.34 918.10 1601.31 1064.83 1816.26 1049.43
00012118 00000027 1419.90 329.66 608.08 924.28 1554.10 751.78 1816.86 732.31 1667.13 916.38 1602.53 1061.87 1818.86 1046.40
00012119 00000028 1421.29 335.15 607.69 911.97 1553.27 758.99 1818.19 739.18 1668.81 916.66 1602.92 1062.09 1816.70 1047.10
00012120 00000029 1422.52 339.93 606.27 901.63 1552.91 767.12 1815.34 747.62 1668.14 915.20 1604.06 1060.18 1812.85 1046.58
00012121 00000030 1420.46 335.20 607.54 902.38 1550.43 757.93 1816.86 739.52 1667.00 915.64 1602.06 1060.74 1811.13 1047.24
00012122 00000031 1419.47 325.70 608.74 906.96 1550.92 750.75 1817.73 734.80 1667.16 914.79 1599.67 1060.10 1811.41 1048.24
00012123 00000032 1419.23 322.21 607.32 905.26 1550.82 745.11 1816.81 730.70 1665.77 913.94 1598.47 1057.99 1811.44 1046.95
00012124 00000033 1419.47 326.52 606.82 897.92 1550.47 739.50 1818.48 726.06 1665.58 912.87 1597.76 1055.94 1811.31 1045.18
00012125 00000034 1418.65 327.41 609.83 904.34 1550.95 736.25 1824.09 723.39 1667.23 907.94 1597.00 1056.06 1816.11 1045.88
00012126 00000035 1420.24 326.76 611.35 920.82 1556.65 732.81 1826.01 717.06 1670.49 901.59 1608.57 1059.23 1818.06 1046.62
00012127 00000036 1425.14 331.82 608.21 935.22 1560.26 730.76 1826.47 714.21 1668.84 898.42 1607.69 1059.60 1825.54 1045.93
00012128 00000037 1428.83 333.53 606.02 937.39 1564.45 740.19 1828.74 719.64 1675.99 897.84 1609.94 1056.89 1835.18 1040.54
00012129 00000038 1428.88 336.22 606.38 931.60 1565.63 751.43 1826.86 727.84 1678.52 897.67 1610.89 1052.81 1836.03 1034.71
00012130 00000039 1423.62 330.55 612.90 917.95 1562.36 745.62 1829.80 724.19 1680.65 898.66 1610.88 1051.01 1830.99 1034.55
00012131 00000040 1423.45 329.82 612.71 906.66 1562.65 740.78 1830.70 723.13 1683.29 899.29 1610.61 1044.85 1828.70 1031.21
00012132 00000041 1424.10 328.75 614.48 900.26 1568.58 737.06 1837.16 720.71 1692.30 899.58 1619.94 1044.17 1832.48 1031.25
00012133 00000042 1425.26 322.58 614.02 908.17 1575.08 738.45 1843.03 718.16 1703.09 900.43 1633.24 1051.12 1836.97 1035.45
00012134 00000043 1426.41 314.95 615.83 913.25 1578.76 737.83 1848.41 715.77 1709.77 902.99 1639.46 1055.55 1843.04 1038.37
00012135 00000044 1427.59 318.70 618.33 913.36 1581.79 729.52 1856.22 706.15 1715.47 901.69 1640.32 1055.51 1856.09 1036.10
00012136 00000045 1425.47 322.39 622.09 909.99 1580.42 727.75 1854.94 702.56 1714.96 898.11 1644.02 1054.70 1852.77 1034.00
00012137 00000046 1424.77 325.54 622.72 909.63 1578.48 726.84 1853.60 701.46 1712.07 896.40 1641.42 1053.08 1852.33 1032.21
00012138 00000047 1423.11 326.03 622.77 907.60 1575.39 724.39 1850.76 699.61 1707.94 894.80 1638.51 1052.79 1847.22 1032.41
00012139 00000048 1422.31 325.27 623.55 911.21 1574.38 721.17 1848.50 695.44 1704.42 890.97 1639.70 1051.90 1845.29 1030.75
00012140 00000049 1422.96 321.74 622.29 910.61 1574.34 716.60 1847.91 691.70 1703.65 886.72 1640.07 1046.61 1840.78 1026.28
00012141 00000050 1424.21 319.47 621.61 903.20 1574.39 714.61 1848.98 690.84 1704.97 885.85 1641.19 1042.44 1838.92 1023.19
00012142 00000051 1425.27 316.96 622.85 899.83 1574.88 713.40 1849.15 689.38 1706.32 884.19 1641.28 1037.09 1840.66 1017.66
00012143 00000052 1426.86 316.09 622.09 898.34 1575.41 713.20 1850.14 688.97 1707.55 884.42 1641.68 1034.18 1843.73 1014.39
00012144 00000053 1428.05 315.00 623.11 899.94 1575.85 713.04 1851.43 688.52 1708.45 883.55 1641.46 1032.76 1846.12 1012.69
00012145 00000054 1428.81 315.40 623.87 901.55 1578.46 713.90 1853.87 689.25 1712.14 885.32 1644.14 1032.92 1850.29 1012.46
00012146 00000055 1429.96 316.24 624.47 901.23 1579.18 714.93 1854.88 689.47 1713.70 885.83 1644.73 1033.42 1852.91 1012.31
00012147 00000056 1430.78 316.22 624.46 900.49 1579.81 715.06 1854.93 689.02 1714.08 885.31 1646.02 1033.41 1853.16 1011.92
00012148 00000057 1431.72 311.10 622.38 903.90 1579.77 713.48 1855.15 688.46 1713.81 883.98 1644.96 1031.98 1852.23 1011.51
00012149 00000058 1431.99 309.15 623.17 904.61 1580.29 712.09 1856.89 687.57 1714.35 882.75 1644.99 1031.71 1852.94 1011.74
00012150 00000059 1432.61 306.83 621.74 904.48 1581.47 711.37 1857.66 686.90 1715.74 881.30 1645.83 1030.35 1853.54 1010.52
00012151 00000060 1433.20 305.56 619.18 903.40 1583.35 710.15 1858.25 686.46 1717.29 879.71 1646.11 1031.54 1851.87 1012.59
00012152 00000061 1433.91 300.26 618.88 904.78 1583.84 707.76 1859.61 686.01 1717.67 878.79 1645.64 1031.39 1848.93 1014.32
00012153 00000062 1434.61 298.66 617.56 904.68 1584.16 707.04 1860.66 686.04 1717.59 878.51 1645.90 1031.60 1846.83 1015.31
00012154 00000063 1434.65 298.51 617.96 903.09 1584.04 706.25 1860.36 685.65 1717.72 877.93 1645.57 1031.59 1844.88 1015.66
00012155 00000064 1436.05 300.27 617.33 901.21 1586.38 709.52 1861.94 690.16 1719.22 876.47 1645.67 1029.47 1844.28 1014.96
00012156 00000065 1440.14 297.98 612.47 906.37 1590.85 722.45 1860.15 700.38 1721.64 875.41 1647.38 1029.53 1845.76 1014.39
00012157 00000066 1441.83 297.66 612.52 905.40 1592.27 730.67 1858.54 707.30 1722.05 876.25 1649.68 1028.52 1846.84 1013.16
00012158 00000067 1443.53 301.50 612.69 902.29 1592.58 728.15 1861.79 705.96 1722.47 875.58 1649.91 1028.04 1847.30 1013.49
00012159 00000068 1444.30 296.76 614.72 908.13 1595.70 721.94 1865.78 700.19 1725.37 875.64 1652.71 1028.82 1850.27 1013.89
00012160 00000069 1446.30 291.05 614.90 912.83 1599.50 716.17 1868.97 695.35 1728.51 875.93 1656.49 1028.92 1851.80 1014.17
00012161 00000070 1447.51 292.41 615.56 907.95 1599.04 713.69 1871.91 691.98 1730.85 874.89 1659.02 1029.02 1855.31 1013.20
00012162 00000071 1450.45 291.08 615.49 908.42 1603.81 711.11 1875.49 689.46 1735.78 875.63 1664.58 1028.94 1859.20 1012.55
00012163 00000072 1453.52 293.56 614.26 908.47 1607.51 710.69 1879.20 689.56 1740.19 876.78 1667.49 1029.20 1863.17 1012.70
00012164 00000073 1455.98 292.91 615.03 922.98 1612.88 712.67 1884.04 690.81 1744.88 875.67 1671.03 1029.81 1869.72 1012.42
00012165 00000074 1459.36 288.63 611.84 932.11 1626.09 713.71 1888.26 695.56 1758.90 880.61 1674.62 1029.38 1876.65 1017.14
00012166 00000075 1460.08 289.60 611.29 930.05 1626.27 729.45 1888.38 708.02 1761.79 882.39 1682.59 1039.73 1875.37 1025.71
00012167 00000076 1460.35 297.38 608.58 915.92 1624.58 734.92 1888.01 716.73 1761.39 891.57 1683.71 1046.28 1870.09 1034.80
00012168 00000077 1460.04 296.34 605.35 913.99 1620.76 724.39 1888.42 710.40 1750.87 896.64 1675.94 1045.85 1865.61 1034.70
00012169 00000078 1453.20 293.55 611.18 921.78 1611.04 716.70 1882.80 703.95 1739.60 891.90 1666.46 1043.02 1857.55 1033.23
00012170 00000079 1446.34 291.43 612.12 929.35 1601.12 712.25 1874.19 700.26 1728.10 887.96 1653.13 1041.30 1848.40 1032.68
00012171 00000080 1443.54 289.62 604.58 922.13 1595.38 708.05 1864.27 703.80 1716.89 884.46 1640.68 1034.83 1836.22 1033.04
00012172 00000081 1433.65 299.05 612.68 906.34 1579.91 721.43 1854.19 710.07 1703.66 879.59 1624.90 1030.68 1827.80 1024.62
00012173 00000082 1430.06 302.52 610.20 898.78 1569.90 715.58 1843.36 707.98 1688.24 877.02 1611.65 1024.85 1815.05 1021.03
00012174 00000083 1425.85 304.37 610.36 897.24 1568.25 702.70 1838.06 694.88 1683.92 871.51 1612.23 1020.02 1812.57 1014.57
00012175 00000084 1418.18 307.15 617.50 895.94 1564.10 696.28 1837.43 684.98 1685.06 869.80 1613.91 1019.89 1815.12 1010.83
00012176 00000085 1416.23 311.08 618.46 894.23 1565.74 695.59 1840.40 681.79 1690.94 868.73 1617.50 1020.72 1819.76 1009.42
00012177 00000086 1416.18 310.18 619.29 891.44 1567.51 696.79 1843.30 680.76 1696.36 868.74 1621.47 1019.97 1824.29 1006.80
00012178 00000087 1416.92 309.71 620.00 890.86 1566.75 698.12 1844.54 680.78 1697.58 869.67 1619.37 1015.69 1829.57 1001.01
00012179 00000088 1415.30 312.30 620.83 889.60 1564.61 698.14 1842.24 681.21 1694.15 869.12 1617.47 1014.93 1827.33 1000.57
00012180 00000089 1412.62 312.53 623.11 893.69 1565.68 699.51 1839.36 683.11 1692.96 870.59 1621.59 1019.26 1822.47 1005.66
00012181 00000090 1416.87 313.54 609.22 891.27 1564.24 703.74 1835.13 687.97 1693.89 876.13 1624.57 1023.19 1822.73 1010.29
00012182 00000091 1413.74 311.84 620.48 895.55 1567.93 703.05 1839.28 684.24 1697.27 871.92 1629.41 1025.61 1820.28 1010.45
00012183 00000092 1415.65 309.51 619.86 904.17 1570.13 703.87 1843.42 684.91 1700.54 874.21 1632.51 1031.22 1823.64 1015.98
00012184 00000093 1418.93 308.38 617.39 910.60 1574.53 706.64 1847.70 687.22 1704.99 878.93 1638.08 1037.29 1829.92 1021.57
00012185 00000094 1421.73 311.33 617.33 921.21 1579.33 711.96 1851.78 689.93 1710.19 885.90 1642.32 1046.86 1841.27 1028.49
00012186 00000095 1423.80 318.46 617.56 921.77 1579.85 717.32 1854.20 691.87 1713.27 891.27 1643.48 1051.56 1852.69 1030.01
00012187 00000096 1426.97 321.51 616.05 916.12 1582.97 727.32 1857.32 704.16 1719.43 902.95 1640.47 1050.19 1859.11 1030.33
00012188 00000097 1430.55 327.49 614.31 909.49 1587.92 732.72 1860.87 712.71 1726.14 911.40 1640.90 1051.52 1862.36 1034.07
00012189 00000098 1432.88 326.17 615.61 912.36 1592.07 736.00 1864.96 715.98 1731.80 915.22 1645.80 1054.36 1866.75 1036.81
00012190 00000099 1435.35 323.94 613.49 914.41 1594.51 735.27 1867.15 716.78 1732.57 915.37 1647.48 1056.09 1865.35 1039.80
00012191 00000100 1434.29 324.83 614.48 912.58 1593.42 733.93 1866.77 717.25 1730.76 913.79 1644.36 1054.82 1862.20 1040.18
00012192 00000101 1435.38 322.23 614.52 914.70 1594.57 736.62 1866.57 720.77 1731.49 914.37 1644.11 1053.29 1861.94 1039.61
00012193 00000102 1436.62 322.01 612.64 913.46 1594.73 741.09 1866.53 725.00 1732.66 916.34 1644.52 1053.34 1862.19 1039.75
00012194 00000103 1435.93 319.22 613.55 915.64 1594.30 741.68 1866.62 726.62 1732.62 918.45 1643.49 1054.66 1861.37 1041.91
00012195 00000104 1436.18 319.54 612.10 913.70 1594.33 741.93 1865.53 727.75 1731.21 919.73 1644.97 1057.93 1857.15 1045.98
00012196 00000105 1434.86 322.35 613.02 910.68 1593.48 740.73 1865.30 726.28 1730.63 917.76 1644.77 1056.57 1856.71 1044.35
00012197 00000106 1433.73 322.55 611.42 905.16 1592.01 738.04 1863.12 723.53 1727.95 913.14 1644.63 1053.63 1852.37 1041.60
00012198 00000107 1433.47 319.49 611.06 902.51 1591.27 735.23 1863.50 721.35 1726.08 910.96 1644.33 1051.23 1849.90 1039.78
00012199 00000108 1430.93 316.48 612.41 901.10 1589.89 734.70 1862.21 720.73 1724.87 907.82 1643.65 1048.15 1847.23 1037.10
00012200 00000109 1429.98 314.06 614.24 902.14 1589.44 732.14 1861.23 718.96 1722.62 904.39 1643.30 1045.15 1844.04 1034.91
00012201 00000110 1427.84 317.15 614.74 895.82 1587.29 731.23 1860.19 718.65 1720.74 904.39 1640.18 1042.02 1843.14 1031.94
00012202 00000111 1427.75 318.40 613.62 893.09 1585.33 730.36 1857.67 718.34 1717.60 903.94 1635.90 1038.15 1841.86 1028.32
00012203 00000112 1427.31 312.99 612.52 901.90 1584.55 729.93 1855.59 718.90 1714.02 902.49 1634.48 1040.48 1837.61 1032.01
00012204 00000113 1427.86 311.88 609.79 906.68 1583.67 728.63 1853.29 717.26 1711.24 900.68 1633.01 1040.77 1836.51 1032.05
00012205 00000114 1427.03 310.03 608.87 905.22 1581.47 727.29 1853.03 718.13 1708.68 902.74 1627.57 1045.36 1835.34 1038.23
00012206 00000115 1428.57 309.22 607.58 904.44 1580.65 729.33 1853.60 720.92 1708.46 903.89 1625.08 1045.30 1834.63 1039.00
00012207 00000116 1426.88 310.58 609.16 910.36 1579.75 743.56 1849.29 731.65 1707.03 903.92 1625.42 1048.37 1829.20 1040.98
00012208 00000117 1425.32 314.80 609.53 911.77 1578.95 738.20 1847.23 725.30 1705.16 899.71 1624.65 1046.38 1829.86 1037.51
00012209 00000118 1424.24 311.13 609.66 907.84 1575.05 727.09 1847.57 720.46 1700.18 901.15 1617.96 1046.24 1827.57 1041.25
00012210 00000119 1420.49 317.09 612.49 896.20 1572.90 721.15 1846.90 715.23 1698.36 899.40 1616.11 1041.61 1827.55 1036.44
00012211 00000120 1417.71 320.19 613.69 894.48 1570.27 717.62 1843.84 711.11 1694.55 895.30 1614.27 1038.62 1824.30 1032.88
00012212 00000121 1417.57 321.17 613.04 892.79 1570.40 718.55 1841.63 712.79 1693.05 893.49 1615.24 1037.94 1818.08 1033.22
00012213 00000122 1416.88 317.88 613.58 892.85 1569.83 719.20 1839.91 714.23 1691.43 892.24 1615.06 1036.56 1815.05 1032.78
00012214 00000123 1413.84 321.37 615.63 885.05 1566.87 717.89 1838.21 712.62 1689.58 890.82 1612.35 1034.42 1812.62 1030.43
00012215 00000124 1411.72 318.61 615.44 885.62 1565.72 718.94 1837.25 714.21 1688.72 891.95 1610.08 1035.12 1812.47 1031.61
00012216 00000125 1410.81 315.62 614.79 887.35 1564.65 719.33 1836.11 714.89 1687.94 893.47 1608.63 1036.11 1812.71 1032.74
00012217 00000126 1409.53 316.31 616.23 886.71 1563.66 719.04 1835.61 714.55 1687.56 893.23 1607.38 1036.66 1812.33 1033.28
00012218 00000127 1410.68 316.82 616.11 886.70 1564.68 720.39 1837.13 715.87 1688.55 893.80 1608.49 1036.11 1814.14 1032.72
00012219 00000128 1413.33 318.84 614.52 890.36 1567.32 721.13 1838.04 716.16 1690.35 894.49 1612.10 1039.19 1814.25 1035.49
00012220 00000129 1416.32 327.09 613.88 899.15 1569.60 722.90 1838.52 714.20 1691.12 897.13 1614.21 1040.16 1824.00 1032.64
00012221 00000130 1419.26 322.98 611.52 908.98 1571.39 726.54 1839.52 717.79 1691.71 900.31 1613.16 1040.20 1828.85 1032.50
00012222 00000131 1419.54 326.75 611.25 904.90 1570.03 728.12 1838.86 719.09 1691.04 902.38 1610.52 1040.20 1830.24 1032.21
00012223 00000132 1419.22 328.48 611.03 902.47 1569.81 728.66 1839.02 719.43 1691.75 902.22 1609.44 1039.97 1831.34 1031.87
00012224 00000133 1419.63 323.85 611.14 905.34 1570.57 730.38 1840.33 721.41 1693.30 903.82 1611.65 1043.04 1830.46 1035.19
00012225 00000134 1420.03 321.14 610.56 904.89 1571.31 731.11 1840.95 722.72 1694.19 904.56 1615.26 1045.14 1827.74 1037.91
00012226 00000135 1418.53 319.33 613.07 896.02 1569.57 732.78 1842.19 725.10 1695.62 908.26 1616.99 1047.26 1824.33 1041.08
00012227 00000136 1421.84 318.69 609.09 897.04 1570.22 739.19 1844.03 730.16 1698.46 910.01 1615.67 1048.83 1828.79 1041.83
00012228 00000137 1421.87 318.67 610.68 900.09 1570.32 746.83 1841.57 735.09 1698.66 911.08 1617.30 1049.80 1825.36 1041.64
00012229 00000138 1422.12 319.36 610.98 904.41 1573.04 736.77 1843.84 726.43 1699.56 909.47 1622.20 1049.96 1828.14 1041.62
00012230 00000139 1420.84 324.67 611.59 898.95 1572.95 726.84 1844.93 717.67 1698.29 905.87 1621.64 1048.30 1828.21 1040.15
00012231 00000140 1421.00 328.99 611.52 893.51 1571.96 723.44 1844.73 713.49 1697.43 902.52 1621.62 1045.94 1828.09 1037.12
00012232 00000141 1420.93 330.60 612.44 890.24 1571.99 721.96 1844.79 711.91 1698.08 901.73 1622.13 1044.78 1827.74 1035.99
00012233 00000142 1420.72 330.41 613.05 888.12 1571.93 721.30 1844.78 711.18 1698.34 901.06 1622.48 1044.15 1826.74 1035.42
00012234 00000143 1421.07 331.39 613.58 887.14 1572.38 720.68 1845.26 710.21 1698.33 899.61 1623.52 1043.50 1827.09 1034.55
00012235 00000144 1419.63 328.51 615.69 888.94 1571.82 718.38 1845.91 707.09 1699.89 896.60 1624.53 1040.79 1828.77 1031.15
00012236 00000145 1417.96 325.85 619.15 889.19 1571.13 713.82 1845.86 702.14 1699.58 893.25 1624.62 1038.13 1829.52 1028.06
00012237 00000146 1417.38 325.72 621.23 884.80 1569.94 709.51 1846.61 697.46 1698.71 887.68 1622.71 1033.22 1830.02 1022.85
00012238 00000147 1417.25 320.14 621.35 887.39 1569.45 705.60 1848.32 694.13 1698.47 882.19 1621.25 1029.91 1828.63 1020.27
00012239 00000148 1418.35 312.69 622.75 891.03 1571.37 703.48 1849.34 690.60 1700.98 877.10 1624.24 1025.19 1830.10 1014.66
00012240 00000149 1418.41 310.54 623.25 890.89 1572.25 700.37 1850.04 687.23 1703.35 873.99 1626.00 1022.70 1830.15 1011.93
00012241 00000150 1420.00 308.96 622.83 891.95 1573.42 700.30 1850.89 686.79 1704.14 873.10 1626.72 1022.13 1831.34 1011.10
00012242 00000151 1421.15 307.88 622.89 891.81 1574.14 700.64 1852.69 686.64 1705.81 873.19 1627.58 1022.88 1834.17 1011.51
00012243 00000152 1422.25 306.05 623.41 894.70 1574.41 701.72 1854.43 686.55 1707.43 874.81 1629.13 1024.57 1837.04 1012.27
00012244 00000153 1423.41 303.46 624.58 895.75 1575.78 701.73 1855.81 687.14 1709.14 875.86 1630.31 1023.78 1839.32 1011.98
00012245 00000154 1425.48 303.55 624.51 895.91 1578.09 701.53 1857.64 686.61 1712.33 875.23 1633.24 1023.64 1841.28 1011.63
00012246 00000155 1426.99 302.34 624.25 896.84 1579.26 700.22 1859.61 685.42 1713.73 874.18 1634.40 1023.43 1842.19 1011.57
00012247 00000156 1427.55 302.92 623.66 897.22 1579.46 701.02 1859.30 686.02 1713.35 874.66 1634.62 1023.82 1842.54 1011.87
00012248 00000157 1426.49 302.17 623.82 898.04 1577.41 702.47 1857.10 686.49 1711.14 875.69 1633.40 1024.95 1842.29 1012.23
00012249 00000158 1424.31 305.40 624.78 897.68 1575.10 702.85 1855.34 687.43 1707.88 877.10 1630.28 1025.60 1840.25 1013.07
00012250 00000159 1420.96 308.84 624.44 896.45 1571.46 702.54 1851.25 688.06 1702.10 877.10 1624.90 1025.56 1836.14 1013.57
