Video ID: 	7USwNiJZxy4
H: 	2160
W: 	3840
FPS: 	29.97002997002997

FRAME INDEX X0 Y0 W H [Landmarks (5 Points)]

00038549 00000000 1945.27 420.79 703.12 984.09 2110.61 829.26 2422.97 827.74 2256.89 1041.30 2158.05 1188.16 2392.89 1191.84
00038550 00000001 1944.27 427.33 701.61 978.36 2110.34 827.88 2417.39 822.40 2254.52 1043.28 2162.05 1189.70 2388.46 1190.49
00038551 00000002 1945.15 432.02 699.14 974.36 2109.92 829.30 2417.10 822.94 2254.97 1044.40 2162.24 1186.81 2393.84 1186.77
00038552 00000003 1945.82 434.12 698.41 973.50 2107.77 830.69 2418.96 825.37 2252.84 1041.79 2159.12 1184.04 2401.60 1184.69
00038553 00000004 1947.49 436.62 697.76 974.01 2111.08 831.19 2423.04 828.18 2255.61 1041.90 2155.60 1181.21 2404.33 1183.71
00038554 00000005 1953.87 426.08 681.94 991.52 2118.37 830.14 2429.26 827.50 2259.28 1043.33 2150.10 1178.33 2406.48 1177.82
00038555 00000006 1948.01 440.07 701.17 972.02 2112.89 832.47 2425.20 831.00 2256.77 1044.52 2155.07 1182.56 2403.41 1186.47
00038556 00000007 1946.15 439.53 704.37 972.57 2113.81 832.58 2425.26 833.81 2257.64 1048.50 2156.15 1184.89 2399.36 1191.04
00038557 00000008 1945.29 438.48 702.77 969.75 2113.34 850.80 2422.11 852.17 2257.37 1051.50 2154.79 1188.54 2395.28 1193.78
00038558 DELETE   1948.72 436.53 698.72 974.71 2112.52 860.72 2420.60 862.45 2255.65 1055.08 2156.12 1193.39 2397.42 1197.90
00038559 DELETE   1952.14 438.52 697.07 978.80 2113.25 861.93 2423.23 861.33 2256.91 1058.79 2159.51 1198.18 2402.15 1200.61
00038560 00000011 1951.10 439.21 698.16 979.28 2113.58 853.91 2425.99 855.59 2260.04 1058.37 2160.19 1196.97 2401.61 1201.75
00038561 00000012 1950.19 438.63 702.03 980.34 2115.95 848.73 2428.60 849.10 2263.52 1056.31 2163.21 1196.12 2405.21 1200.26
00038562 00000013 1950.88 438.10 702.70 978.61 2117.23 843.15 2428.28 842.77 2264.39 1054.73 2164.80 1193.91 2404.40 1197.69
00038563 00000014 1950.86 437.90 702.39 975.26 2116.51 841.73 2427.56 840.38 2263.58 1053.82 2164.99 1192.78 2404.22 1195.90
00038564 00000015 1952.15 440.01 700.09 972.28 2116.02 842.69 2427.33 840.11 2263.36 1054.89 2165.52 1193.06 2405.92 1195.05
00038565 00000016 1949.20 433.51 694.24 991.43 2121.27 843.89 2436.77 843.17 2261.38 1050.34 2154.71 1191.32 2409.49 1192.47
00038566 00000017 1949.19 433.14 694.07 992.28 2121.04 843.72 2438.03 843.40 2262.49 1053.13 2154.21 1191.70 2410.73 1192.87
00038567 00000018 1948.95 434.78 694.27 992.00 2121.36 844.41 2438.46 844.19 2263.40 1055.77 2153.77 1192.04 2411.61 1193.19
00038568 00000019 1949.27 437.71 693.33 989.60 2122.76 845.17 2438.53 844.66 2265.10 1058.14 2154.91 1192.68 2411.96 1193.60
00038569 00000020 1949.46 440.16 693.07 987.85 2122.89 845.87 2439.18 845.33 2265.49 1059.87 2155.51 1194.38 2412.03 1195.23
00038570 00000021 1949.80 443.62 692.62 983.68 2122.53 847.71 2438.77 846.64 2265.90 1061.08 2155.48 1195.26 2412.18 1195.77
00038571 00000022 1949.83 447.04 692.75 979.62 2122.84 850.32 2437.85 849.16 2265.37 1061.96 2155.35 1195.31 2412.25 1195.99
00038572 00000023 1949.52 451.85 692.29 974.79 2122.85 852.49 2438.04 850.88 2266.58 1063.95 2156.15 1197.67 2412.17 1198.00
00038573 00000024 1949.36 456.30 692.05 973.24 2124.83 855.23 2438.88 854.36 2268.72 1067.70 2157.22 1199.59 2413.42 1200.33
00038574 00000025 1950.10 463.11 690.77 968.69 2125.35 859.15 2439.13 857.98 2270.23 1072.64 2157.59 1204.34 2413.96 1204.82
00038575 00000026 1951.32 467.21 688.99 966.36 2126.56 861.39 2439.56 860.37 2271.64 1076.91 2159.26 1207.44 2414.36 1207.84
00038576 00000027 1958.53 463.94 678.50 973.52 2124.79 862.10 2433.55 857.01 2272.98 1080.00 2161.38 1209.41 2412.90 1205.91
00038577 00000028 1958.16 463.85 680.94 983.03 2125.25 861.56 2434.37 857.23 2273.90 1081.46 2158.59 1209.34 2417.56 1206.04
00038578 00000029 1956.46 463.86 683.78 986.31 2125.37 860.90 2434.74 857.65 2273.80 1082.00 2156.24 1207.40 2419.97 1204.70
00038579 00000030 1955.86 463.46 685.33 986.09 2125.73 859.41 2435.64 857.38 2273.65 1082.10 2154.85 1204.29 2421.47 1202.41
00038580 00000031 1955.00 461.48 686.69 986.47 2125.32 858.52 2435.78 856.34 2273.48 1078.89 2154.22 1200.72 2423.10 1198.66
00038581 00000032 1947.97 463.92 694.47 980.77 2126.01 857.83 2441.19 860.89 2271.16 1075.14 2146.77 1195.15 2423.49 1197.90
00038582 00000033 1954.49 457.19 688.62 983.13 2124.78 856.40 2435.04 853.41 2273.32 1073.77 2153.29 1192.09 2426.46 1189.14
00038583 00000034 1954.57 455.48 689.71 983.33 2124.86 855.57 2435.85 852.38 2273.79 1072.59 2153.52 1189.45 2428.83 1186.13
00038584 00000035 1955.26 455.32 689.32 982.41 2124.88 854.32 2436.66 850.54 2274.18 1071.88 2153.95 1187.46 2431.16 1183.47
00038585 00000036 1947.78 459.29 695.82 980.97 2125.29 854.35 2442.41 855.17 2272.74 1070.30 2147.16 1187.04 2430.18 1187.27
00038586 00000037 1947.27 457.84 695.76 982.31 2124.79 852.26 2443.01 853.31 2273.09 1069.06 2145.96 1184.16 2431.55 1184.06
00038587 00000038 1947.19 457.43 695.73 982.63 2124.89 850.10 2443.90 851.64 2273.66 1068.78 2144.46 1181.80 2432.66 1181.68
00038588 00000039 1946.95 455.69 695.58 983.96 2125.07 848.87 2444.37 850.48 2274.09 1067.67 2144.42 1179.74 2433.78 1179.35
00038589 00000040 1946.91 454.17 695.24 984.27 2125.39 847.82 2444.10 850.12 2273.83 1065.95 2143.69 1177.46 2433.49 1177.53
00038590 00000041 1947.53 453.43 693.40 984.44 2124.55 845.73 2443.67 848.92 2271.83 1065.03 2141.93 1174.22 2433.86 1174.60
00038591 00000042 1946.67 452.22 692.73 985.19 2125.12 843.19 2443.27 847.49 2271.76 1064.32 2140.46 1171.48 2433.19 1172.57
00038592 00000043 1947.18 449.59 691.31 984.25 2125.54 841.84 2443.53 846.30 2272.19 1062.79 2140.39 1168.13 2433.86 1169.13
00038593 00000044 1954.96 442.76 683.93 982.93 2123.22 840.59 2436.84 838.48 2274.14 1060.47 2147.80 1166.15 2435.87 1161.76
00038594 00000045 1955.79 440.55 681.29 982.29 2122.46 838.45 2436.97 837.35 2273.94 1057.75 2144.46 1162.51 2435.16 1158.96
00038595 00000046 1954.87 438.33 681.74 981.91 2121.48 837.76 2435.60 836.41 2273.06 1055.00 2142.68 1159.53 2434.65 1155.83
00038596 00000047 1954.93 437.69 681.00 980.55 2120.00 838.82 2433.60 836.46 2271.20 1052.20 2141.24 1156.60 2435.32 1152.06
00038597 00000048 1953.92 434.62 681.59 981.33 2119.10 839.18 2431.79 837.90 2268.18 1049.44 2139.60 1153.98 2434.13 1150.31
00038598 00000049 1950.61 431.29 685.18 982.60 2117.52 839.45 2431.69 838.56 2267.40 1046.68 2137.85 1152.01 2432.97 1148.83
00038599 00000050 1949.07 429.43 684.71 983.35 2115.46 842.83 2430.77 841.93 2266.28 1045.02 2135.15 1150.64 2432.34 1147.42
00038600 00000051 1946.65 424.94 684.85 985.86 2112.84 844.34 2428.83 841.99 2265.82 1041.85 2132.31 1148.88 2430.98 1144.69
00038601 00000052 1943.34 422.43 685.70 987.48 2108.32 842.23 2425.02 840.33 2261.90 1038.23 2125.87 1142.91 2429.41 1138.85
00038602 00000053 1939.62 431.37 696.76 966.21 2099.87 838.18 2416.74 831.10 2249.80 1030.04 2120.19 1133.64 2428.84 1132.43
00038603 00000054 1936.96 412.10 685.83 984.92 2102.15 832.50 2410.00 825.57 2248.57 1016.59 2121.20 1127.00 2420.65 1119.62
00038604 00000055 1934.58 404.56 686.61 978.80 2101.29 821.75 2408.71 815.59 2246.09 1001.09 2118.53 1117.07 2417.21 1110.86
00038605 00000056 1939.88 389.10 681.83 985.46 2103.76 802.29 2409.05 796.91 2248.05 982.64 2117.07 1102.10 2418.31 1096.46
00038606 00000057 1940.24 386.81 687.57 972.53 2111.73 788.70 2423.83 791.10 2253.16 969.51 2119.98 1086.30 2424.76 1086.52
00038607 00000058 1958.59 367.87 669.81 984.55 2117.28 777.04 2423.85 776.30 2259.24 960.80 2130.46 1074.74 2430.07 1072.94
00038608 00000059 1962.50 355.79 668.43 990.59 2119.86 770.29 2426.16 766.49 2264.34 948.52 2134.15 1069.09 2436.04 1065.05
00038609 00000060 1961.96 350.25 670.10 985.40 2120.38 761.52 2427.10 758.89 2261.84 935.81 2131.58 1059.48 2437.31 1056.49
00038610 00000061 1960.69 355.98 670.20 959.13 2124.45 750.78 2426.72 749.23 2263.49 925.54 2132.89 1046.81 2433.12 1045.68
00038611 00000062 1963.39 354.74 664.36 947.87 2125.15 745.29 2427.88 743.15 2265.07 915.23 2132.96 1039.25 2434.62 1038.10
00038612 DELETE   1965.00 350.77 667.79 949.76 2128.85 746.58 2438.20 746.58 2267.71 915.99 2129.69 1039.31 2438.56 1040.52
00038613 DELETE   1970.64 349.27 665.23 949.44 2132.97 748.71 2439.58 747.54 2271.04 917.53 2136.11 1039.89 2440.24 1040.32
00038614 00000065 1975.65 347.61 664.13 954.03 2136.35 750.24 2440.00 748.35 2272.54 923.42 2143.60 1044.77 2440.65 1044.35
00038615 00000066 1978.35 347.76 663.58 957.45 2137.97 752.78 2441.11 750.03 2273.89 927.29 2147.90 1049.91 2440.51 1049.01
00038616 00000067 1979.12 349.18 663.45 955.10 2138.06 755.55 2440.86 752.43 2273.16 928.03 2150.84 1053.72 2436.98 1053.10
00038617 00000068 1978.91 348.84 664.11 955.72 2137.57 756.39 2438.99 752.60 2271.33 928.46 2152.58 1055.35 2434.28 1054.35
00038618 00000069 1977.10 349.38 663.86 951.25 2136.09 753.49 2435.08 750.86 2266.52 925.06 2150.81 1052.19 2429.30 1052.43
00038619 00000070 1975.00 348.27 659.96 947.60 2131.90 748.71 2430.28 747.18 2259.75 920.12 2144.10 1046.86 2424.90 1048.01
00038620 00000071 1969.28 349.21 660.19 942.48 2123.82 747.17 2420.25 740.50 2250.05 911.26 2139.00 1045.65 2417.33 1043.98
00038621 00000072 1963.28 346.85 653.85 939.60 2111.34 742.06 2403.54 729.42 2242.24 899.52 2134.88 1041.39 2408.08 1034.78
00038622 00000073 1955.25 342.13 655.94 946.33 2099.67 735.44 2392.46 724.08 2225.69 893.50 2122.81 1036.56 2396.83 1030.98
00038623 00000074 1948.61 338.19 654.49 952.96 2092.41 735.98 2384.01 725.05 2216.11 892.66 2114.88 1036.68 2389.18 1031.48
00038624 00000075 1944.16 343.09 650.03 947.18 2087.24 736.01 2375.65 726.91 2207.36 894.11 2108.59 1035.96 2381.55 1031.76
00038625 00000076 1939.98 343.26 650.48 946.55 2081.57 738.32 2369.12 729.43 2200.51 897.49 2103.33 1037.33 2376.46 1032.98
00038626 00000077 1936.49 345.79 652.28 944.10 2079.50 740.46 2367.37 731.68 2198.28 898.53 2100.51 1037.70 2373.45 1033.57
00038627 00000078 1935.77 345.44 653.50 944.91 2080.32 743.07 2372.31 735.54 2203.60 900.35 2098.19 1037.71 2375.73 1034.30
00038628 DELETE   1939.65 351.25 652.29 939.50 2086.94 749.16 2381.38 741.45 2215.03 905.03 2104.13 1041.25 2383.41 1037.88
00038629 DELETE   1947.74 354.23 654.17 934.97 2099.84 753.94 2391.86 743.40 2231.77 910.84 2120.53 1044.79 2395.98 1038.88
00038630 00000081 1966.17 357.99 645.01 929.74 2118.50 754.02 2408.62 743.30 2252.32 911.10 2137.45 1042.84 2413.12 1036.27
00038631 00000082 1977.42 351.36 641.54 948.55 2129.46 753.94 2420.71 742.97 2265.84 911.40 2148.02 1049.69 2427.21 1042.55
00038632 00000083 1977.48 342.70 644.10 978.55 2127.99 747.42 2418.54 735.44 2262.72 906.97 2147.87 1051.49 2426.40 1043.06
00038633 00000084 1973.54 340.42 644.79 993.93 2122.53 745.85 2412.46 735.54 2250.98 904.13 2139.58 1054.08 2421.56 1047.00
00038634 00000085 1968.04 346.91 645.94 986.05 2119.03 750.32 2409.18 740.50 2247.06 909.03 2135.40 1056.95 2418.15 1050.26
00038635 00000086 1962.92 356.15 651.91 966.51 2117.26 757.41 2410.34 751.54 2245.73 918.59 2132.61 1056.93 2417.52 1053.13
00038636 00000087 1959.41 359.99 654.35 960.84 2116.48 760.09 2410.47 756.38 2246.81 926.38 2130.95 1057.53 2417.06 1055.08
00038637 00000088 1956.00 363.81 658.86 963.20 2112.60 765.37 2411.35 761.28 2246.76 932.45 2127.22 1063.50 2417.37 1060.56
00038638 00000089 1953.44 370.03 658.72 964.74 2109.58 768.85 2408.03 766.33 2243.04 939.92 2122.71 1067.36 2412.13 1065.54
00038639 00000090 1951.94 377.45 653.51 961.97 2109.83 771.25 2406.06 770.36 2244.59 945.98 2120.56 1069.93 2407.45 1069.33
00038640 00000091 1952.51 382.94 649.93 959.60 2110.12 772.86 2406.02 773.85 2245.33 952.85 2119.37 1072.75 2406.56 1073.37
00038641 00000092 1954.09 386.05 650.17 960.30 2111.57 774.08 2408.56 775.73 2246.51 958.13 2121.19 1075.87 2408.86 1076.85
00038642 00000093 1956.00 385.87 651.60 965.25 2114.05 776.41 2412.49 777.25 2250.89 962.45 2124.17 1079.68 2412.53 1080.05
00038643 00000094 1956.15 390.68 653.99 962.21 2116.94 779.42 2415.77 780.97 2254.95 967.20 2126.43 1083.04 2415.14 1084.12
00038644 00000095 1957.01 391.96 654.50 966.05 2119.28 783.30 2416.98 784.85 2258.87 974.21 2129.12 1086.40 2418.04 1087.06
00038645 00000096 1959.26 392.87 654.99 971.03 2124.25 782.79 2420.66 784.39 2265.62 974.20 2128.46 1091.39 2419.54 1092.53
00038646 00000097 1962.20 393.04 653.39 971.09 2127.10 783.26 2424.47 785.30 2270.28 975.20 2130.54 1092.86 2422.65 1094.55
00038647 00000098 1964.75 391.51 652.39 969.88 2130.30 781.54 2428.09 784.28 2274.39 975.02 2132.38 1091.98 2425.42 1094.25
00038648 00000099 1967.76 388.88 651.77 971.19 2131.92 779.80 2430.78 782.78 2276.08 972.97 2133.78 1090.92 2427.70 1093.44
00038649 00000100 1969.93 388.93 653.86 971.05 2134.60 777.09 2433.47 781.97 2276.18 971.15 2135.33 1088.11 2428.41 1092.28
00038650 00000101 1973.47 387.03 652.38 974.09 2136.60 776.85 2436.18 781.96 2277.55 970.10 2138.17 1086.90 2431.53 1091.26
00038651 00000102 1976.84 389.25 645.56 977.33 2138.75 787.45 2433.14 791.29 2279.90 970.63 2139.64 1089.48 2430.15 1093.27
00038652 00000103 1965.81 401.04 663.40 950.86 2135.33 791.23 2439.92 795.46 2280.45 966.85 2138.36 1093.50 2431.09 1096.32
00038653 00000104 1966.10 402.58 663.22 949.42 2134.41 786.79 2441.96 793.13 2281.06 965.82 2139.72 1093.24 2430.79 1098.14
00038654 00000105 1967.51 401.48 662.07 949.52 2134.90 783.83 2441.94 790.85 2279.96 962.85 2139.69 1091.23 2430.42 1096.77
00038655 00000106 1976.62 386.36 648.99 978.69 2139.01 777.60 2436.11 780.03 2279.32 961.47 2143.36 1087.70 2432.97 1090.08
00038656 00000107 1967.85 399.65 662.50 950.19 2135.32 777.64 2441.47 783.77 2278.16 958.06 2139.97 1088.13 2429.52 1093.15
00038657 00000108 1968.47 397.00 661.47 952.99 2135.01 775.97 2440.48 781.88 2276.74 956.70 2138.96 1087.68 2429.10 1092.59
00038658 00000109 1968.95 396.29 660.54 953.41 2134.92 774.01 2439.75 779.67 2274.94 955.48 2138.44 1087.08 2428.38 1091.87
00038659 00000110 1966.98 395.92 662.47 954.45 2133.73 772.86 2438.10 778.07 2273.71 954.89 2137.25 1087.21 2427.39 1091.67
00038660 00000111 1965.60 395.56 663.13 954.82 2133.05 771.76 2437.05 776.84 2273.60 954.22 2135.47 1086.53 2426.68 1090.93
00038661 00000112 1964.95 393.03 663.10 959.01 2131.83 770.12 2435.38 775.40 2272.02 953.85 2133.56 1086.49 2424.74 1091.25
00038662 00000113 1963.64 390.87 663.46 961.16 2130.66 769.46 2434.79 774.90 2271.48 953.21 2132.39 1086.45 2424.16 1091.36
00038663 00000114 1961.86 390.22 665.23 961.01 2129.50 768.39 2433.58 773.84 2269.70 952.38 2131.93 1085.98 2423.50 1090.73
00038664 00000115 1961.66 390.30 664.36 960.47 2128.61 767.27 2432.74 772.76 2269.01 951.35 2131.02 1084.90 2422.46 1089.79
00038665 00000116 1959.71 388.70 665.11 961.25 2127.01 766.19 2431.65 771.11 2268.02 951.02 2130.13 1084.87 2421.50 1089.27
00038666 00000117 1957.51 387.76 666.18 963.14 2125.20 766.32 2430.67 771.48 2266.02 950.90 2128.97 1085.62 2420.51 1090.20
00038667 00000118 1955.22 389.39 666.73 963.25 2123.18 767.64 2429.24 771.65 2265.52 950.46 2128.36 1088.12 2419.27 1091.75
00038668 00000119 1960.66 375.28 649.31 994.60 2124.02 768.78 2419.09 765.66 2263.49 952.96 2129.78 1091.39 2417.94 1089.68
00038669 00000120 1958.01 377.10 648.67 994.14 2121.03 770.10 2414.98 766.46 2259.80 953.34 2128.50 1092.77 2414.30 1090.60
00038670 00000121 1947.84 392.44 664.20 963.17 2112.50 768.49 2417.49 769.62 2255.74 946.86 2122.35 1090.99 2412.06 1091.92
00038671 00000122 1945.42 395.22 660.68 959.78 2105.43 763.95 2410.33 762.80 2248.89 944.84 2119.18 1090.15 2406.08 1089.10
00038672 00000123 1942.11 392.81 658.81 960.09 2100.64 761.78 2405.49 759.06 2244.35 943.89 2116.06 1090.54 2401.91 1087.94
00038673 00000124 1940.34 393.18 655.25 957.85 2095.71 759.72 2399.44 755.25 2238.75 939.53 2111.39 1090.44 2397.49 1086.38
00038674 00000125 1939.77 395.26 652.99 954.82 2090.49 758.23 2394.73 752.81 2230.88 936.32 2107.32 1090.13 2392.68 1085.18
00038675 00000126 1938.34 393.78 651.37 955.31 2086.35 756.69 2390.35 750.73 2225.21 935.03 2102.59 1089.79 2388.33 1084.45
00038676 00000127 1937.09 393.57 650.93 955.41 2084.31 755.78 2388.01 750.07 2221.64 933.28 2100.18 1087.71 2386.43 1082.63
00038677 00000128 1936.66 395.43 649.40 952.22 2082.43 753.85 2385.23 747.34 2218.29 932.38 2098.14 1086.51 2385.02 1080.80
00038678 00000129 1935.84 392.08 649.90 954.94 2080.90 752.85 2383.95 746.04 2216.15 930.01 2096.86 1085.69 2384.30 1079.75
00038679 00000130 1935.67 392.25 649.94 954.90 2080.28 751.71 2383.47 744.90 2215.31 927.75 2095.57 1085.22 2383.97 1079.28
00038680 00000131 1936.54 391.73 649.62 955.37 2079.10 750.75 2382.97 743.63 2213.62 925.08 2096.91 1084.23 2382.45 1077.91
00038681 00000132 1936.83 389.50 649.97 953.18 2078.98 750.57 2382.19 743.02 2211.91 922.35 2099.45 1081.79 2379.57 1074.67
00038682 00000133 1937.80 388.02 650.30 952.46 2079.46 750.22 2383.94 742.90 2213.15 921.10 2099.96 1080.93 2382.31 1073.68
00038683 00000134 1938.72 386.67 650.51 946.64 2079.91 751.17 2384.12 743.15 2213.45 921.42 2101.57 1079.79 2383.95 1071.40
00038684 00000135 1939.13 385.72 650.19 940.70 2080.71 751.13 2384.15 743.08 2214.44 921.16 2104.15 1078.00 2383.09 1069.35
00038685 00000136 1941.71 371.33 644.75 959.30 2086.42 750.07 2379.71 745.84 2208.60 926.49 2107.14 1071.96 2377.84 1069.98
00038686 00000137 1941.58 371.48 645.81 953.75 2084.12 750.34 2378.00 745.64 2205.95 925.92 2105.77 1070.54 2377.85 1068.24
00038687 00000138 1941.03 369.86 646.68 951.05 2081.08 748.81 2376.53 744.98 2201.48 925.56 2102.49 1068.46 2376.94 1066.73
00038688 00000139 1939.56 364.03 649.16 955.39 2077.55 745.00 2373.25 741.05 2195.01 921.79 2099.73 1066.29 2376.03 1064.23
00038689 00000140 1939.64 359.07 649.27 962.35 2075.43 741.71 2370.04 738.85 2186.76 918.17 2097.26 1064.11 2373.47 1062.86
00038690 00000141 1939.41 354.33 647.18 971.95 2073.48 739.64 2365.61 736.53 2180.16 917.51 2096.02 1063.05 2372.39 1060.96
00038691 00000142 1939.01 354.57 647.87 974.20 2072.37 739.83 2363.82 735.02 2178.50 916.22 2096.39 1064.53 2372.79 1061.02
00038692 00000143 1939.82 355.35 647.81 974.22 2072.88 738.83 2364.46 733.85 2178.39 915.48 2097.60 1065.15 2373.64 1061.51
00038693 00000144 1943.75 359.52 645.46 970.97 2076.55 746.63 2369.96 741.58 2186.51 916.30 2100.61 1067.66 2377.15 1064.78
00038694 00000145 1950.15 363.06 645.07 971.30 2086.20 756.13 2375.59 750.51 2203.88 923.99 2107.87 1069.76 2383.80 1066.67
00038695 00000146 1957.08 376.40 643.28 953.26 2098.79 767.92 2386.91 757.79 2221.37 924.75 2119.99 1070.96 2397.55 1064.93
00038696 00000147 1966.37 360.88 642.26 960.72 2110.75 763.07 2403.21 753.40 2236.80 924.38 2131.76 1067.80 2413.58 1061.84
00038697 00000148 1969.10 365.89 645.34 939.78 2123.38 752.07 2419.74 741.85 2250.68 922.49 2129.47 1071.72 2431.67 1064.28
00038698 00000149 1978.28 364.58 643.98 939.70 2129.22 749.34 2426.22 739.48 2266.36 921.07 2136.87 1069.14 2439.12 1060.85
00038699 00000150 1981.67 360.58 642.97 947.26 2133.54 745.97 2431.27 738.38 2271.81 919.87 2137.70 1067.36 2442.44 1061.14
00038700 00000151 1983.15 358.90 642.72 951.70 2135.23 744.92 2432.64 738.21 2272.17 919.59 2139.19 1066.35 2442.66 1060.93
00038701 00000152 1984.75 359.49 642.92 953.05 2136.39 743.77 2433.41 737.18 2272.36 919.83 2140.38 1066.39 2441.99 1061.28
00038702 00000153 1988.33 360.19 636.96 954.66 2135.83 745.31 2433.34 737.10 2273.60 919.70 2150.65 1064.89 2443.58 1059.09
00038703 00000154 1985.08 357.99 644.13 960.71 2139.72 742.18 2437.09 737.06 2276.81 919.46 2143.35 1068.70 2442.97 1065.06
00038704 00000155 1984.13 359.48 643.99 962.38 2141.20 742.93 2437.77 737.75 2279.88 920.26 2144.09 1071.63 2442.74 1068.10
00038705 00000156 1986.90 369.70 635.14 958.44 2138.51 750.99 2434.21 742.00 2278.53 923.71 2154.14 1071.04 2443.65 1064.91
00038706 00000157 1973.00 385.34 647.05 935.21 2130.54 751.53 2439.06 751.13 2274.54 920.12 2138.96 1074.64 2436.04 1072.77
00038707 00000158 1970.75 374.60 642.23 955.83 2128.44 751.03 2425.43 743.22 2258.61 928.83 2138.13 1080.80 2424.97 1075.10
