Video ID: 	MSHt62pxqh0
H: 	1080
W: 	1920
FPS: 	25.0

FRAME INDEX X0 Y0 W H [Landmarks (5 Points)]

00024220 00000000 663.99 169.35 572.56 827.00 853.82 477.06 1103.25 461.57 1011.62 652.04 907.29 779.30 1097.03 763.16
00024221 00000001 672.41 179.29 566.84 813.83 860.88 469.84 1107.63 459.38 1013.72 646.46 907.27 771.24 1095.60 759.90
00024222 00000002 681.71 155.01 559.93 811.00 864.72 469.11 1122.79 460.42 1026.38 637.92 901.37 768.74 1103.67 760.64
00024223 00000003 690.21 143.03 561.98 823.82 872.78 463.02 1130.99 456.09 1030.94 630.53 903.08 762.41 1110.17 756.00
00024224 00000004 696.09 141.81 561.51 846.28 892.43 454.59 1139.94 451.01 1041.14 645.46 927.05 762.38 1111.46 757.67
00024225 00000005 706.55 137.10 562.18 840.12 905.68 440.27 1149.10 442.25 1056.26 622.41 928.80 753.88 1118.93 755.82
00024226 00000006 717.25 136.67 560.02 823.84 916.43 435.94 1165.39 436.50 1070.99 617.32 943.62 745.86 1134.08 745.81
00024227 00000007 727.71 128.35 557.47 824.94 932.37 424.66 1178.61 426.69 1086.08 607.43 962.12 740.27 1145.59 740.75
00024228 00000008 732.38 132.54 555.10 818.11 942.14 419.03 1185.17 421.25 1098.20 601.39 975.77 737.77 1154.84 737.75
00024229 00000009 737.54 138.83 553.19 815.60 947.02 418.93 1190.63 420.12 1105.27 600.88 980.49 738.43 1164.30 737.43
00024230 00000010 738.75 141.41 553.63 818.43 946.69 420.80 1191.53 419.98 1106.43 602.59 978.74 741.84 1167.91 739.38
00024231 00000011 738.56 136.40 557.18 823.94 940.12 420.11 1189.88 420.06 1098.49 602.15 972.82 743.42 1162.99 741.79
00024232 00000012 736.45 132.88 561.21 819.27 933.21 416.03 1185.56 420.80 1085.73 601.58 959.35 734.34 1152.03 737.02
00024233 00000013 735.88 125.72 561.00 820.28 930.87 409.86 1181.39 415.17 1078.59 593.86 957.31 729.61 1142.60 732.99
00024234 00000014 739.23 107.01 567.73 831.85 944.41 398.34 1188.47 407.95 1087.28 584.21 969.29 721.70 1141.38 728.77
00024235 00000015 764.31 80.80 559.75 823.53 957.40 394.75 1207.06 410.40 1109.36 569.08 981.91 709.74 1162.09 721.73
00024236 00000016 774.50 73.85 559.96 830.22 995.67 382.46 1235.54 405.57 1140.41 558.97 996.20 684.83 1178.57 704.04
00024237 00000017 792.71 72.96 560.91 821.20 1021.50 369.86 1259.64 400.37 1168.23 549.85 1019.96 672.24 1211.54 696.37
00024238 DELETE   806.55 80.99 548.34 830.96 1047.30 364.89 1285.93 395.75 1201.59 542.50 1047.12 674.80 1238.38 698.63
00024239 00000019 818.82 94.15 554.09 828.05 1066.37 372.35 1298.28 398.74 1225.31 541.02 1075.42 683.97 1260.50 704.34
00024240 00000020 825.64 104.36 554.65 825.68 1071.70 374.10 1304.76 396.76 1237.29 541.92 1085.32 691.40 1273.51 708.85
00024241 00000021 827.06 96.32 551.56 825.56 1070.69 379.56 1305.44 394.58 1239.94 544.63 1101.44 696.10 1282.41 706.53
00024242 00000022 821.81 95.24 544.73 822.59 1064.98 382.16 1294.73 392.66 1234.40 542.74 1105.41 695.37 1279.13 701.48
00024243 00000023 812.17 94.26 543.85 828.45 1057.29 382.59 1284.94 394.85 1224.62 544.54 1094.86 696.42 1267.16 703.56
00024244 00000024 809.35 106.79 540.48 820.88 1053.08 384.71 1281.53 399.97 1218.75 551.95 1086.31 699.71 1260.77 709.18
00024245 00000025 807.50 93.71 541.97 844.21 1063.07 386.66 1284.42 403.52 1230.15 555.83 1093.33 707.23 1260.91 718.23
00024246 00000026 812.97 91.57 543.31 846.66 1078.23 388.06 1298.58 402.79 1250.96 560.23 1106.67 708.33 1275.34 717.90
00024247 00000027 820.46 88.87 548.14 837.52 1088.37 388.93 1315.55 408.03 1261.06 564.38 1115.62 703.62 1286.50 717.34
00024248 00000028 844.16 85.65 537.91 806.94 1102.55 395.20 1325.56 412.55 1280.83 557.56 1126.02 702.76 1289.03 715.10
00024249 00000029 846.88 84.03 546.98 842.59 1124.97 398.06 1337.17 421.15 1300.26 570.86 1131.69 708.91 1299.40 725.97
00024250 00000030 843.56 97.99 551.05 845.60 1137.75 394.18 1350.22 424.34 1309.32 584.58 1140.96 714.59 1306.51 737.42
00024251 00000031 846.43 116.27 551.13 834.99 1139.82 396.59 1352.05 428.03 1311.53 590.21 1138.87 719.17 1308.55 743.42
00024252 00000032 845.64 117.46 552.52 833.85 1140.10 397.07 1350.99 430.77 1310.03 590.71 1135.27 719.50 1303.49 745.79
00024253 00000033 843.02 114.68 554.14 840.63 1139.74 399.48 1350.18 432.14 1311.94 592.08 1131.41 723.59 1300.85 749.25
00024254 00000034 839.74 123.40 558.31 833.65 1136.18 406.05 1348.42 437.65 1310.62 598.30 1126.06 728.23 1297.90 753.16
00024255 00000035 837.79 134.06 556.12 826.01 1136.81 416.34 1346.72 449.81 1310.02 609.38 1122.30 738.26 1289.37 765.11
00024256 00000036 841.65 147.77 553.92 820.11 1139.70 431.54 1345.32 461.65 1312.09 624.28 1124.03 748.17 1287.47 772.57
00024257 00000037 847.86 147.25 546.37 820.54 1143.44 437.69 1349.38 463.66 1318.93 628.23 1138.76 756.25 1298.02 776.78
00024258 00000038 859.81 146.78 537.19 804.18 1144.17 440.63 1352.56 466.81 1319.21 619.50 1143.60 756.17 1297.80 777.10
00024259 00000039 861.49 149.11 545.86 800.13 1149.72 444.71 1359.42 469.09 1326.95 623.48 1146.50 756.54 1302.05 776.71
00024260 00000040 861.74 148.03 553.45 804.35 1156.55 446.67 1362.37 470.64 1334.23 626.00 1151.34 756.62 1306.42 776.80
00024261 00000041 869.87 153.70 548.85 795.88 1160.90 444.24 1367.30 469.60 1337.46 624.68 1156.38 757.35 1310.48 779.14
00024262 00000042 873.72 157.30 548.50 787.08 1166.67 439.81 1369.26 466.22 1341.54 623.02 1160.57 754.26 1310.09 777.26
00024263 00000043 874.99 147.71 547.07 795.05 1172.43 438.65 1370.30 463.38 1343.60 621.37 1163.78 752.67 1309.16 774.21
00024264 00000044 875.55 155.05 544.54 787.57 1172.32 436.54 1369.46 462.28 1343.54 619.89 1166.73 752.29 1310.21 774.65
00024265 00000045 875.23 160.06 540.54 780.88 1171.92 437.12 1365.53 462.97 1343.58 619.82 1167.16 750.80 1307.98 773.16
00024266 00000046 871.41 157.80 541.79 784.00 1170.13 437.84 1362.06 463.68 1341.06 619.59 1164.39 750.23 1305.70 772.44
00024267 00000047 869.48 157.18 542.41 790.34 1166.68 438.82 1358.57 466.66 1336.98 623.56 1157.06 751.76 1299.86 775.38
00024268 00000048 867.77 165.59 542.09 783.38 1160.76 441.15 1356.40 468.07 1333.17 626.57 1150.36 751.65 1297.07 774.95
00024269 00000049 858.20 166.51 551.46 806.94 1160.18 445.50 1357.35 472.41 1332.61 640.22 1141.81 756.07 1302.44 778.34
00024270 00000050 856.79 165.57 553.64 814.76 1157.62 446.87 1356.47 475.30 1330.31 642.81 1133.57 758.63 1297.90 782.47
00024271 00000051 857.88 149.29 554.76 816.50 1154.13 444.31 1358.23 475.76 1324.09 635.30 1125.53 755.87 1287.51 782.83
00024272 00000052 851.85 121.44 554.43 847.19 1151.46 446.85 1356.10 484.41 1317.88 638.15 1118.38 754.64 1282.36 785.32
00024273 DELETE   836.48 115.65 555.50 833.26 1129.11 446.83 1340.82 483.82 1291.98 630.62 1102.75 745.68 1265.04 775.44
00024274 00000054 815.35 117.90 559.74 829.91 1085.46 436.28 1309.84 468.59 1246.06 615.76 1071.36 742.73 1244.53 769.60
00024275 DELETE   791.08 100.52 562.52 845.53 1058.22 417.49 1289.29 448.74 1216.47 610.96 1058.05 729.90 1233.84 753.48
00024276 DELETE   782.09 100.05 553.25 831.16 1027.34 404.36 1258.44 430.04 1179.53 592.68 1038.43 714.66 1210.29 733.70
00024277 00000057 773.49 95.44 556.82 829.96 1012.58 395.51 1239.78 422.85 1160.34 567.55 1013.45 700.09 1185.85 722.09
00024278 00000058 766.70 89.90 562.87 809.68 999.74 382.99 1232.80 409.08 1147.91 552.42 1010.46 683.38 1183.47 704.32
00024279 00000059 768.61 95.83 557.81 790.52 999.12 368.48 1231.95 397.48 1146.84 540.41 1010.93 670.46 1180.87 693.79
00024280 00000060 770.32 90.92 556.62 782.67 1005.56 366.26 1231.94 398.97 1151.10 534.08 1017.24 658.61 1186.73 684.27
00024281 00000061 770.59 92.24 560.06 786.55 1012.56 374.54 1240.46 408.19 1163.02 543.71 1023.90 664.29 1199.33 690.15
00024282 00000062 773.35 102.45 554.92 792.16 1018.38 388.44 1246.50 418.95 1173.17 553.58 1029.87 679.22 1207.82 702.75
00024283 00000063 778.79 109.41 552.41 808.77 1025.02 403.68 1253.71 427.23 1184.20 570.63 1033.05 700.05 1214.17 717.90
00024284 00000064 779.76 122.58 558.14 815.32 1026.37 417.93 1260.38 445.42 1182.86 600.96 1035.72 720.77 1218.55 740.84
00024285 00000065 785.09 140.02 561.94 809.81 1031.80 426.72 1267.39 463.39 1183.24 618.57 1027.09 732.78 1212.42 761.15
00024286 00000066 789.12 142.97 566.71 814.95 1035.06 433.17 1270.62 470.48 1181.79 627.56 1023.94 737.16 1209.40 766.59
00024287 00000067 794.35 146.55 571.53 827.73 1040.61 438.06 1276.27 477.58 1182.66 633.81 1022.64 748.32 1206.06 779.92
00024288 00000068 799.99 154.53 574.41 832.57 1051.07 440.03 1282.70 483.27 1188.72 638.86 1024.16 754.82 1204.71 789.28
00024289 00000069 807.76 146.68 573.88 835.90 1057.94 440.81 1288.98 485.53 1194.72 640.92 1028.38 752.65 1210.06 788.68
00024290 00000070 814.53 159.75 570.24 816.18 1061.81 442.35 1292.95 485.28 1199.12 643.33 1031.32 750.36 1214.73 785.07
00024291 00000071 816.77 171.09 570.99 802.11 1062.44 444.16 1294.66 487.60 1198.98 645.30 1031.70 750.84 1215.95 786.15
00024292 00000072 815.87 178.98 571.61 802.81 1061.22 448.72 1294.80 493.26 1197.67 650.90 1027.56 759.34 1211.18 795.76
00024293 00000073 803.27 170.60 578.45 833.04 1056.80 450.56 1290.10 498.89 1189.75 666.39 1026.52 770.49 1201.79 810.86
00024294 00000074 805.84 181.06 581.41 828.53 1059.31 456.62 1292.89 509.71 1189.53 674.86 1024.29 782.23 1195.80 826.85
00024295 00000075 816.73 186.95 582.63 812.62 1061.14 475.62 1293.68 522.96 1189.33 677.38 1017.94 784.13 1199.76 824.03
00024296 00000076 817.16 194.30 572.99 813.02 1059.12 487.56 1298.74 531.87 1198.95 701.80 1026.37 790.90 1205.95 830.19
00024297 00000077 825.75 201.77 575.36 812.42 1063.40 491.68 1303.54 538.30 1198.76 705.75 1026.26 793.29 1207.90 834.53
00024298 00000078 831.04 199.19 579.82 816.20 1071.40 489.57 1306.77 539.12 1201.03 700.96 1030.56 788.70 1209.47 832.19
00024299 00000079 841.28 208.87 581.55 807.46 1081.37 481.83 1311.34 534.50 1203.59 693.71 1033.73 783.04 1210.80 828.95
00024300 00000080 846.51 199.14 585.49 813.65 1090.68 469.33 1317.42 525.00 1208.36 683.89 1036.35 773.81 1209.90 822.31
00024301 00000081 848.29 180.74 584.87 821.92 1092.65 462.38 1317.34 516.81 1210.92 662.94 1032.31 759.96 1216.86 806.30
00024302 00000082 848.47 179.32 580.31 821.89 1092.08 459.29 1314.83 514.49 1210.39 655.77 1032.74 755.51 1216.78 802.54
00024303 00000083 844.88 176.81 579.75 823.50 1089.27 454.95 1313.26 509.74 1210.26 652.67 1030.51 752.41 1216.14 799.47
00024304 00000084 839.54 179.94 576.20 808.59 1072.98 455.70 1309.48 511.90 1204.23 653.07 1028.05 762.60 1214.92 809.96
00024305 00000085 834.93 171.89 574.68 818.85 1063.46 456.87 1300.58 510.96 1193.88 653.26 1021.40 763.95 1208.37 809.67
00024306 00000086 831.90 173.20 574.15 816.77 1057.12 459.02 1295.70 509.87 1188.09 652.63 1020.17 765.98 1206.41 808.90
00024307 00000087 832.51 183.56 572.33 816.68 1066.45 462.34 1291.33 508.49 1189.39 652.15 1019.73 758.28 1202.24 798.59
00024308 00000088 835.19 192.98 567.87 789.89 1046.34 470.54 1289.14 515.96 1175.56 661.92 1019.41 773.11 1201.35 811.26
00024309 00000089 837.23 199.28 568.20 772.13 1042.28 478.22 1288.68 518.51 1172.76 671.27 1027.59 778.43 1203.75 811.93
00024310 00000090 838.40 192.20 569.08 776.36 1041.90 484.58 1289.05 521.32 1173.32 675.15 1027.90 778.47 1207.10 809.34
00024311 00000091 842.58 200.80 566.81 765.93 1046.96 485.46 1293.97 524.89 1177.30 676.80 1027.95 773.79 1212.90 807.23
00024312 00000092 845.45 194.13 574.41 783.30 1055.69 484.02 1303.59 527.40 1186.55 679.07 1029.39 773.71 1220.46 810.76
00024313 00000093 847.36 190.91 575.13 807.75 1077.58 470.42 1311.39 515.55 1200.98 676.51 1042.80 766.80 1227.99 806.06
00024314 00000094 856.80 190.72 572.02 806.82 1087.90 467.88 1317.43 515.33 1207.84 658.72 1040.02 759.78 1232.80 800.04
00024315 00000095 857.54 189.25 574.62 803.53 1090.56 462.04 1320.91 509.37 1211.56 654.67 1043.08 756.37 1234.70 796.42
00024316 00000096 857.39 185.23 575.09 804.79 1090.43 459.65 1320.12 507.61 1211.23 652.90 1042.90 754.76 1232.51 795.31
00024317 00000097 856.11 181.41 573.50 804.30 1088.97 459.16 1319.82 505.00 1212.08 654.95 1045.28 754.66 1230.84 793.78
00024318 00000098 852.23 179.92 573.35 803.58 1083.22 459.99 1317.38 502.63 1210.12 656.29 1045.92 755.32 1231.70 791.86
00024319 00000099 850.44 174.35 576.61 807.88 1082.73 451.54 1316.86 495.49 1208.35 653.83 1047.83 754.96 1224.04 792.35
00024320 00000100 848.96 168.67 576.78 810.51 1080.70 446.68 1315.64 489.45 1206.37 651.41 1049.76 754.20 1221.63 790.64
00024321 00000101 847.91 171.11 574.21 804.73 1075.85 441.78 1315.38 481.89 1205.92 647.66 1050.99 753.61 1224.51 787.71
00024322 00000102 846.02 167.14 572.37 801.91 1070.03 438.69 1312.86 478.54 1201.31 644.10 1045.59 747.50 1225.11 781.94
00024323 00000103 842.41 165.42 569.33 797.22 1061.46 434.50 1305.93 471.12 1195.69 640.00 1040.93 738.53 1227.46 770.48
00024324 00000104 839.13 158.76 569.49 803.43 1053.12 433.24 1301.83 468.20 1190.03 640.35 1035.04 736.97 1227.48 768.04
00024325 00000105 836.43 164.88 568.79 800.76 1047.38 429.45 1297.59 463.76 1185.43 636.46 1030.79 740.55 1221.48 771.05
00024326 00000106 829.52 155.33 568.99 802.53 1041.56 424.75 1290.17 458.18 1180.72 628.59 1030.36 733.59 1218.65 763.16
00024327 00000107 824.39 148.79 572.11 796.18 1032.20 420.64 1285.23 452.20 1172.11 624.54 1029.89 729.82 1215.44 757.48
00024328 00000108 818.48 138.50 574.50 798.83 1021.91 419.20 1276.19 450.99 1158.29 619.75 1024.13 724.93 1205.55 752.95
00024329 00000109 805.80 113.56 578.35 822.94 1012.90 412.12 1260.43 443.55 1140.70 607.49 1007.88 716.08 1186.96 741.63
00024330 00000110 797.00 125.15 580.86 824.57 991.11 417.81 1236.81 441.39 1117.95 611.84 996.52 716.30 1178.86 736.11
00024331 00000111 795.16 136.26 573.25 814.14 982.45 417.17 1221.83 438.17 1100.32 613.53 990.95 714.75 1166.94 732.54
00024332 00000112 791.45 135.11 571.97 810.94 970.97 410.73 1211.92 434.52 1083.13 605.03 978.38 709.83 1155.19 730.05
00024333 00000113 786.72 131.09 577.18 814.75 962.27 402.29 1203.74 430.32 1069.53 601.09 965.93 703.73 1144.01 727.65
00024334 00000114 780.33 127.07 580.65 815.81 949.82 396.76 1195.69 427.83 1055.00 587.00 952.62 699.90 1132.58 726.90
00024335 00000115 781.70 118.57 570.83 811.80 944.00 388.98 1187.46 416.33 1044.31 571.16 944.99 697.56 1121.51 723.08
00024336 00000116 774.25 129.62 578.56 810.19 937.43 381.38 1178.00 416.55 1028.60 562.68 938.76 694.65 1101.05 725.93
00024337 00000117 773.84 122.42 577.47 816.07 933.00 374.19 1171.66 413.42 1018.19 553.51 932.39 688.82 1092.52 723.52
00024338 00000118 774.35 116.05 579.89 821.87 932.97 367.07 1171.17 407.95 1014.64 540.72 929.44 682.57 1088.09 718.69
00024339 00000119 777.95 109.34 577.86 815.38 939.69 358.93 1176.69 392.26 1019.69 527.95 926.08 677.49 1086.51 709.07
00024340 00000120 868.00 168.63 381.16 541.55 970.90 345.16 1135.34 364.24 1038.31 438.29 965.39 548.70 1083.50 566.23
00024341 00000121 875.52 167.27 379.73 540.37 985.93 345.85 1149.97 366.18 1052.12 438.80 975.16 547.47 1092.61 566.21
00024342 DELETE   883.25 160.58 381.30 542.90 1004.65 344.15 1166.53 369.08 1076.19 441.02 990.69 545.06 1111.82 566.82
00024343 DELETE   886.79 157.86 386.69 540.93 1015.85 339.89 1179.20 366.61 1095.58 442.96 1008.00 541.89 1130.55 564.23
00024344 DELETE   893.34 160.82 386.97 538.45 1032.36 342.71 1192.96 371.75 1117.47 450.26 1025.74 544.88 1147.28 568.82
00024345 00000125 894.33 164.44 387.96 545.72 1044.09 351.25 1200.32 382.02 1127.83 466.07 1032.80 554.11 1152.02 580.03
00024346 00000126 898.33 168.13 390.24 552.01 1048.10 359.80 1209.74 391.72 1130.49 478.59 1038.33 563.50 1144.40 589.74
00024347 00000127 899.17 173.09 387.88 551.60 1051.20 363.97 1214.22 397.21 1139.06 485.29 1040.08 567.96 1155.71 595.32
00024348 00000128 898.41 176.98 384.92 550.11 1056.94 368.77 1214.89 403.06 1145.33 490.06 1042.31 571.14 1158.18 599.75
00024349 00000129 899.79 181.52 381.69 546.89 1059.38 370.90 1215.10 403.80 1151.73 486.68 1046.40 572.77 1172.92 601.12
00024350 00000130 897.30 182.31 379.88 544.91 1058.26 368.75 1214.26 401.47 1153.61 483.07 1042.61 565.09 1177.65 593.09
00024351 00000131 892.36 174.05 380.22 545.72 1054.31 364.32 1213.02 396.38 1153.33 476.32 1039.95 559.70 1175.63 587.00
00024352 00000132 882.18 166.63 381.26 556.01 1046.97 362.68 1202.44 395.42 1146.27 473.56 1032.80 557.73 1166.87 585.31
00024353 00000133 869.40 160.80 382.01 562.81 1038.21 360.81 1189.11 396.57 1131.82 469.79 1026.49 558.57 1146.98 588.04
00024354 00000134 857.02 164.64 382.20 553.00 1026.85 357.76 1178.55 389.32 1119.87 462.66 1018.34 560.24 1126.70 585.83
00024355 00000135 845.90 158.97 381.55 552.45 1014.93 355.76 1167.95 386.27 1111.17 460.12 1014.11 557.68 1119.52 581.85
00024356 00000136 834.33 162.76 376.02 536.84 1006.50 353.03 1160.67 380.43 1107.47 455.59 1007.56 548.50 1120.56 570.48
00024357 00000137 830.99 164.38 371.76 532.84 997.31 350.88 1151.97 374.09 1108.03 449.68 1001.09 549.64 1126.39 568.66
00024358 00000138 823.88 155.75 370.30 535.40 983.53 347.62 1138.47 369.17 1093.11 438.97 991.87 543.81 1114.14 561.55
00024359 00000139 811.97 151.36 370.38 541.15 973.66 340.65 1127.71 363.58 1082.74 432.53 984.56 542.33 1101.85 560.62
00024360 00000140 800.12 146.88 372.82 550.29 959.71 337.89 1115.92 358.31 1065.92 429.76 974.53 544.84 1089.20 560.71
00024361 00000141 792.75 142.34 368.73 551.82 942.15 340.22 1099.21 352.72 1047.39 427.94 965.67 543.29 1078.64 552.79
00024362 00000142 783.64 141.46 371.70 553.40 921.15 346.75 1088.94 349.65 1034.64 431.30 951.63 544.52 1079.41 545.72
00024363 00000143 770.89 143.82 375.80 550.29 907.80 350.23 1072.81 349.23 1022.12 440.40 943.10 544.80 1069.02 542.73
00024364 00000144 766.08 151.12 378.03 544.96 897.46 351.20 1063.18 351.31 1008.80 441.86 935.59 547.46 1056.86 546.66
CROP_BBOX: 388 0 1708 1080
