Video ID: 	SH5m5vaSXS0
H: 	1080
W: 	1920
FPS: 	25.0

FRAME INDEX X0 Y0 W H [Landmarks (5 Points)]

00004079 00000000 586.79 221.73 398.20 543.83 802.29 404.40 948.00 472.85 904.45 529.27 754.99 593.21 877.80 651.29
00004080 DELETE   581.59 220.50 398.62 540.45 797.09 402.42 943.13 468.63 898.62 527.01 749.90 589.20 874.27 645.35
00004081 00000002 580.63 219.26 397.67 537.03 792.46 400.73 939.12 464.14 893.60 525.66 745.23 587.30 871.44 641.49
00004082 DELETE   575.57 218.54 397.45 534.90 786.89 400.77 934.24 464.25 887.85 526.06 739.98 587.24 865.98 641.69
00004083 00000004 574.28 217.98 392.72 533.65 782.38 399.15 930.26 461.98 883.28 524.18 734.33 584.55 863.20 638.67
00004084 DELETE   568.27 216.71 393.61 531.92 777.52 394.66 924.88 457.34 879.98 519.75 735.53 586.72 859.24 640.52
00004085 00000006 559.63 208.36 400.16 540.70 776.37 390.33 919.54 453.91 877.78 516.85 741.55 593.30 853.63 646.79
00004086 00000007 553.72 199.17 407.71 557.24 773.02 389.11 916.53 449.68 872.71 515.64 741.97 598.85 850.15 649.26
00004087 00000008 553.42 196.76 408.38 559.51 773.97 388.84 916.83 449.74 873.14 515.78 745.17 599.83 848.98 650.24
00004088 00000009 555.87 197.23 408.24 558.39 776.59 388.56 919.44 449.36 874.38 517.61 747.00 601.04 850.12 651.34
00004089 00000010 556.49 196.51 408.31 557.96 779.59 387.24 920.30 448.58 875.85 517.73 748.23 600.44 849.60 651.12
00004090 DELETE   554.69 196.09 409.86 559.54 779.09 386.78 919.86 448.90 875.83 517.84 746.33 599.88 849.18 651.20
00004091 00000012 554.58 194.04 410.00 562.04 778.57 386.78 919.36 449.41 875.27 518.14 744.72 600.07 846.74 651.74
00004092 00000013 553.27 193.18 409.78 562.55 775.97 387.27 918.23 449.78 873.23 517.48 742.61 599.73 845.54 651.31
00004093 00000014 550.24 191.96 411.22 565.52 772.61 385.91 914.56 447.97 871.06 517.32 738.36 599.90 842.54 651.18
00004094 00000015 550.90 192.33 409.77 564.98 771.89 385.08 914.48 447.81 870.51 516.73 737.06 599.59 842.11 651.37
00004095 00000016 553.09 192.24 411.45 562.65 775.31 384.31 918.15 448.80 873.78 514.40 741.18 597.17 846.87 650.29
00004096 00000017 555.46 193.75 408.76 558.29 778.30 383.90 918.61 449.89 875.42 514.44 741.65 594.89 845.67 649.30
00004097 00000018 556.46 195.33 410.64 557.21 780.19 382.49 919.75 450.14 877.16 513.76 739.71 592.14 846.10 648.26
00004098 00000019 557.11 196.18 411.51 557.03 780.97 381.23 920.13 450.45 877.14 512.20 738.46 590.59 846.11 648.11
00004099 00000020 560.18 198.37 406.90 551.46 781.07 381.32 921.09 451.25 878.56 511.46 738.47 587.36 848.53 645.83
00004100 00000021 560.75 197.71 405.57 550.90 782.40 380.88 921.65 451.63 879.42 511.94 736.88 584.40 847.74 643.85
00004101 00000022 561.02 197.14 404.76 550.27 782.27 380.93 921.18 450.83 880.54 512.22 737.34 583.83 848.17 642.69
00004102 00000023 561.29 196.99 402.92 549.26 782.29 381.97 920.80 451.36 881.16 511.94 736.03 581.25 848.40 639.91
00004103 00000024 561.84 198.66 399.79 546.17 782.12 382.02 920.49 452.16 882.00 510.99 736.05 579.75 849.29 639.19
00004104 00000025 561.19 200.11 399.17 544.61 781.59 381.40 920.32 452.34 882.49 510.88 734.56 578.57 849.35 638.79
00004105 00000026 560.63 197.74 399.15 544.97 781.28 380.51 919.84 452.17 882.15 509.06 734.50 577.18 849.12 637.97
00004106 00000027 562.18 200.68 399.87 542.77 783.34 379.95 923.31 454.96 883.39 508.46 734.58 574.92 850.92 638.44
00004107 00000028 565.79 200.65 401.97 547.16 788.58 380.39 930.27 457.16 886.72 510.80 733.99 573.12 854.38 638.19
00004108 00000029 570.93 202.56 403.41 549.91 795.59 380.45 937.21 455.62 896.59 513.05 743.17 575.79 864.55 639.79
00004109 00000030 578.30 203.77 398.62 551.71 802.59 381.47 939.59 458.52 905.42 515.87 746.98 575.58 865.71 641.49
00004110 00000031 581.40 204.18 397.49 555.56 809.77 382.28 945.16 461.92 912.25 516.51 752.47 575.49 869.58 643.41
00004111 00000032 586.03 203.27 397.35 562.08 812.54 384.22 948.67 460.18 917.68 516.44 756.46 579.12 875.10 644.09
00004112 00000033 585.72 202.09 396.78 574.52 812.49 383.55 949.06 459.32 921.85 519.49 756.02 585.05 875.08 650.01
00004113 00000034 584.40 199.82 394.88 578.47 812.49 382.75 949.89 459.09 921.84 520.00 755.41 584.98 875.75 650.33
00004114 00000035 581.99 194.75 396.92 577.09 810.66 382.11 950.43 454.45 922.75 516.95 758.65 583.86 880.88 645.76
00004115 00000036 581.13 192.11 397.24 568.13 806.92 384.23 948.48 448.79 919.37 512.30 763.17 579.84 885.45 635.05
00004116 00000037 578.04 192.43 397.96 563.28 799.48 389.42 945.33 444.14 914.73 513.89 764.41 584.82 888.90 632.10
00004117 00000038 571.49 193.37 400.58 562.52 790.61 396.19 939.62 440.66 906.27 519.19 761.61 589.85 888.28 628.72
00004118 00000039 570.38 193.98 402.51 563.62 781.22 399.68 935.59 439.99 895.99 523.48 752.69 592.26 884.19 627.75
00004119 00000040 567.21 189.30 405.57 576.43 774.14 400.08 931.14 438.51 890.27 525.92 754.55 602.07 884.40 635.58
00004120 00000041 568.65 185.64 403.53 576.00 764.17 400.34 928.56 432.60 884.01 523.90 752.90 604.97 887.36 633.50
00004121 DELETE   568.11 182.89 398.33 575.01 755.71 408.63 923.12 435.04 876.44 525.88 755.49 612.01 883.41 633.70
00004122 00000043 563.70 178.23 401.06 583.50 749.82 408.88 918.35 431.98 869.94 529.64 762.06 626.17 878.93 644.49
00004123 00000044 559.80 175.14 399.81 593.56 744.80 412.16 911.39 429.42 864.34 535.85 765.68 641.84 874.37 655.37
00004124 00000045 558.16 171.07 398.28 597.13 740.46 413.76 904.81 426.92 859.07 537.47 764.30 645.49 871.03 655.83
00004125 00000046 555.38 170.26 394.65 592.69 736.64 414.46 897.95 423.59 855.24 535.73 762.33 641.92 866.61 649.19
00004126 00000047 555.14 170.04 395.20 592.01 733.55 415.22 896.44 423.04 852.91 532.90 756.93 635.16 866.73 641.69
00004127 00000048 553.16 169.26 398.12 594.81 728.41 416.76 896.58 424.00 851.11 533.03 748.69 628.95 871.49 634.89
00004128 00000049 552.92 173.56 397.76 586.53 724.27 418.43 895.62 421.75 849.49 533.27 743.31 623.06 876.31 625.80
00004129 00000050 551.65 174.23 396.57 582.96 722.98 419.27 895.39 419.21 850.86 532.98 740.50 620.35 878.66 620.36
00004130 00000051 552.00 174.23 396.50 584.93 724.25 421.45 896.25 417.95 853.68 534.20 742.15 621.09 882.45 618.08
00004131 00000052 554.15 176.44 394.34 591.46 725.96 425.33 896.16 417.95 858.19 536.42 744.04 625.81 885.58 619.49
00004132 00000053 555.86 182.03 400.39 592.30 730.84 420.67 902.67 414.68 868.17 539.99 742.92 627.08 886.15 622.70
00004133 00000054 557.98 182.43 400.28 593.52 732.54 423.45 903.91 413.66 870.92 541.26 744.15 628.13 889.59 620.77
00004134 00000055 559.58 182.99 397.97 591.92 732.26 425.19 904.58 411.79 872.26 541.71 745.48 629.50 891.38 619.10
00004135 00000056 561.30 182.83 397.08 590.55 731.38 425.80 904.84 409.99 872.06 539.10 748.71 631.23 894.70 618.63
00004136 00000057 561.87 183.23 396.96 586.74 730.45 426.15 904.98 407.90 872.90 536.47 750.61 630.04 898.78 615.25
00004137 00000058 561.15 182.80 398.39 582.65 731.49 427.44 906.54 407.69 874.42 535.99 750.75 628.39 899.93 612.57
00004138 00000059 562.20 183.67 398.94 581.18 734.08 430.32 908.43 409.70 878.60 538.22 748.72 625.64 902.40 609.53
00004139 00000060 561.02 185.92 401.45 582.50 735.98 433.48 912.89 410.30 884.47 545.23 744.10 624.01 907.04 606.76
00004140 00000061 565.01 187.01 399.95 584.99 737.62 437.17 915.89 413.87 888.71 547.85 743.51 624.03 911.81 607.03
00004141 00000062 567.36 189.66 400.54 585.30 740.50 441.66 917.91 415.88 894.04 550.07 745.92 626.05 915.32 607.28
00004142 00000063 570.48 193.04 399.92 583.48 743.68 446.84 918.93 418.93 896.79 552.49 750.30 629.36 918.60 608.75
00004143 00000064 572.87 197.23 397.15 580.28 746.40 449.89 919.75 422.36 898.98 554.29 751.78 630.58 919.08 610.69
00004144 00000065 576.29 200.00 396.16 578.53 748.81 452.44 920.95 426.94 898.75 558.37 753.21 631.41 920.98 613.13
00004145 00000066 578.25 206.60 393.86 575.96 753.54 457.47 920.22 430.47 901.82 561.94 758.23 637.02 919.79 617.68
00004146 00000067 579.26 210.44 391.96 575.27 756.46 463.06 919.48 433.28 905.24 561.81 768.28 649.48 919.00 627.56
00004147 00000068 580.63 211.07 387.68 582.98 757.54 466.72 919.54 437.65 904.29 564.92 781.97 663.71 920.68 640.62
00004148 00000069 581.67 213.86 382.49 591.33 755.66 467.15 920.69 443.35 902.64 569.66 785.36 677.04 915.13 657.75
00004149 00000070 578.99 213.31 380.71 591.72 749.02 466.35 916.75 445.72 893.68 574.39 780.80 680.04 907.60 663.00
00004150 00000071 576.85 214.86 380.03 590.73 745.50 469.28 914.45 450.97 886.78 579.01 778.52 680.45 907.67 664.90
00004151 00000072 576.60 219.41 379.95 589.09 741.64 475.91 913.01 459.54 880.87 585.32 773.10 684.50 905.53 670.56
00004152 00000073 573.78 227.84 380.21 583.97 740.13 481.19 907.00 465.09 875.11 590.49 764.13 681.45 900.10 668.30
00004153 00000074 570.84 235.21 383.26 580.66 743.61 483.75 903.21 466.70 876.03 593.89 749.35 672.57 894.00 660.21
00004154 00000075 568.64 237.69 387.67 578.78 746.20 484.02 905.46 464.64 881.88 597.64 741.43 665.99 896.67 652.70
00004155 00000076 566.92 236.68 390.27 577.15 745.05 483.35 906.94 462.81 884.50 596.02 738.39 662.84 897.91 649.03
00004156 00000077 565.79 236.36 392.02 575.83 744.53 483.46 908.60 461.52 886.16 596.99 737.11 660.94 900.02 646.13
00004157 00000078 565.30 236.52 393.80 572.44 744.19 484.09 910.39 461.79 885.74 597.11 736.46 659.06 901.58 644.15
00004158 00000079 565.42 236.34 393.44 570.30 743.78 484.24 910.35 461.89 884.53 597.70 736.71 658.81 901.49 643.85
00004159 00000080 565.42 236.56 392.32 568.51 744.49 483.77 909.64 461.56 884.45 597.48 736.94 657.75 900.14 642.96
00004160 00000081 566.03 235.41 392.11 568.44 746.38 482.28 910.81 459.90 886.55 596.81 736.36 655.57 899.63 640.97
00004161 00000082 566.60 234.96 391.16 567.79 747.60 481.30 911.86 459.17 888.81 596.12 736.57 654.36 900.01 640.15
00004162 00000083 567.50 235.21 390.96 566.78 748.93 481.10 913.16 459.13 890.63 596.14 737.05 653.81 900.64 639.88
00004163 00000084 567.09 233.74 390.90 567.82 749.18 480.45 912.97 458.51 890.83 596.30 736.82 653.29 899.96 639.37
00004164 00000085 567.96 233.30 390.26 568.27 750.14 479.21 913.60 458.34 891.97 594.80 737.15 652.50 899.97 639.48
00004165 00000086 567.32 233.18 390.44 567.76 749.56 478.35 913.43 458.23 890.25 594.55 735.84 650.96 899.04 638.51
00004166 00000087 566.16 232.43 390.89 567.01 748.72 475.65 913.05 456.01 889.61 593.40 735.61 648.86 899.52 636.62
00004167 00000088 566.00 230.75 390.98 567.53 749.29 473.14 912.00 453.42 889.96 590.62 736.27 645.81 899.68 633.55
00004168 00000089 567.33 229.85 390.47 566.65 749.71 470.13 911.46 448.61 891.06 587.47 736.41 641.90 901.13 628.35
00004169 00000090 566.35 227.81 392.64 568.53 748.77 467.93 910.18 444.73 891.19 583.55 736.53 638.77 902.47 623.68
00004170 00000091 566.27 227.77 392.63 568.69 748.37 466.59 908.28 442.03 891.09 581.61 735.39 636.86 900.87 620.74
00004171 00000092 565.86 225.67 393.19 570.81 748.45 465.92 908.87 441.05 891.61 580.09 736.06 636.06 901.85 619.63
00004172 00000093 565.61 224.82 392.85 571.10 748.32 465.26 908.10 441.52 890.90 578.56 736.24 636.20 900.23 620.64
00004173 00000094 564.31 225.29 392.90 570.98 746.53 464.57 906.32 441.37 888.50 577.76 734.72 635.26 899.31 620.03
00004174 00000095 563.77 225.58 391.67 570.72 745.00 463.87 904.47 440.14 887.22 577.17 733.05 634.03 898.55 618.34
00004175 00000096 559.81 226.40 394.21 570.22 741.21 462.83 902.67 442.00 882.25 577.36 730.01 634.79 895.67 621.17
00004176 00000097 555.50 226.98 395.52 569.17 739.29 463.31 898.97 443.97 877.37 579.48 728.54 636.46 889.91 623.87
00004177 00000098 552.59 228.70 394.29 567.52 737.13 467.40 896.01 445.00 873.75 585.02 725.52 639.97 884.19 625.33
00004178 00000099 549.95 228.04 393.14 568.10 732.74 469.75 892.76 447.93 867.55 587.25 723.79 642.51 880.95 628.32
00004179 00000100 546.19 229.30 393.48 566.85 729.04 471.02 889.14 448.75 864.12 587.70 722.21 643.44 879.06 628.84
00004180 00000101 542.42 231.42 392.63 563.90 722.30 468.73 883.83 446.74 859.34 583.09 719.64 641.69 876.54 627.02
00004181 00000102 537.70 230.47 391.78 562.72 716.40 465.45 877.05 447.24 851.51 577.49 716.38 639.82 870.96 627.90
00004182 00000103 534.46 227.03 387.92 562.18 711.77 470.34 871.90 453.30 846.76 574.52 712.04 634.61 868.77 623.82
00004183 DELETE   537.96 221.27 381.12 569.75 706.20 468.21 876.10 453.50 841.18 569.98 707.60 634.42 873.89 623.12
00004184 DELETE   533.27 221.50 382.32 569.41 708.92 462.77 868.77 451.95 845.72 576.08 699.88 636.67 861.01 631.20
00004185 00000106 530.45 220.85 381.33 568.45 706.64 463.62 865.21 452.85 843.73 576.25 695.63 637.47 856.25 632.30
00004186 00000107 527.52 221.05 382.76 566.00 702.98 461.48 862.57 448.06 841.37 574.98 692.85 635.78 854.13 628.45
00004187 00000108 524.35 215.51 384.10 568.42 699.86 456.34 861.96 442.20 839.87 571.99 691.16 633.47 853.53 625.37
00004188 00000109 518.45 211.84 387.01 574.16 696.42 452.58 858.77 440.01 836.43 568.37 688.68 635.04 847.67 627.78
00004189 00000110 514.46 212.78 388.81 581.97 695.10 451.58 855.02 440.56 835.53 566.59 688.07 641.19 841.59 635.05
00004190 00000111 513.41 216.08 388.64 586.42 695.23 449.85 854.36 441.16 836.21 565.42 686.92 644.74 838.47 640.53
00004191 00000112 513.11 216.00 388.81 586.57 695.25 448.82 853.54 440.84 835.59 564.69 687.64 644.68 838.18 640.97
00004192 00000113 511.99 212.96 388.32 587.07 694.74 449.13 853.22 441.05 834.70 563.01 690.07 645.30 837.87 641.09
00004193 00000114 511.49 210.62 387.96 583.41 692.24 448.17 852.03 440.74 829.98 558.94 695.92 647.11 837.56 642.46
00004194 00000115 510.70 207.22 385.53 581.21 687.49 446.43 850.15 438.49 824.65 557.39 700.63 648.29 838.19 642.15
00004195 00000116 511.13 206.77 381.27 577.48 685.24 444.77 849.36 439.33 820.76 555.70 704.80 651.51 835.30 646.72
00004196 00000117 509.20 207.14 381.29 575.50 680.40 446.54 849.98 441.78 818.30 556.99 700.84 652.86 835.20 648.95
00004197 00000118 507.62 208.60 382.49 570.32 679.11 446.86 851.33 443.24 816.88 558.41 700.17 653.26 834.14 650.15
00004198 00000119 506.31 208.10 382.01 568.05 676.66 446.59 850.77 443.73 815.08 558.02 697.33 651.97 832.48 649.74
00004199 00000120 503.79 206.04 384.12 570.84 675.57 446.20 850.01 442.97 814.20 558.43 693.59 649.71 831.55 647.41
00004200 00000121 502.17 203.44 383.94 572.59 674.36 443.77 848.02 441.60 811.46 556.00 691.96 648.34 827.89 646.91
00004201 00000122 501.62 207.56 386.51 566.10 672.98 452.50 849.33 452.93 806.68 556.25 688.14 648.25 827.48 648.65
00004202 00000123 497.55 208.20 389.42 566.30 670.06 453.27 848.37 455.34 804.09 555.01 683.84 646.85 825.69 648.64
00004203 00000124 494.50 207.34 390.28 567.24 666.97 449.82 845.33 451.29 801.14 555.05 681.64 644.85 823.47 646.30
00004204 00000125 492.76 204.64 390.37 570.21 664.47 443.77 841.44 444.49 798.30 553.99 679.00 641.42 819.81 642.48
00004205 00000126 490.78 202.73 390.06 573.42 666.31 440.02 838.94 442.61 798.35 553.30 679.62 640.42 816.21 643.13
00004206 00000127 489.70 201.23 390.85 575.80 666.44 437.05 838.07 439.30 798.70 552.37 679.57 640.50 815.08 642.91
00004207 00000128 487.87 201.71 391.95 577.12 664.61 436.11 836.81 438.03 797.33 552.32 678.29 641.15 814.26 643.21
00004208 00000129 486.16 200.51 393.20 578.41 663.78 432.48 835.72 436.11 795.49 551.64 677.11 640.40 811.60 643.77
00004209 00000130 485.83 200.44 393.88 578.69 663.82 431.80 836.96 435.73 796.66 551.93 677.32 641.03 812.38 644.57
00004210 00000131 485.61 200.05 393.91 578.99 664.19 431.83 836.91 435.81 797.12 551.69 678.28 641.40 812.50 644.94
00004211 00000132 484.30 198.33 395.27 583.52 663.74 431.61 835.69 436.86 795.96 551.91 678.29 641.33 811.61 645.51
00004212 00000133 483.54 198.49 396.43 585.74 665.64 431.50 836.60 438.02 797.44 552.27 677.22 641.01 810.65 646.26
00004213 00000134 483.24 199.72 396.04 586.15 667.22 431.13 835.87 438.28 798.88 550.59 676.97 640.97 807.89 646.79
00004214 00000135 482.07 201.03 397.73 584.23 669.73 431.18 836.75 438.26 801.67 550.94 674.66 639.52 805.87 645.94
00004215 00000136 481.90 200.79 398.28 584.25 670.67 431.95 837.70 439.38 803.11 551.83 673.05 638.28 806.09 645.28
00004216 00000137 483.69 199.93 397.76 585.40 672.75 432.13 838.56 439.49 805.11 552.29 671.65 637.28 805.56 644.63
00004217 00000138 483.96 199.82 398.85 584.47 674.78 431.76 840.68 439.78 807.75 551.61 671.74 635.83 806.46 643.91
00004218 00000139 485.28 199.76 397.89 585.85 676.49 431.99 841.47 440.53 809.98 551.81 670.63 635.05 806.47 643.81
00004219 00000140 486.68 199.01 397.77 586.36 678.44 431.85 843.03 441.38 811.28 552.56 671.27 634.58 807.34 644.08
00004220 00000141 487.27 197.91 398.16 587.18 679.51 431.89 844.36 441.27 811.77 554.63 672.14 635.70 807.24 645.05
00004221 00000142 488.49 198.47 397.18 587.10 680.61 431.38 845.88 441.67 812.81 554.99 673.20 636.75 807.45 646.77
00004222 00000143 489.87 199.00 397.59 586.72 682.96 430.90 848.69 442.87 814.57 555.30 675.22 636.55 810.01 647.74
00004223 00000144 492.96 199.23 396.56 586.08 685.53 429.91 850.75 443.72 815.59 555.99 679.71 637.24 812.92 649.60
00004224 00000145 495.00 201.18 396.08 583.17 690.82 428.21 855.05 443.45 821.20 555.80 683.36 637.58 816.06 651.43
00004225 00000146 497.36 201.15 395.15 582.06 691.64 428.63 856.69 444.05 822.52 554.56 685.42 637.48 819.08 651.42
00004226 00000147 499.44 199.48 395.81 583.67 694.07 428.07 859.71 444.47 825.48 554.41 688.74 637.67 823.26 652.19
00004227 00000148 500.64 200.00 395.84 583.02 694.87 429.21 860.88 445.69 825.44 555.69 688.90 637.84 824.54 652.41
00004228 00000149 500.20 200.26 396.99 581.89 694.17 428.70 861.12 445.56 823.95 555.87 687.75 638.17 823.42 653.04
00004229 00000150 499.31 199.64 397.52 581.31 692.68 427.84 860.48 446.35 822.21 555.82 686.66 637.30 821.92 653.52
00004230 00000151 496.03 199.31 399.29 580.74 690.15 427.48 856.86 446.07 819.32 556.05 683.24 635.31 818.21 651.83
00004231 00000152 493.56 197.52 402.00 581.73 688.87 424.00 856.47 443.63 818.17 554.07 682.20 633.28 817.35 650.57
00004232 00000153 491.99 196.64 402.84 583.07 688.02 422.31 855.15 442.60 816.48 552.96 679.04 630.60 814.79 648.57
00004233 00000154 490.37 193.86 403.44 584.62 685.65 421.92 852.59 441.60 814.01 550.32 676.57 629.20 811.46 646.78
00004234 00000155 486.34 192.60 404.48 588.37 684.88 421.53 849.16 440.93 811.95 545.12 678.24 623.21 812.42 641.97
00004235 00000156 482.78 193.73 406.89 586.58 681.43 421.21 847.26 441.76 809.44 544.07 673.96 622.35 809.68 642.07
00004236 00000157 479.59 191.45 406.99 587.56 678.91 419.90 845.53 441.07 807.69 544.00 671.91 622.53 807.64 642.68
00004237 00000158 476.25 189.70 407.54 589.34 675.43 419.70 842.63 441.25 804.86 543.90 670.47 622.49 806.41 642.69
00004238 00000159 475.48 192.21 408.35 588.03 672.81 419.70 839.23 438.35 800.88 543.56 668.61 627.10 799.84 643.31
00004239 00000160 474.20 191.50 409.47 588.75 671.48 419.31 838.54 437.95 799.50 543.32 667.58 626.80 799.22 642.93
00004240 00000161 472.98 191.02 410.38 589.80 670.78 418.55 838.17 438.44 798.52 542.45 666.31 626.39 797.64 643.42
00004241 00000162 471.42 191.41 412.18 591.09 670.50 416.62 836.46 438.22 796.44 541.66 665.05 625.29 795.48 643.66
00004242 00000163 470.92 191.25 414.08 591.78 670.57 416.85 837.02 438.82 796.46 542.21 664.88 625.53 796.04 644.21
00004243 00000164 471.28 191.24 414.05 592.10 670.27 417.28 837.28 438.89 797.09 541.89 665.61 625.83 797.15 644.10
00004244 00000165 472.37 191.52 412.92 591.49 670.75 417.29 838.59 438.37 798.62 541.87 666.36 626.20 798.59 644.07
00004245 00000166 471.58 191.48 413.53 592.47 669.56 417.74 837.63 437.99 797.38 542.15 665.98 627.10 798.38 644.28
00004246 00000167 471.81 191.45 413.64 593.11 669.37 418.40 838.26 438.98 798.01 542.53 667.00 628.26 799.19 645.55
00004247 00000168 472.05 191.61 414.96 593.73 669.55 418.39 838.80 438.25 798.39 543.21 667.51 629.48 799.76 646.21
00004248 00000169 472.89 190.41 414.75 595.51 670.25 418.70 840.07 438.11 799.91 544.51 668.41 630.44 801.43 646.80
00004249 00000170 473.56 190.76 415.30 596.24 670.19 419.90 840.68 438.18 801.13 546.22 668.03 632.20 801.82 647.73
