Video ID: 	2pyEbqK3rE8
H: 	1080
W: 	1920
FPS: 	29.97002997002997

FRAME INDEX X0 Y0 W H [Landmarks (5 Points)]

00002612 00000000 855.11 163.27 409.06 560.98 930.37 416.50 1110.90 401.80 1007.66 496.40 960.56 594.81 1120.31 582.11
00002613 DELETE   854.21 164.92 409.96 568.80 931.15 418.85 1108.42 404.06 1007.07 500.67 963.04 598.67 1119.69 585.48
00002614 00000002 854.44 165.75 411.49 577.37 932.89 419.06 1108.27 403.18 1008.16 502.40 966.48 602.35 1121.66 588.01
00002615 DELETE   855.33 166.96 412.62 581.36 934.38 418.32 1108.27 402.73 1008.41 502.08 968.52 603.60 1122.53 589.40
00002616 DELETE   856.53 166.52 411.95 582.63 935.23 417.88 1108.95 402.59 1008.54 502.89 968.84 604.18 1122.69 590.18
00002617 00000005 856.92 167.03 411.38 579.39 935.99 417.91 1109.26 403.54 1009.41 502.31 968.56 602.13 1121.87 588.99
00002618 00000006 856.87 166.91 411.22 572.54 935.42 418.32 1110.12 404.22 1009.34 500.37 966.46 599.78 1120.20 587.08
00002619 00000007 858.41 166.55 410.07 565.41 934.63 416.84 1111.68 403.58 1007.99 496.57 964.29 596.52 1119.60 584.82
00002620 00000008 859.10 164.75 408.88 564.79 934.12 414.42 1111.86 401.11 1006.76 492.35 962.61 595.48 1117.40 584.12
00002621 00000009 858.70 161.75 409.87 569.17 933.86 412.20 1111.13 398.65 1005.92 489.92 962.54 595.57 1116.03 584.14
00002622 00000010 857.68 161.49 410.50 572.34 934.35 410.34 1109.53 397.33 1004.91 487.40 962.11 595.82 1113.21 584.92
00002623 00000011 858.14 161.28 409.44 575.01 934.80 408.96 1108.78 396.89 1003.67 487.62 961.37 596.43 1111.21 586.22
00002624 00000012 858.60 160.37 407.88 577.43 934.73 406.99 1107.77 396.05 1001.99 487.20 959.83 596.45 1109.02 586.89
00002625 00000013 859.03 159.78 407.30 578.57 934.36 406.73 1107.24 396.20 1000.41 486.52 958.47 596.74 1108.15 587.24
00002626 00000014 859.66 159.28 406.30 579.65 934.07 405.16 1105.52 394.76 998.12 485.09 957.97 596.80 1106.40 587.45
00002627 00000015 860.26 157.56 405.32 581.03 933.21 401.70 1104.40 391.62 995.66 483.66 956.65 595.95 1104.53 586.90
00002628 00000016 860.56 153.21 405.90 582.73 932.52 399.11 1104.01 389.81 993.62 480.93 955.42 593.84 1103.19 585.31
00002629 00000017 861.51 152.46 404.87 578.07 932.91 397.01 1104.15 389.29 992.52 476.61 953.19 589.59 1100.13 582.54
00002630 00000018 861.28 148.14 405.73 575.31 931.12 395.27 1106.47 388.45 990.55 474.75 949.54 586.58 1100.85 580.39
00002631 00000019 862.74 145.80 406.18 569.82 930.67 392.99 1107.68 387.07 988.83 472.32 945.80 581.99 1098.58 576.67
00002632 00000020 862.01 147.33 407.22 566.05 930.53 394.17 1104.46 388.56 987.13 470.74 944.92 578.35 1097.39 572.97
00002633 DELETE   866.26 137.11 410.94 574.63 931.38 393.87 1110.18 383.64 989.89 460.67 950.49 578.77 1091.37 570.06
00002634 00000022 864.77 149.99 404.40 563.95 931.36 389.98 1101.75 385.67 981.90 462.94 942.63 572.22 1090.18 568.30
00002635 00000023 862.66 142.62 406.62 566.11 928.08 381.33 1103.46 380.01 981.42 459.40 937.49 567.49 1086.97 566.44
00002636 00000024 861.63 138.86 406.88 561.05 926.08 373.64 1100.75 375.54 976.47 454.22 932.92 561.16 1077.58 563.23
00002637 00000025 862.56 130.92 406.43 562.93 930.32 367.68 1097.04 371.01 976.32 449.19 939.76 556.26 1065.29 558.44
00002638 00000026 857.59 133.59 408.01 551.39 921.20 363.15 1093.08 368.49 960.94 453.35 923.78 550.84 1063.48 555.17
00002639 00000027 858.65 128.90 403.22 555.97 924.44 360.85 1091.41 366.50 966.45 444.74 930.41 550.04 1055.05 554.69
00002640 00000028 858.21 130.44 401.35 557.51 923.73 361.48 1089.23 367.06 962.30 447.21 928.35 556.42 1047.45 561.44
00002641 00000029 856.54 134.44 402.05 563.48 923.29 367.42 1087.45 369.05 961.77 449.25 930.70 566.88 1045.19 568.84
00002642 00000030 853.58 137.50 404.64 571.71 919.29 372.54 1086.59 372.36 958.07 456.62 928.50 577.14 1045.72 577.61
00002643 00000031 852.43 142.70 405.69 577.69 915.90 379.00 1086.85 378.33 953.78 465.92 924.59 588.12 1047.88 587.86
00002644 00000032 847.55 142.84 408.84 585.35 908.75 382.97 1080.17 384.46 954.97 477.89 915.73 587.57 1043.98 590.30
00002645 00000033 844.12 147.87 409.67 583.35 903.68 387.56 1076.54 388.51 949.92 483.17 912.07 595.32 1038.63 597.25
00002646 00000034 841.18 156.28 409.96 575.77 900.96 391.03 1073.28 393.33 946.93 487.89 908.65 598.15 1033.41 601.14
00002647 00000035 839.72 157.64 409.63 577.39 898.06 393.90 1070.69 398.73 942.98 493.38 904.85 600.82 1030.47 605.84
00002648 00000036 838.75 161.59 410.21 576.46 894.44 395.78 1068.26 402.17 937.40 499.78 902.01 604.78 1029.55 611.02
00002649 00000037 837.70 164.35 407.79 580.73 892.91 398.24 1067.41 404.95 932.96 503.85 899.88 610.39 1028.75 616.71
00002650 00000038 835.76 168.50 408.30 584.35 891.96 402.78 1065.45 410.52 930.15 509.66 897.82 615.41 1029.90 622.46
00002651 00000039 833.96 175.91 408.38 583.72 889.32 404.98 1063.97 416.11 927.23 520.38 895.44 620.43 1028.49 630.30
00002652 00000040 830.13 184.72 413.74 577.21 889.76 411.03 1067.42 423.24 934.15 526.72 896.86 621.51 1033.46 630.62
00002653 00000041 830.15 190.98 411.90 578.64 890.37 417.99 1068.65 430.26 935.15 532.04 897.42 627.29 1033.20 636.98
00002654 00000042 828.45 194.45 412.44 578.01 891.13 423.65 1068.81 436.35 936.52 535.38 896.49 630.70 1031.76 641.13
00002655 00000043 827.65 193.64 411.53 572.62 889.34 422.71 1067.89 436.42 935.47 534.80 895.25 630.84 1028.37 641.85
00002656 00000044 826.89 193.20 412.05 568.56 888.02 420.15 1068.35 433.61 935.99 533.72 895.15 628.40 1029.23 639.04
00002657 00000045 826.84 189.52 411.17 570.62 886.87 416.65 1067.42 430.11 935.10 531.03 895.17 624.82 1030.35 635.31
00002658 00000046 825.90 187.04 412.22 571.93 887.61 413.24 1066.16 426.56 935.20 527.72 895.00 619.99 1029.76 630.28
00002659 00000047 826.50 184.64 411.93 570.74 888.01 408.85 1064.19 422.93 933.62 524.25 894.35 616.17 1028.03 626.95
00002660 00000048 826.54 180.22 410.23 571.26 890.51 406.66 1063.41 420.21 934.90 518.27 894.06 612.15 1021.34 622.85
00002661 00000049 825.25 177.77 409.05 564.80 888.44 404.77 1062.61 419.65 935.14 516.30 890.20 605.53 1021.71 617.16
00002662 00000050 825.61 177.43 407.38 563.23 887.81 404.41 1061.91 420.12 934.08 517.24 889.02 603.42 1022.34 615.74
00002663 00000051 826.09 177.84 408.14 566.80 887.62 404.99 1062.12 421.74 932.51 520.06 889.60 606.69 1022.64 619.75
00002664 00000052 825.87 182.38 409.19 568.78 886.96 410.13 1060.78 422.88 933.08 525.50 895.12 617.33 1020.80 627.20
00002665 00000053 827.16 186.07 408.35 574.45 886.15 413.64 1063.03 426.35 932.54 530.01 896.05 625.24 1024.70 635.31
00002666 00000054 827.03 185.55 407.68 570.78 884.39 413.03 1063.65 426.43 932.15 530.12 893.68 624.49 1025.19 634.83
00002667 00000055 827.02 184.49 407.40 568.19 884.76 411.24 1061.99 423.47 932.24 526.83 893.18 620.79 1023.12 630.10
00002668 00000056 826.67 180.39 407.87 570.78 887.02 406.57 1061.85 419.81 932.20 521.87 893.37 613.85 1023.97 624.05
00002669 00000057 829.17 175.05 404.23 578.44 888.39 404.59 1062.67 416.28 925.25 512.22 887.78 615.44 1020.21 625.75
00002670 00000058 829.33 169.20 403.99 578.44 890.55 401.48 1064.16 411.86 927.83 503.64 888.16 608.95 1019.55 618.13
00002671 00000059 829.23 167.29 405.28 576.68 890.85 400.34 1063.53 411.23 927.90 500.52 887.41 604.94 1017.86 614.50
00002672 00000060 829.42 175.14 404.54 565.64 891.45 402.79 1061.98 414.19 936.62 509.03 890.37 604.95 1014.02 614.04
00002673 00000061 829.28 176.91 404.89 563.99 891.22 404.95 1060.58 416.76 936.28 513.12 891.31 609.14 1010.49 618.56
00002674 00000062 828.33 177.52 404.91 566.29 891.05 406.62 1059.69 419.01 935.56 516.85 893.34 612.66 1009.68 622.48
00002675 00000063 827.62 177.47 407.27 572.39 891.62 408.25 1058.96 419.65 934.49 517.68 895.80 615.00 1009.52 624.16
00002676 00000064 828.15 178.25 408.30 575.14 889.97 405.92 1061.08 417.79 933.73 516.17 895.86 614.49 1019.88 623.79
00002677 00000065 830.33 169.53 406.26 584.79 888.56 401.68 1062.26 411.81 925.56 508.74 890.32 615.87 1025.24 624.87
00002678 00000066 830.25 169.94 406.77 576.82 889.21 399.13 1064.45 408.63 926.62 503.43 889.30 611.98 1028.57 620.34
00002679 00000067 827.49 166.99 410.43 580.17 888.70 402.47 1070.19 408.32 927.69 502.08 892.63 618.58 1033.47 624.88
00002680 00000068 828.24 168.26 409.85 578.59 888.77 402.67 1070.98 408.99 928.48 502.57 892.56 619.20 1034.37 625.77
00002681 00000069 828.62 169.23 410.32 576.40 889.78 403.20 1071.62 409.72 930.26 503.14 893.25 618.04 1035.61 624.69
00002682 00000070 829.00 170.64 410.52 575.14 890.71 403.42 1071.92 411.13 930.73 504.21 893.13 616.49 1036.62 624.04
00002683 00000071 829.84 171.86 410.21 574.33 892.10 403.75 1072.66 411.55 932.77 504.42 894.70 615.66 1038.25 623.12
00002684 00000072 831.00 174.44 410.01 571.42 893.37 403.31 1073.56 412.99 933.71 505.48 894.70 612.24 1041.16 621.09
00002685 00000073 832.03 175.62 409.47 568.94 893.91 402.88 1073.12 412.79 934.42 504.75 894.04 608.26 1044.21 617.24
00002686 00000074 829.86 173.68 411.22 567.86 891.74 400.27 1072.11 410.73 933.56 501.52 890.87 602.68 1045.21 611.93
00002687 00000075 828.62 170.76 412.22 566.13 889.72 395.99 1072.40 408.41 931.24 496.93 887.03 595.94 1045.40 606.48
00002688 00000076 826.61 168.51 411.94 561.70 888.07 390.42 1072.97 404.79 932.16 490.82 884.19 586.63 1048.07 598.63
00002689 00000077 825.35 165.64 413.70 558.20 886.91 385.58 1073.75 400.91 932.73 485.51 882.17 579.19 1049.77 592.12
00002690 00000078 824.72 163.48 417.23 555.07 886.43 378.20 1073.59 392.85 932.62 477.98 882.36 571.22 1053.09 583.73
00002691 00000079 825.16 160.75 420.84 548.75 887.76 369.38 1073.57 385.99 931.16 471.40 883.69 559.72 1055.96 573.65
00002692 DELETE   831.76 152.87 417.04 549.97 900.89 366.83 1081.29 383.46 941.63 458.91 890.92 547.19 1055.90 559.79
00002693 00000081 834.30 148.06 415.43 543.77 901.93 357.44 1085.14 375.37 943.68 448.38 890.13 539.69 1055.76 554.07
00002694 00000082 838.07 139.64 414.48 547.05 902.83 350.30 1085.54 368.11 940.04 438.75 889.30 533.82 1055.52 548.54
00002695 00000083 838.77 132.99 416.05 548.80 903.95 341.34 1084.45 360.48 936.66 431.07 888.76 528.07 1054.99 543.89
00002696 00000084 839.68 127.71 416.85 548.44 905.43 335.66 1082.79 354.74 932.84 422.35 887.46 521.08 1050.61 536.76
00002697 00000085 840.31 121.73 416.91 545.92 906.83 333.68 1081.68 348.84 931.13 411.58 888.62 515.72 1047.68 528.17
00002698 00000086 843.65 116.93 414.66 540.18 908.82 331.18 1082.17 343.82 930.34 405.00 890.55 510.43 1049.05 520.97
00002699 00000087 845.54 116.31 415.79 538.47 911.48 328.69 1084.97 341.22 932.68 402.66 893.24 509.39 1051.43 519.80
00002700 00000088 848.88 117.08 417.37 540.20 916.10 330.11 1088.42 343.02 935.19 402.54 897.62 509.93 1053.89 520.45
00002701 00000089 852.90 119.82 418.05 546.39 920.72 335.41 1089.37 349.43 937.96 408.14 900.73 514.27 1055.54 525.59
00002702 00000090 857.19 131.52 411.82 539.20 916.44 339.10 1089.12 356.30 937.84 424.14 904.93 522.61 1064.70 536.10
00002703 00000091 858.54 140.25 415.30 542.59 923.02 347.57 1091.92 366.45 945.51 432.66 910.16 533.05 1062.10 547.88
00002704 00000092 859.26 148.75 415.91 544.21 923.89 353.49 1093.73 373.95 950.06 441.68 912.07 539.88 1062.75 555.86
00002705 00000093 859.81 155.12 415.43 551.04 923.59 364.84 1098.40 383.25 953.29 454.31 910.93 553.78 1069.68 568.89
00002706 00000094 859.98 160.85 414.06 564.14 925.28 370.84 1096.36 385.10 955.52 463.98 915.88 566.40 1075.47 577.64
00002707 00000095 860.31 162.00 413.25 561.84 925.01 372.26 1096.56 386.18 955.92 465.28 917.16 567.26 1076.09 578.35
00002708 00000096 860.34 160.98 414.24 557.25 924.51 371.85 1097.54 386.75 955.21 464.48 915.72 565.78 1075.12 577.79
00002709 00000097 860.49 157.81 413.94 552.27 923.86 369.03 1097.50 385.57 954.09 460.48 913.90 560.66 1073.51 573.95
00002710 00000098 860.89 151.79 414.34 553.71 922.86 364.07 1098.14 380.24 953.40 453.23 913.41 555.16 1071.64 568.27
00002711 00000099 861.71 148.68 415.15 550.85 921.80 359.48 1097.43 374.16 952.00 448.50 914.25 550.73 1070.87 562.92
00002712 00000100 862.06 147.91 412.94 547.20 921.55 357.21 1096.49 371.12 952.16 446.03 915.60 547.64 1072.37 559.21
00002713 00000101 862.30 147.49 412.97 547.92 922.06 357.39 1096.85 371.74 953.04 447.08 916.04 547.78 1073.06 559.64
00002714 00000102 863.95 151.09 415.02 555.45 924.45 362.84 1100.44 377.51 956.89 453.15 916.43 552.59 1076.14 564.54
00002715 00000103 863.20 159.16 415.07 563.32 926.49 370.92 1099.87 384.24 958.01 464.59 919.66 564.44 1079.83 574.73
00002716 00000104 863.17 165.51 412.05 570.99 927.99 378.21 1097.83 390.32 959.65 474.51 922.63 575.91 1080.64 584.79
00002717 00000105 862.16 176.38 413.91 570.31 929.62 384.59 1098.08 398.78 960.58 485.20 926.11 582.39 1083.80 592.41
00002718 00000106 861.81 178.82 412.40 573.91 928.65 391.82 1096.75 405.79 959.84 493.07 926.09 590.48 1083.16 600.28
00002719 00000107 861.12 179.55 413.58 575.68 927.40 393.76 1096.20 407.83 957.72 495.07 924.90 593.41 1081.51 603.26
00002720 00000108 860.68 179.63 414.06 574.20 927.02 392.51 1096.28 407.00 957.22 494.37 923.88 592.10 1080.87 602.19
00002721 00000109 860.72 178.75 412.93 569.93 927.17 387.87 1096.78 401.93 958.86 489.51 924.20 586.96 1080.97 596.88
00002722 00000110 860.97 173.73 411.76 569.31 928.17 382.43 1097.42 395.94 960.37 483.02 923.83 581.37 1080.87 591.11
00002723 00000111 861.87 163.66 412.63 568.92 927.98 376.62 1098.60 391.77 960.27 477.31 920.81 576.07 1074.76 587.79
00002724 00000112 863.74 158.13 413.33 562.66 928.02 371.81 1101.37 387.64 960.08 469.63 917.86 569.50 1070.50 582.51
00002725 00000113 865.85 153.90 413.97 554.12 929.39 368.13 1104.97 385.29 962.44 462.74 917.21 560.05 1070.29 574.56
00002726 00000114 866.16 144.44 413.48 552.80 927.23 360.79 1102.35 379.01 959.56 455.53 916.85 553.04 1067.12 568.46
00002727 00000115 868.86 141.63 410.58 545.86 926.84 353.02 1100.75 372.96 956.49 448.45 916.55 546.77 1063.54 563.83
00002728 00000116 871.17 139.15 408.69 543.28 927.61 349.47 1100.03 369.80 954.45 444.67 917.01 543.54 1062.37 560.92
00002729 00000117 871.39 138.48 408.33 546.34 928.67 349.73 1101.04 371.07 955.72 446.26 917.59 543.88 1062.76 562.19
00002730 00000118 868.65 142.44 409.82 550.03 928.94 353.41 1101.12 375.25 957.12 451.54 917.10 548.23 1063.25 566.93
00002731 00000119 866.89 144.15 410.37 554.61 928.27 360.15 1101.31 380.85 957.96 457.46 916.03 554.84 1063.34 572.46
00002732 00000120 865.26 149.97 409.27 555.35 927.65 365.57 1100.53 386.58 957.21 465.54 914.27 563.86 1062.23 581.54
00002733 00000121 864.40 157.30 404.45 551.79 924.43 369.60 1093.96 389.90 951.96 473.41 912.04 573.60 1052.98 590.84
00002734 00000122 863.24 162.35 403.79 550.51 922.33 373.80 1089.92 393.43 950.47 479.92 911.34 577.61 1043.70 594.49
00002735 00000123 863.63 162.75 401.13 549.30 923.56 374.94 1093.45 396.10 949.64 473.43 916.35 577.64 1040.78 594.65
00002736 00000124 861.72 158.74 401.08 550.80 921.02 369.09 1089.25 390.16 944.76 469.02 913.20 574.01 1034.71 591.43
00002737 00000125 859.79 153.59 402.34 551.07 919.81 366.11 1088.15 384.22 944.47 459.62 912.32 568.33 1035.08 583.75
00002738 00000126 857.67 145.18 401.26 554.16 917.16 363.62 1083.54 377.87 940.80 453.16 910.82 563.62 1031.39 576.47
00002739 00000127 855.90 140.12 403.53 556.16 915.02 359.30 1082.31 373.48 938.85 448.98 909.46 559.39 1030.68 572.22
00002740 00000128 856.16 141.72 400.59 556.51 912.35 361.86 1079.86 373.05 936.62 452.06 909.67 563.89 1029.76 574.36
00002741 00000129 858.92 145.60 399.21 560.80 911.97 367.09 1079.25 375.80 937.01 457.88 911.41 574.45 1031.00 582.42
00002742 00000130 854.90 147.78 403.76 566.58 906.08 372.68 1074.02 376.89 940.70 471.88 905.29 580.52 1031.94 586.21
00002743 00000131 850.84 149.98 404.73 570.84 905.08 378.74 1072.49 382.64 941.89 478.31 905.64 587.84 1029.15 593.12
00002744 00000132 851.32 159.29 400.15 572.35 903.34 390.56 1068.86 394.29 939.90 486.89 905.08 599.66 1023.82 604.25
00002745 00000133 848.80 169.23 401.83 579.47 898.70 398.86 1064.75 405.16 933.16 504.31 908.03 612.22 1029.33 618.50
00002746 00000134 847.72 188.23 402.07 578.25 895.99 405.66 1064.18 417.27 928.16 521.81 905.68 620.76 1036.63 631.21
00002747 00000135 842.47 197.84 408.08 579.46 900.79 416.18 1065.64 427.53 930.21 530.80 904.59 626.19 1042.55 634.60
00002748 00000136 840.91 199.16 407.81 577.71 900.30 418.78 1064.26 431.04 929.21 532.46 902.98 629.17 1036.57 638.70
00002749 00000137 839.74 196.94 406.95 577.31 897.87 421.07 1060.38 431.27 927.79 530.25 900.82 633.84 1024.93 642.19
CROP_BBOX: 558 0 1560 954
