Video ID: 	PY96a0gdjOM
H: 	2160
W: 	3840
FPS: 	24.0

FRAME INDEX X0 Y0 W H [Landmarks (5 Points)]

00002356 00000000 1449.79 297.56 796.76 1063.80 1663.34 630.11 2009.82 621.79 1832.61 809.42 1692.02 1024.42 1983.19 1016.12
00002357 00000001 1453.24 292.04 800.65 1074.47 1665.59 639.61 2020.34 632.65 1837.61 819.64 1698.45 1036.90 1993.63 1029.21
00002358 00000002 1456.48 280.80 808.95 1096.39 1666.59 640.16 2029.26 630.79 1846.57 828.76 1707.91 1046.59 2005.10 1036.28
00002359 00000003 1455.06 267.81 820.15 1108.42 1669.96 638.78 2034.06 628.06 1853.07 822.76 1709.40 1040.70 2014.31 1028.84
00002360 DELETE   1455.17 254.47 806.60 1094.02 1667.11 626.71 2026.78 615.96 1845.54 806.47 1701.83 1024.63 2004.05 1013.53
00002361 DELETE   1458.86 263.73 795.79 1069.12 1664.54 607.37 2021.13 595.56 1835.88 787.55 1697.32 1005.78 1996.90 994.02
00002362 DELETE   1458.64 257.33 813.05 1093.05 1662.98 604.20 2023.43 591.49 1828.73 781.81 1690.64 999.96 2003.79 987.06
00002363 00000007 1465.49 266.04 810.49 1089.03 1666.95 606.23 2028.97 598.24 1831.21 788.49 1691.58 1000.25 2010.53 991.50
00002364 DELETE   1468.26 272.66 812.52 1083.90 1681.67 603.69 2028.60 596.52 1844.92 788.44 1715.45 1011.53 1999.69 1002.65
00002365 00000009 1468.21 273.12 818.40 1098.83 1684.85 600.88 2033.38 588.34 1854.93 781.34 1725.87 1024.23 2005.46 1011.67
00002366 00000010 1467.35 239.69 813.52 1127.48 1678.37 588.34 2028.48 572.48 1845.08 762.65 1719.80 1014.84 1999.39 1000.17
00002367 00000011 1469.28 223.65 803.67 1089.09 1668.55 575.57 2031.84 561.78 1832.53 735.27 1707.63 987.61 2006.78 975.99
00002368 00000012 1469.75 215.07 801.47 1086.50 1668.84 577.92 2030.80 571.86 1830.59 739.47 1699.59 977.57 2005.67 972.51
00002369 00000013 1472.94 220.85 800.25 1082.82 1673.81 579.60 2034.53 575.77 1834.22 742.14 1701.36 978.23 2007.83 975.13
00002370 00000014 1469.08 216.84 795.25 1066.12 1669.57 577.72 2025.78 575.05 1829.40 733.53 1697.69 965.85 2001.27 963.61
00002371 00000015 1464.50 239.10 795.46 1036.83 1663.92 575.67 2016.72 573.74 1818.83 727.10 1693.99 958.91 1994.21 957.65
00002372 DELETE   1463.95 236.13 794.97 1058.62 1660.01 574.82 2014.44 567.43 1818.33 727.53 1695.49 969.73 1990.48 964.31
00002373 00000017 1456.79 241.19 799.05 1075.92 1657.47 576.40 2009.80 563.89 1817.05 736.95 1703.58 990.08 1983.60 980.61
00002374 00000018 1450.36 266.99 800.39 1072.71 1663.15 584.73 2007.04 572.71 1824.76 754.89 1700.73 999.09 1973.21 988.59
00002375 00000019 1449.70 260.44 797.56 1064.48 1661.56 578.53 2007.35 567.56 1824.16 751.91 1694.13 990.38 1973.46 981.00
00002376 00000020 1449.00 246.71 801.79 1055.68 1644.20 575.00 1997.35 563.63 1806.67 736.33 1684.66 977.90 1972.36 970.34
00002377 00000021 1444.48 259.64 800.69 1046.52 1639.15 577.48 1992.47 567.91 1800.52 742.68 1680.06 979.91 1967.72 974.10
00002378 00000022 1443.99 259.48 799.46 1060.25 1638.97 581.30 1992.19 569.84 1801.24 749.20 1683.30 988.64 1971.70 980.31
00002379 00000023 1440.79 255.97 800.64 1059.30 1635.94 578.27 1988.77 563.46 1798.82 746.29 1686.12 988.30 1966.82 977.28
00002380 00000024 1439.92 261.14 801.72 1046.55 1634.08 574.99 1987.73 560.68 1797.96 743.54 1685.52 988.97 1959.05 979.20
00002381 00000025 1436.24 274.05 799.61 1050.80 1646.03 585.68 1992.40 569.11 1806.34 764.01 1681.64 993.63 1963.38 979.98
00002382 00000026 1436.54 276.63 800.31 1041.17 1633.40 581.88 1986.29 582.74 1794.32 760.09 1666.41 978.60 1958.33 981.47
00002383 00000027 1429.12 306.58 792.84 1020.26 1634.78 591.47 1984.67 590.33 1788.69 782.94 1658.45 987.74 1949.93 986.90
00002384 00000028 1427.64 307.12 792.25 1018.14 1632.61 592.32 1980.01 591.31 1785.85 784.28 1659.50 987.41 1945.06 986.55
00002385 00000029 1428.85 285.76 796.52 1020.55 1625.78 585.58 1976.33 589.33 1784.07 768.99 1661.08 977.98 1942.37 984.11
00002386 00000030 1426.11 301.10 795.36 1010.48 1634.90 596.41 1977.89 588.19 1788.65 782.64 1668.28 993.26 1941.06 986.67
00002387 00000031 1423.98 306.65 798.24 1014.29 1633.24 600.61 1977.36 593.75 1788.39 789.40 1668.62 999.00 1943.17 993.07
00002388 00000032 1421.59 300.52 799.29 1018.98 1629.72 605.29 1973.40 597.62 1785.78 793.03 1667.31 1002.47 1941.46 995.63
00002389 00000033 1422.64 295.77 796.76 1013.56 1626.08 606.05 1973.83 597.80 1780.25 791.00 1661.60 1000.83 1942.34 993.68
00002390 00000034 1420.44 300.41 796.71 999.97 1622.34 606.31 1971.11 598.39 1775.41 788.41 1655.26 995.08 1941.25 988.28
00002391 00000035 1418.23 283.46 798.84 1020.10 1610.44 599.55 1966.83 603.35 1763.26 775.71 1643.68 981.76 1936.80 988.13
00002392 00000036 1413.81 283.82 804.52 1019.80 1608.18 602.19 1967.17 608.23 1763.13 780.80 1642.13 986.88 1936.17 995.09
00002393 00000037 1413.53 279.55 804.63 1026.90 1605.94 605.93 1966.80 611.70 1764.32 783.12 1643.13 992.51 1938.61 1000.79
00002394 00000038 1415.32 280.09 802.64 1027.62 1606.52 610.57 1965.21 614.45 1763.54 787.74 1645.58 999.11 1936.65 1005.83
00002395 00000039 1421.81 302.15 794.41 1003.58 1616.72 623.70 1965.44 613.71 1770.73 805.35 1656.79 1013.57 1934.95 1004.79
00002396 00000040 1423.99 304.22 791.22 1000.15 1618.04 623.08 1966.90 612.52 1772.35 805.12 1658.29 1014.54 1936.06 1005.20
00002397 00000041 1427.62 290.27 793.14 1004.76 1613.71 614.06 1971.22 611.29 1772.86 786.16 1657.51 1003.41 1943.73 1004.48
00002398 00000042 1429.42 286.33 793.63 1004.42 1617.05 614.23 1975.14 611.85 1776.99 784.18 1659.92 1002.40 1945.96 1003.78
00002399 00000043 1432.79 286.23 791.30 1006.34 1620.44 611.81 1976.24 609.93 1778.67 782.72 1660.94 999.84 1946.00 1001.69
00002400 00000044 1436.69 286.70 788.01 994.84 1623.56 614.10 1977.99 610.17 1779.21 779.55 1663.15 996.30 1948.58 996.29
00002401 00000045 1440.50 282.22 783.41 992.47 1626.77 615.28 1981.09 609.50 1782.25 778.05 1666.99 997.40 1949.80 995.72
00002402 00000046 1442.56 286.08 782.74 987.45 1628.82 612.78 1982.23 606.56 1783.92 777.34 1668.62 996.37 1947.62 994.27
00002403 00000047 1442.73 282.12 784.23 992.48 1628.22 612.46 1982.68 605.52 1784.19 775.69 1668.87 997.46 1948.28 994.92
00002404 00000048 1445.07 282.44 782.32 991.19 1630.53 612.68 1984.75 606.04 1785.40 774.90 1669.77 997.60 1949.22 995.32
00002405 00000049 1444.69 279.43 783.15 995.02 1630.02 612.50 1984.22 604.92 1785.18 773.59 1670.38 998.72 1949.22 995.72
00002406 00000050 1445.18 278.70 782.82 999.10 1629.25 612.05 1984.87 604.88 1784.43 773.91 1671.37 1001.24 1949.58 998.45
00002407 00000051 1444.89 280.91 782.39 998.60 1628.08 612.78 1983.42 604.83 1783.52 775.55 1670.66 1002.65 1948.28 999.35
00002408 00000052 1444.90 279.96 782.35 1000.99 1629.87 614.45 1982.37 606.69 1785.00 776.62 1671.47 1003.01 1947.27 1000.00
00002409 00000053 1447.05 276.77 780.44 998.03 1632.31 617.07 1985.30 608.27 1787.22 777.16 1675.39 1004.85 1951.88 1000.93
00002410 00000054 1450.48 276.97 777.46 996.22 1635.05 620.32 1987.91 611.07 1791.26 778.65 1678.43 1007.67 1953.66 1003.32
00002411 00000055 1452.42 279.50 775.86 993.21 1637.80 622.25 1992.84 613.52 1794.44 780.61 1680.20 1009.79 1957.26 1005.74
00002412 00000056 1456.41 276.65 772.20 993.27 1643.49 623.13 1995.17 614.54 1799.56 778.48 1685.33 1008.13 1960.64 1004.04
00002413 00000057 1459.55 280.73 769.53 988.24 1647.25 626.46 2001.00 618.51 1802.38 778.64 1687.39 1009.17 1966.28 1005.49
00002414 00000058 1462.36 281.88 767.56 984.11 1652.20 627.63 2003.62 618.98 1805.84 779.37 1690.10 1008.80 1967.47 1004.77
00002415 00000059 1469.37 288.91 764.72 973.31 1658.71 628.34 2010.22 621.32 1810.78 781.57 1694.96 1007.31 1971.93 1004.84
00002416 00000060 1476.09 261.82 767.18 1007.90 1668.31 631.17 2018.13 618.30 1820.85 780.93 1706.57 1012.42 1985.59 1005.08
00002417 00000061 1485.17 261.42 766.00 1014.12 1677.81 637.35 2027.96 625.00 1831.47 785.46 1714.97 1017.46 1998.17 1009.92
00002418 00000062 1491.00 247.85 773.29 1024.07 1681.63 636.35 2036.78 625.99 1833.47 790.80 1722.44 1022.61 2003.06 1016.05
00002419 00000063 1501.33 285.55 769.87 976.73 1686.92 631.23 2057.09 632.13 1865.53 805.56 1724.18 1018.09 2004.52 1018.00
00002420 00000064 1511.50 293.77 768.84 980.85 1696.29 630.01 2061.57 634.41 1869.76 801.42 1737.71 1022.08 2010.42 1024.42
00002421 00000065 1522.24 292.75 765.03 978.01 1702.07 623.29 2074.60 628.99 1878.32 803.74 1744.47 1024.06 2019.01 1027.39
00002422 00000066 1533.57 279.63 773.81 998.99 1707.01 638.58 2062.36 635.92 1861.88 815.01 1745.09 1030.38 2013.93 1027.33
00002423 00000067 1538.15 295.05 778.31 983.42 1715.15 641.86 2068.64 637.10 1868.84 813.86 1754.83 1030.48 2025.17 1025.09
00002424 00000068 1543.31 295.07 776.24 983.91 1720.55 642.44 2074.39 638.56 1872.69 813.31 1759.40 1028.53 2034.67 1023.55
00002425 00000069 1551.41 292.50 767.93 986.71 1729.16 639.64 2094.21 634.56 1883.26 794.98 1771.73 1022.89 2051.20 1020.81
00002426 00000070 1553.48 286.15 766.87 993.07 1732.64 640.18 2095.41 634.74 1886.95 795.27 1776.67 1023.32 2055.24 1021.05
00002427 00000071 1552.24 286.06 769.24 992.92 1731.49 639.12 2095.21 635.74 1885.14 796.55 1773.64 1022.61 2051.91 1022.09
00002428 00000072 1543.21 292.36 776.85 987.55 1722.12 641.52 2077.07 638.42 1875.12 815.04 1760.93 1029.61 2035.51 1025.09
00002429 00000073 1538.91 290.81 778.19 988.65 1716.61 638.96 2072.27 637.76 1870.42 815.64 1753.53 1029.79 2025.40 1027.20
00002430 00000074 1533.56 280.16 774.42 1004.25 1709.74 636.80 2065.11 636.09 1865.00 815.38 1747.10 1030.06 2017.64 1028.36
00002431 00000075 1517.95 275.88 773.36 1002.19 1704.23 618.46 2078.14 627.17 1878.69 801.55 1745.57 1023.78 2017.57 1029.80
00002432 00000076 1507.76 271.56 778.18 1007.41 1698.81 619.37 2066.67 629.90 1871.76 799.40 1740.16 1018.99 2008.19 1026.38
00002433 00000077 1501.19 290.74 773.55 981.45 1692.91 624.65 2059.30 632.61 1869.27 802.74 1730.41 1017.21 2004.23 1022.65
00002434 00000078 1492.95 279.59 771.79 993.67 1681.79 626.47 2050.13 630.87 1859.07 803.50 1719.61 1016.70 1997.15 1019.81
00002435 00000079 1487.61 252.27 770.13 1029.20 1683.66 632.30 2031.83 627.15 1834.74 793.01 1719.18 1016.18 1997.76 1014.20
00002436 00000080 1479.21 245.69 767.64 1034.89 1674.69 630.08 2020.05 624.78 1827.44 790.41 1710.03 1011.80 1987.36 1010.08
00002437 00000081 1473.12 273.90 766.99 1004.24 1664.58 627.58 2010.31 625.92 1815.83 789.99 1699.72 1008.20 1973.66 1009.86
00002438 00000082 1462.51 291.65 770.61 991.58 1656.65 626.96 1997.21 628.89 1808.27 791.36 1691.03 1004.82 1959.87 1009.37
00002439 00000083 1448.65 311.28 775.28 995.02 1643.58 635.47 1981.88 624.48 1796.61 805.36 1681.14 1016.09 1947.37 1007.24
00002440 00000084 1441.04 288.44 779.75 1019.72 1633.03 631.77 1974.94 620.03 1784.45 807.14 1672.89 1015.59 1940.46 1006.21
00002441 00000085 1432.39 312.71 786.70 994.20 1624.49 636.84 1965.42 623.78 1773.95 812.51 1666.30 1014.90 1934.02 1003.97
00002442 00000086 1429.79 287.08 785.02 1009.59 1611.68 627.37 1963.74 623.91 1764.59 799.18 1657.62 1009.08 1935.21 1009.69
00002443 00000087 1425.06 272.55 790.80 1022.84 1604.85 626.35 1960.16 622.11 1755.84 796.27 1651.65 1010.43 1928.09 1010.46
00002444 00000088 1423.44 262.07 785.74 1027.72 1602.04 623.62 1956.26 622.16 1750.47 791.31 1646.39 1006.97 1923.10 1009.10
00002445 00000089 1418.57 252.90 782.20 1031.26 1596.78 622.13 1952.94 622.65 1745.94 788.64 1641.72 1005.64 1917.63 1009.32
00002446 00000090 1416.18 255.33 783.45 1024.56 1592.08 620.68 1951.92 620.95 1741.11 785.56 1634.66 1004.80 1913.42 1008.03
00002447 00000091 1412.27 253.09 784.82 1025.50 1588.05 618.87 1949.07 619.47 1738.67 784.88 1630.32 1004.99 1908.07 1008.42
00002448 00000092 1412.10 257.51 782.39 1012.44 1586.00 621.59 1946.12 619.44 1736.53 784.25 1628.28 1005.12 1902.89 1006.14
00002449 00000093 1408.40 262.45 785.79 1009.55 1581.79 620.99 1944.28 617.85 1732.38 785.54 1623.59 1005.18 1900.38 1005.14
00002450 00000094 1407.09 261.42 783.94 1011.24 1579.73 619.96 1943.51 617.83 1730.40 783.96 1620.26 1004.63 1898.21 1005.52
00002451 00000095 1405.46 269.21 782.52 998.15 1578.19 621.87 1941.43 617.03 1729.58 783.28 1619.18 1005.45 1896.07 1003.69
00002452 00000096 1407.52 261.26 781.49 1007.44 1579.27 618.81 1941.22 614.94 1729.77 781.83 1620.47 1004.60 1895.57 1004.06
00002453 00000097 1406.93 253.45 782.69 1015.72 1579.31 617.06 1941.78 614.34 1729.37 780.29 1619.34 1003.28 1894.99 1003.75
00002454 00000098 1406.63 255.38 782.25 1012.45 1578.53 619.39 1940.32 615.39 1728.73 780.95 1618.63 1004.93 1894.46 1004.25
00002455 00000099 1406.89 260.19 780.41 1006.69 1577.61 621.86 1939.95 617.79 1726.92 782.44 1617.25 1006.67 1893.37 1005.82
00002456 00000100 1405.36 266.02 781.39 1003.17 1574.99 622.81 1938.61 616.95 1724.01 782.49 1615.90 1007.75 1892.10 1005.33
00002457 00000101 1403.13 266.98 781.24 1001.32 1573.73 622.04 1936.10 616.36 1723.20 781.99 1615.71 1006.27 1890.08 1003.81
00002458 00000102 1401.01 260.64 784.61 1009.77 1573.52 622.55 1935.81 617.17 1725.19 782.11 1617.16 1007.16 1891.32 1005.04
00002459 00000103 1400.71 257.52 784.33 1011.97 1573.21 622.37 1934.69 617.47 1724.29 781.74 1616.55 1005.93 1889.54 1004.20
00002460 00000104 1402.99 255.28 782.26 1011.80 1573.33 620.85 1933.30 615.75 1723.46 781.06 1615.43 1005.66 1887.41 1003.89
00002461 00000105 1402.01 256.67 783.27 1009.92 1573.16 621.36 1933.91 616.20 1724.24 781.55 1614.98 1005.40 1888.34 1003.62
00002462 00000106 1400.70 254.24 786.26 1014.05 1572.84 620.35 1934.69 615.76 1724.42 782.02 1615.08 1006.04 1888.55 1004.65
00002463 00000107 1399.14 253.12 787.65 1018.31 1571.36 621.09 1934.23 615.72 1724.02 782.76 1616.71 1007.67 1889.05 1005.77
00002464 00000108 1396.88 253.35 788.83 1020.67 1570.01 622.56 1934.45 617.44 1724.12 783.54 1616.48 1008.70 1890.81 1006.73
00002465 00000109 1397.79 268.56 787.99 1006.40 1570.27 627.51 1935.07 620.04 1722.95 787.59 1615.59 1012.29 1891.11 1008.16
00002466 00000110 1398.98 264.77 788.49 1013.15 1571.10 626.41 1939.11 621.72 1725.18 789.56 1615.64 1010.69 1899.07 1009.13
00002467 00000111 1402.98 272.24 785.51 1005.16 1573.56 629.70 1942.43 625.87 1724.80 789.19 1612.30 1010.70 1905.99 1009.86
00002468 00000112 1406.47 282.59 777.76 986.72 1575.48 632.98 1943.06 629.80 1725.16 790.69 1609.56 1007.72 1910.95 1006.79
00002469 00000113 1409.01 291.79 777.70 986.44 1580.69 632.25 1949.75 633.68 1727.73 792.68 1609.44 1000.43 1922.34 1004.03
00002470 00000114 1402.38 319.31 794.01 986.44 1578.65 660.94 1929.72 647.01 1722.43 820.64 1613.37 1010.26 1923.23 997.57
00002471 DELETE   1407.46 334.39 794.49 999.12 1589.91 676.56 1929.87 674.44 1729.40 846.05 1622.15 1011.14 1924.93 1007.44
00002472 DELETE   1411.02 339.35 805.15 1025.52 1606.47 688.85 1955.94 691.55 1750.18 873.64 1617.48 1027.16 1952.36 1030.30
00002473 00000117 1423.26 368.03 794.50 1025.63 1608.42 702.04 1948.21 708.22 1751.98 885.37 1622.95 1031.18 1957.31 1035.03
00002474 00000118 1429.04 376.21 793.21 1027.11 1614.08 705.68 1956.65 705.99 1761.45 889.08 1626.72 1033.80 1975.18 1032.86
00002475 00000119 1430.14 366.93 794.78 1035.13 1618.93 701.83 1959.24 703.68 1770.77 893.88 1634.19 1029.13 1981.41 1029.35
00002476 00000120 1428.80 369.65 799.21 1032.89 1619.05 704.92 1960.21 705.68 1772.33 896.09 1632.59 1030.64 1983.80 1030.24
00002477 00000121 1424.36 375.56 806.10 1028.95 1618.18 706.97 1959.05 707.33 1773.65 897.46 1634.10 1033.57 1985.46 1032.55
00002478 00000122 1419.21 371.54 810.73 1036.06 1612.90 708.44 1958.00 706.38 1773.47 900.69 1630.32 1036.43 1987.52 1032.97
00002479 00000123 1415.59 374.67 815.28 1038.95 1608.83 706.15 1959.38 707.55 1769.31 902.01 1623.53 1038.02 1986.01 1037.42
00002480 00000124 1412.64 372.03 813.20 1039.34 1601.20 710.99 1960.00 709.97 1763.92 904.39 1616.47 1043.81 1983.15 1041.13
CROP_BBOX: 1051 0 2952 1844
