Video ID: 	VIs2QcyXB4k
H: 	1080
W: 	1920
FPS: 	23.976023976023978

FRAME INDEX X0 Y0 W H [Landmarks (5 Points)]

00003677 00000000 552.13 145.22 429.49 633.04 709.03 417.40 898.60 410.83 848.94 501.44 755.03 636.20 905.12 630.19
00003678 DELETE   543.23 147.81 430.11 625.67 696.51 412.58 887.47 407.76 835.70 494.88 743.36 631.66 893.34 627.21
00003679 00000002 535.71 146.24 429.31 626.51 684.39 409.21 875.98 401.64 823.95 492.38 732.49 628.20 883.96 621.26
00003680 00000003 527.15 140.69 433.41 630.36 674.37 406.62 868.30 400.38 813.56 489.52 721.87 623.68 879.83 617.62
00003681 00000004 517.16 135.06 434.65 634.81 663.44 404.10 855.61 395.67 802.13 485.69 713.33 619.09 873.18 611.57
00003682 00000005 508.08 134.90 435.50 636.10 654.26 403.29 839.35 391.00 787.88 481.42 702.84 617.25 859.63 605.92
00003683 00000006 500.35 133.89 432.75 640.44 644.21 400.17 830.52 386.25 773.25 473.09 689.50 617.33 846.46 604.49
00003684 00000007 495.97 134.33 437.62 634.36 633.85 401.35 833.66 382.47 768.39 465.14 689.13 620.36 849.83 603.03
00003685 00000008 486.69 132.32 440.95 627.94 624.17 396.59 824.01 374.29 759.65 453.25 682.88 614.62 844.61 593.74
00003686 00000009 479.43 130.01 445.06 623.14 620.13 393.82 811.24 369.68 753.61 439.29 682.43 607.74 833.88 585.32
00003687 00000010 475.22 128.05 450.07 629.75 612.06 392.34 809.01 367.90 744.43 436.03 670.27 602.66 834.93 579.66
00003688 00000011 471.10 128.09 450.65 628.79 605.53 388.79 799.53 362.31 734.62 420.64 665.66 599.66 826.59 575.48
00003689 DELETE   461.99 130.74 455.88 617.51 597.24 389.87 787.17 357.28 725.52 412.53 661.67 592.89 820.22 564.63
00003690 DELETE   458.13 134.59 454.45 599.43 588.71 388.62 775.97 350.95 712.87 409.59 655.52 586.87 811.20 554.92
00003691 00000014 455.89 135.53 450.84 589.92 583.83 388.94 767.66 344.47 706.30 403.79 650.87 579.11 806.31 541.68
00003692 00000015 452.51 129.84 451.09 590.13 577.13 388.98 766.91 337.13 705.42 403.27 642.31 571.96 811.38 528.42
00003693 00000016 449.20 129.60 452.28 580.98 573.93 388.85 762.84 332.83 701.24 401.44 639.00 564.03 809.58 516.91
00003694 DELETE   448.65 118.20 451.80 578.03 562.60 379.74 764.39 326.42 686.07 398.05 625.40 555.03 808.92 510.95
00003695 00000018 450.56 117.06 450.23 574.93 561.76 373.50 762.10 319.67 681.51 392.16 620.82 547.35 805.26 502.52
00003696 00000019 448.97 113.58 451.31 573.11 561.67 367.30 758.96 312.74 677.61 383.60 621.27 539.97 801.95 493.97
00003697 DELETE   448.91 119.26 451.16 552.35 567.25 355.76 757.69 307.65 680.00 367.95 628.43 530.39 795.55 489.57
00003698 00000021 446.30 121.16 453.20 546.08 563.42 341.69 757.95 292.30 681.23 349.99 635.70 529.09 802.45 487.35
00003699 00000022 444.73 121.33 458.84 543.97 565.98 335.02 764.35 291.37 685.94 341.33 637.69 525.83 805.95 488.65
00003700 00000023 446.72 117.77 458.46 545.32 566.62 331.80 767.10 288.30 685.33 339.67 634.99 523.32 806.48 486.24
00003701 00000024 447.75 120.18 457.68 542.92 566.96 331.22 768.92 287.82 685.94 338.36 635.91 523.08 809.10 486.12
00003702 00000025 447.92 119.72 459.21 545.46 565.35 332.91 773.64 288.94 687.56 338.18 633.69 525.58 813.68 488.41
00003703 00000026 447.66 115.96 461.06 554.39 565.12 333.94 771.34 289.89 686.82 339.25 633.96 528.25 811.98 490.89
00003704 00000027 448.81 115.04 458.38 558.67 565.95 336.71 767.81 290.05 686.54 342.27 635.93 530.43 811.32 491.15
00003705 00000028 450.20 113.65 460.57 562.59 566.41 339.85 770.17 289.91 688.08 347.88 637.50 535.12 814.76 493.10
00003706 00000029 452.88 113.78 458.16 566.82 567.39 339.79 772.89 293.73 687.73 355.77 634.45 536.07 814.08 497.18
00003707 00000030 453.23 116.69 457.74 563.52 566.42 341.85 774.57 295.75 687.12 361.99 633.77 538.53 814.86 499.05
00003708 00000031 454.29 114.72 453.49 565.84 567.22 341.64 771.28 297.01 685.23 362.13 632.10 537.32 810.68 499.26
00003709 00000032 452.22 112.16 450.82 578.81 566.89 340.35 769.55 297.06 683.41 361.96 631.39 541.12 808.81 503.98
00003710 00000033 450.11 114.38 448.29 581.00 564.40 341.04 769.84 303.75 681.56 367.15 623.73 540.73 807.05 508.73
00003711 00000034 445.78 111.29 447.72 577.06 562.41 342.18 765.60 309.22 681.48 365.76 621.03 534.25 802.23 505.97
00003712 00000035 440.59 113.94 445.81 572.19 556.93 346.64 760.62 314.80 677.89 372.21 614.31 532.29 798.40 505.18
00003713 00000036 435.33 110.71 447.80 579.12 553.69 349.71 756.10 319.81 674.05 375.42 608.12 534.99 790.53 510.02
00003714 00000037 432.31 112.37 445.34 594.65 551.99 354.16 752.56 324.52 670.74 386.95 600.47 543.24 784.16 519.79
00003715 00000038 427.38 110.21 449.08 614.01 550.62 360.43 748.93 327.92 667.47 391.54 599.25 554.04 777.77 528.66
00003716 00000039 427.07 112.02 448.40 616.16 551.01 361.56 748.36 328.64 667.44 394.13 599.13 555.94 776.48 530.25
00003717 00000040 428.80 111.11 444.93 615.94 553.37 361.11 748.26 329.90 668.68 395.19 600.85 555.15 775.25 530.98
00003718 00000041 428.98 109.90 444.49 613.56 555.05 363.03 749.88 330.78 670.48 395.57 603.44 556.43 774.32 531.27
00003719 00000042 432.10 109.44 441.52 604.33 558.23 361.87 751.62 331.02 672.10 394.75 605.52 552.73 772.91 528.59
00003720 00000043 429.54 108.21 442.37 589.21 553.77 357.83 755.20 337.77 678.03 386.19 604.33 548.12 777.15 527.05
00003721 00000044 428.98 108.92 440.46 590.57 553.39 362.15 752.87 339.03 679.84 389.45 605.90 551.19 777.99 527.75
00003722 00000045 430.95 111.53 439.42 597.48 555.27 368.52 754.85 342.89 684.10 396.63 606.94 559.41 779.58 534.20
00003723 00000046 432.43 113.44 441.52 610.20 558.58 374.20 753.72 349.95 672.99 417.52 605.80 569.82 769.99 550.56
00003724 00000047 434.63 115.36 437.12 619.86 564.03 380.17 753.50 359.80 676.96 435.51 612.50 583.60 765.93 568.17
00003725 DELETE   436.44 117.55 434.10 637.33 562.81 391.84 755.37 370.10 676.24 452.87 609.47 599.79 765.62 583.50
00003726 00000049 442.71 128.98 424.30 632.74 564.77 399.36 763.69 381.40 688.46 467.56 611.62 612.22 776.19 596.31
00003727 00000050 443.02 132.64 427.67 636.36 568.92 402.65 761.32 388.29 688.02 481.47 606.36 612.94 772.27 600.55
00003728 00000051 443.67 135.78 428.86 636.68 569.34 400.05 763.21 385.66 690.90 482.62 606.52 612.06 776.26 599.53
00003729 00000052 443.55 136.35 429.40 630.60 569.36 396.81 763.22 384.58 690.07 473.79 605.86 607.38 776.55 596.77
00003730 00000053 438.81 130.61 434.19 623.14 564.22 397.61 763.85 376.50 685.15 461.39 605.02 598.33 779.39 582.62
00003731 00000054 439.26 130.02 433.25 606.19 566.55 389.92 765.31 372.31 684.96 452.29 605.67 586.69 776.68 573.82
00003732 00000055 434.76 128.26 435.03 590.45 564.41 387.38 762.31 367.96 692.55 439.75 612.48 583.97 779.40 565.20
00003733 00000056 432.84 126.34 432.81 594.85 564.50 383.90 760.41 366.09 692.05 439.11 609.82 582.31 775.05 565.05
00003734 00000057 430.57 125.33 433.28 599.45 561.78 384.14 758.26 365.25 689.20 442.34 607.20 583.66 775.01 565.52
00003735 00000058 429.08 125.15 432.42 607.82 559.87 384.50 756.73 367.21 688.45 443.83 603.83 586.77 773.72 569.99
00003736 00000059 427.76 124.24 433.28 620.68 559.28 385.80 756.66 370.31 688.61 447.05 602.19 590.21 774.40 575.22
00003737 00000060 424.63 121.03 435.08 640.48 560.57 383.00 757.35 369.65 692.58 446.41 599.61 591.94 775.34 578.85
00003738 00000061 426.09 118.58 434.24 640.16 562.47 378.13 758.77 363.67 694.90 437.74 601.64 586.92 778.00 572.86
00003739 00000062 424.08 113.62 435.03 637.16 560.33 372.30 759.40 358.26 693.72 424.09 600.32 581.88 776.02 567.68
00003740 00000063 418.95 112.86 437.87 624.15 559.58 367.16 754.69 352.78 694.39 409.87 602.14 572.96 771.49 558.54
00003741 00000064 416.43 111.16 436.48 610.50 556.78 365.17 751.50 351.44 692.96 403.94 604.98 570.53 768.65 556.09
00003742 00000065 413.90 108.84 437.74 601.58 555.32 364.51 750.22 352.08 691.06 404.63 605.71 566.49 767.27 552.43
00003743 00000066 412.35 107.26 437.42 598.42 554.46 365.17 749.14 353.04 688.76 405.90 601.90 560.11 765.88 546.07
00003744 00000067 411.16 107.57 437.14 597.70 554.46 366.25 748.25 353.05 689.36 408.22 601.83 559.77 764.98 544.76
00003745 00000068 411.95 109.58 434.89 597.14 557.96 368.83 749.22 355.65 692.30 414.35 604.38 562.04 764.25 547.07
00003746 00000069 411.75 110.01 435.10 602.23 557.39 369.96 748.05 355.58 692.02 419.13 606.56 569.93 762.07 554.32
00003747 00000070 411.25 111.66 435.03 603.66 557.15 370.92 746.25 355.37 691.89 421.62 608.43 573.41 760.55 557.09
00003748 00000071 410.54 113.48 435.72 608.20 555.63 371.94 746.50 356.48 692.05 424.45 607.43 579.19 761.00 563.14
00003749 00000072 409.91 113.59 437.22 616.80 555.46 371.00 746.19 355.43 692.42 424.73 605.93 580.30 761.89 564.44
00003750 00000073 409.70 112.86 438.33 621.65 555.94 371.78 748.38 358.13 694.48 424.93 606.80 583.72 764.22 569.47
00003751 00000074 412.21 111.75 437.68 622.39 559.27 371.69 750.33 358.56 697.51 423.02 609.04 582.69 765.77 569.02
00003752 00000075 414.38 113.38 436.38 622.09 562.00 372.54 751.30 359.31 700.54 427.85 611.28 583.42 768.46 569.82
00003753 00000076 417.99 111.87 434.49 624.36 564.51 374.10 754.15 361.76 702.66 429.80 612.41 583.76 771.53 571.20
00003754 00000077 420.59 112.48 433.31 622.59 566.44 376.86 757.37 365.76 706.39 431.96 613.67 584.18 775.42 572.80
00003755 00000078 423.83 114.58 430.49 615.90 569.21 379.08 759.07 367.28 708.93 434.85 616.44 584.54 776.20 572.61
00003756 00000079 425.47 115.68 430.73 609.96 568.88 382.73 760.98 370.14 709.71 439.65 617.49 586.97 778.36 574.31
00003757 00000080 428.05 115.52 429.95 607.70 571.20 384.10 765.03 372.25 712.55 441.72 618.27 586.04 781.47 573.90
00003758 00000081 430.11 116.38 428.54 606.57 573.73 385.71 767.54 373.94 715.05 442.47 619.52 585.35 784.13 573.31
00003759 00000082 431.24 120.84 427.37 605.55 575.34 385.27 769.58 376.10 716.29 442.98 619.94 586.91 784.19 577.32
00003760 00000083 432.90 120.08 427.16 609.01 577.44 385.17 772.28 377.47 718.75 443.23 621.85 588.20 786.03 579.83
00003761 00000084 440.29 122.61 422.35 615.18 586.86 388.50 773.01 382.24 714.70 450.71 623.62 585.67 782.49 582.03
00003762 00000085 441.12 126.14 425.67 604.34 588.32 389.49 778.17 384.67 717.83 451.71 627.14 585.81 786.21 582.83
00003763 00000086 440.38 123.66 425.18 609.36 586.93 386.75 778.86 384.06 714.94 450.13 623.58 587.23 780.17 586.39
00003764 00000087 440.01 123.38 426.28 607.30 587.67 383.63 779.57 381.06 713.74 450.28 623.39 583.33 779.54 582.39
00003765 00000088 433.51 126.64 427.18 593.31 581.71 383.15 772.01 380.90 717.29 444.34 619.60 578.34 778.42 574.37
00003766 00000089 431.72 129.09 427.18 589.09 577.55 384.12 764.92 381.36 707.68 445.66 615.83 577.61 769.66 573.27
00003767 00000090 427.29 128.46 427.05 593.00 570.83 384.22 757.77 384.13 698.02 442.01 606.63 576.02 763.48 573.70
00003768 00000091 420.99 137.27 428.21 590.69 561.99 380.25 748.52 379.93 683.17 442.32 597.59 579.35 750.80 576.89
00003769 00000092 411.22 139.85 436.17 589.46 549.84 380.73 741.79 382.51 665.71 445.65 579.90 578.88 737.05 578.05
00003770 00000093 405.99 141.73 437.57 587.05 541.52 378.01 732.71 381.58 653.76 443.26 569.04 576.87 723.59 577.86
00003771 00000094 401.88 141.41 437.32 588.91 532.29 377.42 729.42 383.49 646.47 440.00 559.64 578.30 720.01 581.29
00003772 00000095 400.28 141.22 436.93 586.25 529.18 378.05 729.69 385.17 643.88 438.48 552.39 573.56 721.17 577.65
00003773 00000096 398.60 140.71 435.86 586.21 529.08 376.38 727.61 384.02 644.77 436.18 552.55 571.18 720.59 575.64
00003774 00000097 399.32 140.51 437.31 583.33 533.46 375.17 727.60 382.13 649.18 430.62 560.57 569.65 721.41 573.14
00003775 00000098 401.51 137.19 437.77 582.33 541.16 374.25 732.64 379.45 659.53 430.88 572.87 570.31 728.16 571.95
00003776 00000099 406.32 135.82 434.91 581.98 550.84 370.98 742.04 374.57 671.83 427.67 582.76 568.68 737.19 569.11
00003777 00000100 411.10 125.84 434.48 587.84 559.62 366.58 753.41 371.02 687.85 417.72 595.75 568.49 750.26 569.28
00003778 00000101 417.23 122.73 432.14 586.05 567.39 363.22 760.92 368.62 697.26 410.40 603.57 564.03 759.85 565.63
00003779 00000102 422.15 118.19 426.35 587.24 574.54 357.25 763.14 364.60 710.31 403.45 614.10 557.18 767.11 560.66
00003780 00000103 423.89 114.75 425.12 586.69 579.89 354.62 765.18 361.28 717.19 401.22 617.91 547.95 772.41 550.95
00003781 00000104 426.33 116.02 422.88 579.65 585.87 350.67 767.77 361.18 723.02 397.33 624.98 539.84 775.54 545.74
00003782 00000105 432.93 113.53 424.78 581.26 596.91 344.22 781.58 357.03 725.63 400.91 628.97 533.87 783.80 543.61
CROP_BBOX: 227 0 1282 1011
