Video ID: 	U-fZfB05AN0
H: 	1080
W: 	1920
FPS: 	25.0

FRAME INDEX X0 Y0 W H [Landmarks (5 Points)]

00003626 00000000 644.23 169.62 478.24 709.77 730.13 447.35 942.47 427.58 808.53 580.75 777.94 709.22 941.60 693.11
00003627 00000001 640.93 190.20 452.10 689.25 716.61 445.73 933.77 430.28 805.17 591.48 766.85 714.86 937.15 699.00
00003628 00000002 633.39 199.70 461.89 682.42 706.38 449.88 925.06 433.91 792.98 592.64 754.60 717.03 925.74 701.33
00003629 00000003 626.05 207.22 459.74 679.17 698.74 452.21 919.31 436.54 786.94 594.28 746.21 725.16 914.46 710.55
00003630 00000004 625.54 206.36 455.25 686.02 696.74 453.95 916.20 442.56 780.81 594.05 739.60 730.65 903.48 720.45
00003631 00000005 622.83 206.66 444.67 684.34 696.67 454.70 912.55 447.95 777.93 594.35 733.73 728.86 894.23 722.93
00003632 00000006 627.98 207.09 446.41 683.32 701.54 455.04 917.55 450.82 781.27 594.81 734.53 728.57 895.18 724.62
00003633 00000007 632.51 208.04 435.55 683.69 707.02 457.21 921.49 452.05 791.08 597.20 740.71 731.49 902.69 726.38
00003634 00000008 633.19 219.18 434.31 674.70 712.93 461.02 932.35 456.73 802.59 602.12 745.96 733.34 914.25 728.43
00003635 00000009 640.77 217.80 434.70 683.37 730.41 466.74 949.38 464.82 824.75 606.15 761.60 737.26 929.89 733.94
00003636 DELETE   641.90 217.51 452.34 673.27 740.56 474.40 967.48 464.47 847.49 604.36 775.70 737.76 939.65 727.56
00003637 DELETE   653.49 199.89 444.37 688.77 755.86 463.39 982.51 458.86 863.70 595.04 784.91 724.53 951.73 722.34
00003638 DELETE   659.65 210.00 455.79 673.40 770.10 454.58 999.15 447.21 887.07 582.94 803.89 718.95 976.30 713.35
00003639 00000013 663.73 196.20 459.24 686.09 784.10 449.11 1014.32 444.48 909.06 575.87 818.58 715.83 989.99 711.83
00003640 00000014 672.38 192.50 457.31 688.54 791.49 445.96 1026.02 440.62 920.69 573.17 828.44 717.25 1001.61 712.27
00003641 00000015 675.13 186.06 462.25 694.63 799.08 444.26 1033.62 435.42 932.68 572.62 840.82 717.82 1013.63 709.52
00003642 00000016 675.67 195.78 465.29 686.19 803.71 445.33 1038.37 436.68 942.47 568.27 846.21 718.18 1022.59 709.73
00003643 00000017 671.29 203.94 470.15 677.61 804.32 443.77 1040.79 434.86 948.00 570.28 851.40 717.31 1028.30 708.71
00003644 00000018 670.26 202.67 472.08 684.84 806.69 446.39 1041.51 438.20 952.10 571.99 852.21 719.68 1031.01 711.59
00003645 00000019 665.19 201.40 476.52 686.68 807.69 450.29 1042.83 442.86 954.38 573.85 852.73 721.65 1032.96 714.37
00003646 00000020 663.84 207.28 476.50 681.72 807.08 452.87 1042.70 445.86 955.85 579.22 851.68 723.18 1034.48 716.60
00003647 00000021 659.32 205.74 478.95 684.88 806.38 459.59 1039.66 452.26 955.57 581.23 849.49 724.87 1031.89 718.37
00003648 00000022 653.84 214.13 479.38 679.48 806.32 466.29 1032.02 459.02 952.92 582.00 849.19 726.02 1028.69 719.84
00003649 00000023 647.72 211.56 481.84 685.86 804.91 467.12 1028.71 460.78 950.87 585.32 847.26 728.44 1023.22 723.25
00003650 00000024 641.43 204.20 482.45 696.45 801.58 468.64 1024.48 463.23 947.82 588.85 842.63 731.62 1016.98 727.11
00003651 00000025 639.84 204.10 483.39 703.30 800.38 475.53 1020.94 470.05 942.91 592.60 838.68 738.03 1011.32 734.01
00003652 00000026 637.01 216.52 483.43 698.55 793.81 483.45 1014.88 472.86 934.64 596.82 831.87 746.19 1006.77 739.31
00003653 00000027 634.56 215.99 484.32 711.69 790.32 484.30 1011.62 473.01 930.91 597.50 830.85 752.55 1002.10 745.20
00003654 00000028 634.17 205.22 484.43 722.32 789.10 481.94 1010.41 472.81 928.91 594.86 827.69 753.97 997.08 748.25
00003655 00000029 633.22 204.29 486.07 720.78 787.34 478.56 1008.93 472.14 926.36 595.28 827.99 753.47 993.09 749.58
00003656 00000030 632.15 216.99 482.85 706.36 781.17 479.88 1002.97 472.88 916.96 601.82 828.56 756.29 986.85 751.67
00003657 00000031 629.88 207.97 480.19 723.85 775.87 482.33 995.51 472.05 908.74 604.40 824.74 760.45 981.47 753.48
00003658 00000032 625.17 215.79 479.04 721.23 765.48 486.49 987.35 470.78 898.11 609.44 818.86 765.51 976.52 754.16
00003659 00000033 627.01 217.19 477.90 723.17 760.83 491.63 981.78 472.46 890.29 611.69 816.48 769.67 974.73 755.66
00003660 00000034 628.51 218.99 474.11 714.71 758.40 494.80 978.69 471.60 888.29 612.12 816.32 768.13 974.90 750.85
00003661 00000035 629.84 224.38 477.62 699.25 756.06 496.26 978.59 469.64 886.60 613.47 814.78 761.35 981.08 741.04
00003662 00000036 635.49 218.58 479.72 702.12 756.76 496.96 984.45 467.85 891.32 615.22 810.15 754.86 997.51 732.01
00003663 00000037 640.63 224.67 482.15 700.25 762.36 495.66 994.49 467.48 900.51 615.45 815.65 754.64 1011.82 732.08
00003664 00000038 645.16 242.92 483.46 698.51 768.40 497.74 1003.63 469.26 909.48 620.97 828.16 762.16 1020.05 736.02
00003665 00000039 645.68 243.07 489.17 709.34 770.49 501.72 1008.65 471.29 912.94 624.72 828.41 769.39 1028.54 742.10
00003666 00000040 650.99 242.21 486.61 707.50 772.90 505.89 1012.41 476.68 915.47 629.57 830.43 769.66 1030.97 743.71
00003667 00000041 654.63 246.48 484.12 693.11 775.71 507.63 1015.46 478.81 918.31 632.40 834.32 765.99 1032.52 740.25
00003668 00000042 660.09 240.54 482.04 685.79 778.60 508.83 1020.51 480.16 921.83 633.30 838.63 764.52 1034.26 739.18
00003669 00000043 662.91 229.28 483.59 690.59 785.57 507.82 1025.70 479.76 929.83 635.05 843.02 764.54 1038.70 741.97
00003670 00000044 665.56 222.55 487.81 691.00 791.64 504.54 1030.83 475.77 934.95 630.05 848.19 759.82 1042.21 736.60
00003671 00000045 666.07 214.96 489.80 697.57 793.64 498.12 1032.14 469.43 938.03 624.70 851.98 759.36 1042.97 735.90
00003672 00000046 660.87 209.08 492.31 702.23 794.57 493.36 1033.94 464.52 944.52 623.04 855.22 757.45 1045.96 733.76
00003673 00000047 658.50 214.34 494.56 697.70 795.00 493.40 1035.50 464.28 947.44 623.72 856.07 756.95 1047.61 733.01
00003674 00000048 655.82 211.71 498.60 702.10 795.86 496.14 1037.20 465.72 951.41 628.24 857.46 759.51 1049.50 734.70
00003675 00000049 652.54 209.14 502.37 709.35 798.17 499.92 1038.06 467.39 955.43 631.60 860.61 763.05 1052.83 736.59
00003676 00000050 653.31 217.98 502.98 701.09 799.31 503.38 1039.77 468.83 957.58 635.53 862.84 765.76 1055.06 737.64
00003677 00000051 656.24 220.97 501.93 695.28 803.35 504.93 1042.98 469.02 962.11 635.75 868.80 767.10 1058.98 737.74
00003678 00000052 658.14 221.06 502.87 698.63 808.09 507.41 1045.71 471.44 965.66 636.52 874.33 770.46 1060.65 741.00
00003679 00000053 662.08 221.54 503.65 692.15 812.73 509.14 1050.54 472.65 970.12 638.53 880.12 771.53 1061.25 741.87
00003680 00000054 667.22 214.82 499.25 712.15 816.47 509.74 1058.06 476.49 972.65 639.62 878.46 772.27 1071.07 744.73
00003681 00000055 671.12 217.63 500.28 723.64 822.83 512.24 1063.75 480.09 978.91 641.72 883.84 776.31 1076.08 749.64
00003682 00000056 675.05 216.66 500.42 732.43 825.57 512.40 1069.30 479.45 982.92 642.04 887.39 780.30 1080.33 753.25
00003683 00000057 682.32 212.48 502.46 739.39 833.80 510.93 1075.05 478.21 991.71 640.84 897.17 782.87 1088.85 756.12
00003684 00000058 691.23 214.11 498.48 736.84 839.93 510.06 1078.10 479.06 996.05 642.45 905.27 785.22 1088.79 760.25
00003685 00000059 695.01 213.54 498.64 738.30 836.77 507.85 1078.34 473.24 995.73 650.29 906.77 788.71 1092.16 760.98
00003686 00000060 690.62 209.53 508.30 749.88 833.05 506.18 1078.61 472.00 992.87 661.22 908.25 793.17 1093.21 765.54
00003687 00000061 692.53 200.27 511.41 766.74 830.40 511.13 1077.30 477.43 986.53 667.14 905.36 800.43 1091.78 773.48
00003688 00000062 697.82 213.90 506.93 766.05 824.00 511.23 1070.50 478.39 977.60 666.04 903.61 811.85 1082.51 785.81
00003689 00000063 681.82 213.54 510.36 764.79 816.30 505.62 1064.15 471.38 975.28 658.48 902.60 811.87 1073.16 782.99
00003690 00000064 681.95 209.45 510.14 763.03 812.40 498.87 1057.12 464.76 964.83 649.32 896.95 806.53 1064.82 777.97
00003691 00000065 691.85 213.36 504.67 746.32 808.31 491.32 1054.45 460.85 955.23 642.41 888.67 789.23 1065.59 764.88
00003692 00000066 691.46 220.43 506.89 729.50 807.98 503.84 1050.95 469.62 950.30 642.34 879.96 779.30 1073.53 751.82
00003693 00000067 692.40 223.84 506.48 723.79 806.17 507.84 1048.98 473.54 945.22 646.37 878.95 779.05 1072.37 751.51
00003694 00000068 693.92 227.35 507.93 718.49 802.10 505.78 1048.40 469.10 943.35 645.83 882.60 783.13 1069.02 754.01
00003695 00000069 695.80 231.75 508.81 714.31 800.30 499.43 1046.96 467.47 938.74 645.19 881.20 783.86 1059.60 758.79
00003696 00000070 699.01 236.01 505.16 718.84 798.99 495.16 1044.25 465.70 933.60 642.51 878.62 789.09 1050.58 766.17
00003697 00000071 703.05 241.02 497.27 721.53 799.92 492.54 1042.74 465.17 931.74 638.29 876.63 789.77 1045.18 768.65
00003698 00000072 706.05 234.79 496.68 717.38 804.25 490.80 1043.21 463.01 932.00 631.51 878.55 780.50 1045.29 759.21
00003699 00000073 711.90 213.03 498.24 721.93 803.81 486.08 1045.23 457.19 924.86 625.25 871.29 770.18 1046.58 747.79
00003700 00000074 715.66 213.29 495.33 709.54 802.91 481.78 1044.86 452.17 921.62 618.77 865.25 761.17 1045.31 738.10
00003701 00000075 718.00 221.25 496.40 694.48 803.08 477.32 1046.75 448.71 920.61 615.08 864.74 753.58 1046.13 731.19
00003702 00000076 721.58 218.76 497.79 693.98 803.44 475.50 1048.54 446.95 918.70 613.19 862.27 749.72 1049.14 727.30
00003703 00000077 722.16 223.49 500.46 686.40 803.62 476.73 1048.03 448.14 917.56 612.84 862.68 746.40 1050.99 723.88
00003704 00000078 724.31 221.32 495.53 690.57 805.70 479.69 1045.74 452.21 917.43 617.21 863.22 748.42 1047.84 726.98
00003705 00000079 722.98 210.60 490.02 704.11 806.40 484.10 1042.59 458.73 915.29 621.33 861.36 752.27 1042.86 732.65
00003706 00000080 721.68 223.79 488.90 690.38 803.88 483.89 1042.00 460.83 913.66 625.39 861.19 754.28 1039.85 736.52
00003707 00000081 720.90 223.57 494.00 688.26 803.54 485.28 1040.53 461.95 911.29 622.00 859.27 752.45 1036.85 734.41
00003708 00000082 717.86 221.00 499.68 687.75 803.90 482.57 1032.24 454.14 902.04 613.26 857.67 748.30 1029.64 725.27
00003709 00000083 714.98 219.55 500.14 680.08 799.92 474.24 1026.24 444.54 897.82 604.78 855.45 740.34 1027.35 716.16
00003710 00000084 714.36 208.89 494.60 687.25 796.01 469.09 1017.41 437.80 886.87 593.82 849.96 736.95 1015.08 711.86
00003711 00000085 711.03 208.50 495.55 687.43 789.90 470.51 1009.05 434.40 875.09 587.14 844.06 739.47 1004.48 710.67
00003712 00000086 708.79 202.29 490.83 695.35 785.82 474.71 1005.41 433.74 870.72 588.12 845.90 741.79 1007.39 708.54
00003713 00000087 708.30 213.06 492.40 692.85 786.09 475.51 1004.10 434.02 871.62 589.02 850.56 747.16 1005.89 713.45
00003714 00000088 702.93 211.69 498.03 702.10 788.05 475.90 1003.23 437.07 875.00 589.15 855.97 754.59 1000.24 723.49
00003715 00000089 702.79 219.38 490.18 696.88 784.09 474.62 1003.74 442.77 880.17 603.21 852.49 755.17 997.22 729.88
00003716 00000090 704.57 213.06 487.71 699.31 785.16 477.68 1008.02 445.68 883.32 604.64 853.86 757.22 1001.65 732.15
00003717 00000091 702.17 212.42 493.93 697.50 783.21 477.70 1010.04 444.04 884.25 604.91 851.16 755.24 1007.77 728.40
00003718 00000092 698.95 213.43 509.16 695.23 784.81 476.87 1012.22 439.07 883.00 599.34 853.01 754.30 1015.75 723.58
00003719 00000093 695.52 214.81 504.59 689.07 781.77 474.94 1011.61 437.52 883.07 600.05 848.31 747.68 1016.51 717.26
00003720 00000094 692.07 214.66 504.38 689.93 781.08 474.64 1009.58 436.88 881.62 598.82 848.93 747.77 1014.34 717.03
00003721 00000095 688.39 212.88 505.76 691.70 775.61 475.23 1006.90 440.63 878.84 607.50 839.38 742.16 1016.75 713.03
00003722 00000096 681.79 204.02 516.35 702.50 773.45 473.94 1002.75 439.00 875.51 607.58 837.79 738.01 1020.90 707.97
00003723 00000097 677.67 215.31 525.89 686.46 769.13 476.67 995.56 428.11 872.67 598.17 841.19 738.46 1025.65 697.47
00003724 00000098 667.66 208.20 526.28 694.05 760.03 476.48 987.34 424.15 865.80 593.13 837.52 745.25 1012.38 701.68
00003725 00000099 661.74 204.12 526.07 702.37 752.80 476.47 974.01 430.80 854.11 594.87 832.11 746.27 990.28 707.50
00003726 00000100 657.23 204.44 528.85 696.90 747.87 479.68 965.80 433.24 843.87 590.51 825.04 747.12 976.03 707.67
00003727 00000101 649.80 198.72 535.47 699.59 736.51 483.20 954.87 429.93 830.25 591.70 815.52 747.24 972.31 702.17
00003728 00000102 641.62 206.18 527.27 692.44 725.63 491.44 940.93 431.88 822.05 596.72 808.03 750.34 966.78 700.40
00003729 00000103 631.37 231.60 522.78 669.08 714.55 498.98 940.89 446.93 821.04 613.85 797.50 751.98 965.37 709.81
00003730 00000104 626.44 231.84 532.01 681.08 713.07 504.54 936.91 450.95 820.36 623.02 804.62 759.12 969.61 715.67
00003731 00000105 629.55 235.15 529.49 690.14 716.23 506.41 939.06 450.21 826.02 625.99 811.96 766.73 977.10 721.15
00003732 00000106 637.63 223.75 540.12 707.76 729.70 507.07 943.79 445.33 831.26 617.91 825.58 771.68 986.21 719.22
00003733 00000107 641.07 218.39 540.41 713.17 737.34 504.92 955.09 445.51 844.57 618.05 829.74 769.42 997.64 718.57
00003734 00000108 648.83 216.10 543.08 713.46 743.26 504.91 964.94 445.54 850.90 620.79 834.25 767.66 1010.95 716.83
00003735 00000109 652.07 221.09 545.16 715.55 745.76 508.17 972.59 447.98 856.53 627.92 836.95 770.71 1020.37 719.66
00003736 00000110 664.83 219.34 534.17 727.83 752.49 512.50 975.74 450.94 856.63 630.52 842.24 778.48 1023.25 726.71
00003737 00000111 670.18 224.67 532.31 717.35 756.77 512.18 980.49 455.89 859.33 636.66 842.95 774.08 1022.86 726.92
00003738 00000112 675.43 222.33 536.83 722.06 761.70 512.83 986.48 456.62 866.82 637.47 850.88 774.03 1033.24 727.22
00003739 00000113 679.93 228.68 539.87 726.78 769.77 510.12 996.93 454.02 878.47 633.61 863.18 778.35 1044.43 731.68
00003740 00000114 690.29 234.62 538.46 727.21 778.31 510.73 1004.01 452.42 888.52 635.34 875.95 780.62 1057.90 732.32
00003741 00000115 696.67 233.71 534.22 721.13 780.95 510.89 1007.21 451.37 891.69 635.66 878.35 776.57 1064.64 727.46
00003742 00000116 697.06 233.83 533.15 706.34 781.23 511.87 1005.50 452.79 889.68 636.65 877.86 770.88 1062.45 722.17
00003743 00000117 697.40 234.38 536.03 697.75 779.54 512.62 1004.73 455.52 884.29 638.90 874.24 769.84 1056.21 722.97
00003744 00000118 699.17 242.69 530.51 684.76 780.58 513.44 1004.48 459.40 884.24 641.90 876.37 773.65 1047.06 729.73
00003745 00000119 705.09 244.62 522.26 683.74 786.68 515.63 1004.68 464.66 889.18 644.12 881.89 777.35 1039.52 736.38
00003746 00000120 704.06 246.78 525.37 692.44 793.98 514.08 1005.71 462.91 897.51 641.82 892.05 786.74 1041.74 742.43
00003747 00000121 712.87 259.53 529.13 676.14 809.85 520.19 1018.93 474.66 906.68 644.04 902.67 784.59 1046.22 744.34
00003748 00000122 738.06 258.76 517.63 670.23 819.32 523.21 1030.39 471.16 913.65 637.99 902.50 778.68 1059.16 735.27
00003749 00000123 740.75 245.60 515.36 679.25 825.12 516.47 1039.48 463.38 922.04 629.46 905.61 771.68 1066.61 727.43
00003750 00000124 743.19 227.93 520.05 697.00 830.23 505.46 1045.56 457.42 925.16 624.52 911.15 769.91 1066.50 730.17
00003751 00000125 751.97 224.98 514.49 702.35 835.53 503.14 1055.28 457.76 929.02 623.74 910.03 766.78 1074.69 729.09
00003752 00000126 754.72 219.89 513.26 708.34 837.54 500.30 1062.59 457.65 932.87 625.47 908.93 764.48 1083.42 728.95
00003753 00000127 753.34 218.16 518.87 723.86 838.46 500.22 1062.90 455.68 935.74 624.77 913.24 769.70 1089.53 732.74
00003754 00000128 753.61 218.62 515.94 721.26 837.90 500.28 1063.71 457.52 936.10 627.27 912.40 769.00 1090.51 733.50
00003755 00000129 753.49 223.54 518.74 706.23 834.83 499.34 1061.85 457.33 932.24 628.57 908.11 763.93 1090.79 728.92
00003756 00000130 752.34 224.24 517.34 701.79 833.50 498.71 1060.86 456.60 930.47 626.63 905.38 761.99 1088.44 726.75
00003757 00000131 750.59 219.70 512.57 702.33 832.13 496.95 1058.67 455.29 928.18 624.32 899.89 760.18 1083.17 725.07
00003758 00000132 747.27 217.99 515.40 703.80 829.52 494.80 1057.12 453.95 924.98 623.14 892.85 757.15 1080.11 722.44
00003759 00000133 742.81 219.00 511.94 704.70 824.18 491.79 1052.52 451.56 921.34 621.97 887.59 758.10 1074.47 723.98
00003760 00000134 736.29 220.82 510.91 700.28 818.93 490.37 1046.17 451.18 916.34 621.95 883.37 758.64 1066.25 725.63
00003761 00000135 727.66 216.69 516.21 707.64 812.02 489.94 1037.44 453.57 908.56 622.71 879.83 762.32 1053.79 731.78
00003762 00000136 719.84 229.37 503.73 694.65 798.48 493.11 1031.54 460.20 904.45 630.13 871.61 764.63 1043.85 738.88
00003763 00000137 714.09 234.23 499.34 692.23 792.98 497.66 1027.90 464.13 904.17 636.29 863.89 768.07 1038.46 741.96
00003764 00000138 711.07 228.65 498.54 701.04 790.47 496.80 1027.95 467.74 902.87 645.49 857.10 768.29 1036.62 745.70
00003765 00000139 712.12 223.30 485.30 702.90 789.46 495.09 1028.38 470.95 900.69 649.11 849.31 767.31 1032.03 748.66
00003766 00000140 710.43 217.51 488.49 701.94 789.87 492.05 1027.68 466.77 895.34 632.57 844.00 758.82 1028.04 739.25
00003767 00000141 717.54 206.31 475.38 700.51 799.38 478.56 1035.42 460.69 899.26 615.07 843.07 743.58 1029.54 729.71
00003768 00000142 723.30 192.20 476.88 702.48 807.35 460.66 1043.44 447.13 911.35 596.08 845.30 725.11 1035.80 714.29
00003769 00000143 723.35 191.97 481.60 702.05 817.03 447.20 1053.86 434.42 921.47 578.07 850.23 713.15 1043.73 702.90
00003770 00000144 726.26 192.87 475.30 699.53 821.99 438.88 1061.14 431.20 926.64 567.69 849.80 709.53 1042.03 703.55
00003771 00000145 727.50 185.92 471.85 698.11 824.62 433.41 1064.61 429.34 929.92 561.57 848.79 703.66 1035.03 700.66
00003772 00000146 730.10 184.96 473.17 694.42 829.01 433.43 1070.25 429.26 937.00 559.54 852.62 697.68 1045.52 694.03
00003773 00000147 733.23 193.86 473.98 686.28 834.57 436.06 1072.90 432.46 944.13 562.78 858.10 697.31 1051.48 693.87
00003774 00000148 735.95 203.18 472.77 679.20 834.33 438.01 1071.80 432.73 943.84 567.51 862.90 705.76 1045.64 701.69
00003775 00000149 738.30 195.21 476.83 692.77 833.01 444.68 1072.96 437.10 943.03 573.90 864.42 716.80 1047.55 711.57
00003776 00000150 736.21 194.35 478.20 696.82 829.82 451.29 1071.40 441.82 940.03 580.16 863.25 723.53 1046.76 716.72
00003777 00000151 736.19 195.23 472.49 693.68 827.11 453.00 1067.69 446.12 935.03 587.62 859.85 725.62 1038.59 721.08
00003778 00000152 732.98 195.08 473.52 703.61 823.94 456.88 1063.62 452.91 930.90 597.73 853.54 727.89 1035.60 725.77
00003779 00000153 727.67 193.94 470.98 715.42 818.62 460.55 1060.21 459.56 925.11 607.14 843.81 732.67 1030.15 733.16
00003780 00000154 726.04 205.08 469.53 713.11 816.87 462.74 1060.27 464.13 920.17 613.05 842.14 741.67 1026.50 744.30
00003781 00000155 725.05 217.66 465.75 706.41 814.72 468.91 1057.58 472.05 918.53 620.14 838.32 745.78 1026.31 749.76
00003782 00000156 722.44 217.98 469.32 707.03 811.37 472.38 1055.23 475.39 914.77 625.65 835.24 749.69 1022.08 753.49
00003783 00000157 719.67 212.42 472.87 715.69 808.28 474.96 1051.86 477.55 911.80 628.85 832.93 754.21 1017.35 757.58
00003784 00000158 713.46 216.40 475.47 716.96 805.59 475.87 1049.52 479.58 912.40 632.78 830.35 754.33 1016.61 758.79
00003785 00000159 708.10 214.37 473.04 726.49 800.84 476.24 1046.35 477.21 909.64 633.11 826.37 753.77 1018.30 755.66
00003786 00000160 701.46 220.32 479.68 736.85 800.27 473.51 1041.51 476.02 906.37 631.66 828.31 758.90 1017.80 760.32
00003787 00000161 698.62 222.57 470.12 728.99 795.21 481.19 1038.77 478.81 905.51 634.00 824.95 767.21 1016.43 763.03
00003788 00000162 697.34 225.91 466.38 719.93 791.11 483.64 1033.12 482.12 899.82 638.94 819.68 764.12 1015.04 760.81
00003789 00000163 694.76 227.53 466.27 712.62 788.15 485.40 1029.64 484.73 896.92 643.48 816.04 760.71 1011.69 758.19
00003790 00000164 693.51 224.06 472.18 711.51 787.30 486.11 1030.05 489.29 893.46 646.56 813.96 759.74 1006.12 760.90
00003791 00000165 689.73 217.93 472.62 723.01 785.75 486.32 1028.95 489.14 894.32 649.30 812.54 760.97 1006.41 761.82
00003792 00000166 686.81 222.90 475.21 721.73 785.62 489.66 1030.04 491.68 897.62 652.88 812.55 762.59 1007.99 763.04
00003793 00000167 683.14 225.14 477.69 724.77 785.25 492.96 1029.78 494.27 899.65 655.42 811.53 764.01 1010.12 764.01
00003794 00000168 679.75 226.02 480.02 727.58 785.43 495.15 1030.82 496.51 901.43 659.73 812.02 767.17 1011.57 767.28
