Video ID: 	t8-XkesCYfQ
H: 	1080
W: 	1920
FPS: 	29.97002997002997

FRAME INDEX X0 Y0 W H [Landmarks (5 Points)]

00020736 00000000 679.58 233.97 477.55 699.18 853.76 502.33 1071.96 523.31 981.28 656.89 855.16 759.17 1024.28 775.41
00020737 00000001 680.74 237.13 479.66 704.59 858.85 504.41 1073.80 526.69 983.47 660.21 858.07 766.66 1020.97 784.06
00020738 00000002 682.75 238.03 479.34 702.94 861.25 503.75 1074.29 527.03 984.07 658.62 861.08 766.43 1021.18 784.62
00020739 00000003 686.48 231.26 474.82 697.72 863.14 502.02 1078.77 525.70 986.20 650.24 855.35 748.45 1023.02 769.63
00020740 00000004 687.45 224.85 475.81 694.08 864.75 493.58 1082.03 518.98 989.18 642.40 857.32 738.20 1029.38 760.40
00020741 00000005 689.61 219.49 475.05 688.94 867.53 485.86 1082.95 512.44 991.28 633.58 860.89 729.10 1032.75 751.99
00020742 DELETE   688.82 213.78 476.16 686.79 871.35 476.76 1083.63 507.43 991.86 624.66 861.33 721.15 1029.14 747.44
00020743 DELETE   688.54 206.89 472.10 684.80 868.56 473.98 1073.83 494.01 989.48 618.09 868.90 723.06 1032.20 739.48
00020744 00000008 686.26 204.07 473.05 684.65 863.52 465.19 1072.46 486.96 986.37 608.13 864.19 717.19 1028.58 734.92
00020745 00000009 685.08 199.60 472.54 689.01 858.57 458.40 1069.68 479.97 982.44 602.68 861.30 716.51 1024.40 734.17
00020746 00000010 683.85 197.28 470.50 688.94 855.07 456.10 1065.68 475.50 980.05 592.94 860.08 713.97 1022.40 729.98
00020747 00000011 682.71 196.23 468.90 688.05 849.95 454.91 1063.92 472.91 977.61 587.72 855.79 711.45 1021.71 726.21
00020748 00000012 681.00 193.95 466.43 683.58 843.62 455.21 1062.40 473.02 973.63 585.34 847.76 707.10 1021.67 721.59
00020749 00000013 679.81 194.99 464.18 678.27 837.22 456.63 1061.72 475.57 967.96 587.14 836.57 700.73 1025.90 716.23
00020750 00000014 675.19 199.15 466.51 680.14 836.60 460.61 1058.80 481.76 966.14 593.35 831.61 700.72 1024.14 718.43
00020751 00000015 671.78 202.01 467.63 686.75 835.53 466.67 1055.59 489.94 962.93 604.06 828.50 707.34 1021.22 727.00
00020752 DELETE   669.81 205.59 468.10 697.82 834.82 474.17 1049.85 494.73 960.01 613.96 832.24 719.92 1017.39 737.07
00020753 00000017 667.10 209.93 471.61 706.90 832.31 480.53 1048.81 503.78 956.36 624.61 828.55 731.92 1012.03 751.47
00020754 00000018 666.27 213.91 473.53 708.91 830.94 485.82 1048.70 511.42 951.08 634.42 820.42 734.60 1008.73 756.35
00020755 00000019 667.05 220.39 473.36 697.79 829.60 492.39 1050.39 517.83 948.45 643.67 818.29 734.53 1009.39 756.36
00020756 00000020 667.72 225.68 472.35 689.11 830.47 497.40 1051.89 522.47 948.31 649.65 816.06 732.67 1011.11 754.44
00020757 00000021 669.45 230.55 470.61 685.33 828.46 500.38 1054.32 525.41 947.25 652.97 812.30 733.53 1015.73 755.45
00020758 00000022 669.73 232.25 474.01 690.04 828.99 501.34 1054.57 526.28 947.76 654.05 814.14 735.86 1018.17 757.62
00020759 00000023 671.46 232.88 474.77 692.36 829.38 500.45 1056.21 527.31 948.31 653.68 810.41 731.82 1022.50 754.98
00020760 00000024 673.21 233.36 474.92 688.19 831.34 497.93 1057.81 524.42 950.41 650.74 811.56 725.45 1028.02 748.26
00020761 00000025 675.08 231.76 474.04 683.28 832.65 494.01 1058.64 518.45 952.33 645.40 814.62 720.55 1031.00 741.65
00020762 00000026 676.58 227.11 472.23 678.90 834.25 490.50 1060.04 512.23 955.94 639.92 821.99 720.33 1031.11 739.11
00020763 00000027 680.32 220.84 470.05 681.42 837.77 486.44 1060.32 504.81 959.84 634.60 833.65 724.97 1030.44 740.60
00020764 00000028 682.41 214.38 469.15 684.12 840.97 480.36 1060.20 499.88 962.31 626.75 841.23 725.55 1027.22 741.91
00020765 00000029 683.12 211.12 468.03 682.65 845.44 472.13 1059.85 492.55 965.23 617.39 849.86 725.02 1018.79 741.84
00020766 00000030 684.61 208.01 467.59 680.00 846.27 465.43 1060.04 485.84 965.99 604.80 852.32 719.51 1017.15 736.01
00020767 00000031 686.74 200.84 466.14 678.16 847.89 456.33 1061.95 477.53 967.02 593.44 853.63 710.44 1016.69 727.52
00020768 00000032 685.15 193.30 467.57 672.77 846.57 450.77 1060.47 468.44 969.15 579.31 857.30 702.26 1016.94 716.00
00020769 00000033 686.17 187.53 467.57 672.68 848.16 445.77 1062.56 464.07 970.82 573.11 859.25 696.93 1019.13 711.12
00020770 00000034 686.16 185.71 470.34 673.33 848.22 445.05 1063.00 463.55 971.23 571.30 858.18 694.87 1020.86 709.19
00020771 00000035 684.33 185.65 471.42 677.79 847.85 446.56 1063.67 465.02 973.02 574.67 856.67 695.78 1022.82 710.17
00020772 00000036 682.82 185.59 471.36 678.19 844.68 447.71 1066.81 467.35 973.89 577.50 851.63 695.40 1026.83 710.96
00020773 00000037 680.97 184.56 471.74 677.55 844.36 447.48 1068.94 465.09 976.48 577.87 851.01 689.83 1035.35 703.60
00020774 00000038 681.26 185.83 470.27 672.47 848.53 445.42 1066.69 463.62 978.70 573.35 852.20 682.89 1034.68 697.39
00020775 00000039 681.53 185.33 470.82 672.29 848.26 443.26 1068.25 461.99 979.55 571.84 847.41 679.61 1037.91 694.80
00020776 00000040 681.94 184.43 470.02 672.62 849.20 443.51 1068.32 462.14 979.73 572.24 846.56 678.91 1037.83 694.16
00020777 00000041 680.89 183.93 469.27 677.11 848.73 444.99 1068.60 464.52 981.09 577.40 843.14 680.55 1038.96 696.93
00020778 00000042 681.66 189.65 468.30 678.35 848.97 448.73 1068.41 469.16 979.61 583.88 838.65 682.72 1040.38 700.54
00020779 00000043 683.23 194.08 465.92 684.39 851.85 450.28 1067.68 473.12 978.38 587.90 839.95 689.42 1035.88 709.03
00020780 00000044 685.37 193.17 466.97 693.75 856.77 449.16 1069.34 472.55 981.31 584.88 845.51 694.47 1035.64 714.27
00020781 00000045 686.97 191.89 468.01 702.81 860.72 450.01 1072.78 472.71 986.87 582.45 854.48 704.20 1036.52 723.42
00020782 00000046 688.95 191.54 466.36 706.11 862.37 451.69 1074.32 472.76 990.80 583.67 859.97 712.13 1036.26 729.97
00020783 00000047 688.12 192.75 468.73 707.62 862.57 454.54 1075.33 473.18 994.25 587.87 863.07 717.91 1037.46 733.84
00020784 00000048 688.84 194.44 466.18 703.98 865.01 456.77 1077.19 475.78 996.60 592.11 866.11 719.74 1039.06 735.97
00020785 00000049 688.92 194.07 465.57 698.06 866.12 457.63 1078.76 475.88 998.69 591.85 868.34 718.05 1040.26 733.62
00020786 00000050 688.67 196.66 464.83 683.66 866.78 457.56 1079.58 474.05 1001.54 588.21 872.49 711.34 1042.40 725.13
00020787 00000051 688.41 195.15 465.50 673.78 865.87 458.78 1082.06 473.98 1003.69 586.38 873.89 704.93 1048.74 717.54
00020788 00000052 689.22 195.05 465.61 672.58 866.89 459.32 1083.23 472.98 1005.24 588.14 876.41 705.23 1051.88 716.49
00020789 00000053 689.13 195.37 466.26 670.24 866.81 460.48 1083.27 473.24 1005.48 589.60 877.73 705.92 1053.14 716.39
00020790 00000054 688.85 196.39 466.31 669.88 866.60 460.35 1082.72 473.81 1005.14 588.26 875.73 703.84 1053.02 715.14
00020791 00000055 688.19 196.86 467.11 670.06 866.25 460.03 1082.22 473.52 1004.83 586.86 875.82 704.28 1052.30 715.56
00020792 00000056 688.95 196.88 465.01 676.66 867.17 460.18 1081.14 473.54 1003.63 588.92 874.46 707.51 1049.66 718.81
00020793 00000057 688.97 198.87 464.57 677.69 868.89 460.98 1078.13 474.46 1003.23 590.79 878.84 713.79 1043.34 725.06
00020794 00000058 688.68 198.84 464.39 678.64 868.47 461.09 1077.31 474.14 1003.07 590.57 880.73 716.16 1042.99 727.03
00020795 00000059 687.51 199.19 465.17 678.90 867.81 460.59 1076.81 474.52 1003.04 588.33 881.44 715.54 1043.51 727.11
00020796 00000060 686.44 199.60 466.77 680.68 867.00 460.10 1076.07 473.62 1002.16 588.07 881.62 716.51 1043.46 727.70
00020797 00000061 686.10 200.21 466.91 682.06 866.10 460.30 1074.85 473.60 1000.73 590.28 880.38 718.32 1041.78 729.38
00020798 00000062 686.34 199.50 466.74 683.62 866.01 461.27 1074.93 474.51 1000.68 591.09 879.97 719.36 1041.57 730.39
00020799 00000063 686.50 199.43 466.56 682.39 867.24 461.14 1075.89 474.56 1002.21 590.32 881.51 718.93 1042.78 730.05
00020800 00000064 686.91 199.67 466.28 681.82 867.36 461.04 1075.87 474.34 1002.40 590.51 882.56 719.51 1042.80 730.53
00020801 00000065 687.09 200.62 465.64 681.76 867.56 462.16 1076.00 474.83 1002.80 592.95 883.01 721.62 1043.14 732.11
00020802 00000066 687.53 201.31 465.36 680.92 866.62 462.82 1076.51 475.76 1001.16 594.48 880.19 722.29 1042.27 733.08
00020803 00000067 687.46 201.32 465.21 674.83 866.94 462.43 1076.49 475.86 1000.81 592.26 879.67 716.94 1042.39 728.15
00020804 00000068 686.27 201.03 465.98 670.77 866.36 461.29 1075.15 475.40 999.60 588.44 878.73 710.99 1042.42 722.65
00020805 00000069 683.02 200.41 469.16 670.92 863.30 460.80 1073.89 476.22 997.11 588.36 873.23 707.88 1040.00 720.68
00020806 00000070 680.97 199.74 469.73 673.49 860.00 460.79 1071.85 475.63 994.34 590.75 868.80 707.75 1038.69 720.06
00020807 00000071 677.42 200.90 470.37 673.56 857.13 460.14 1068.50 475.73 991.11 593.29 865.45 707.68 1035.49 720.55
00020808 00000072 674.64 199.00 470.32 673.77 853.01 460.28 1066.07 476.82 988.27 592.13 861.90 706.62 1033.90 720.16
00020809 00000073 671.55 196.97 472.25 674.22 849.39 459.54 1064.62 476.55 985.37 590.62 858.27 702.98 1034.64 716.70
00020810 00000074 669.18 194.70 473.78 673.64 848.17 458.46 1063.55 475.54 984.35 588.12 857.21 700.22 1033.58 713.91
00020811 00000075 670.23 194.58 471.63 672.24 848.17 458.85 1062.54 475.80 983.69 586.62 858.60 700.73 1032.69 714.14
00020812 00000076 670.44 196.26 471.46 671.97 848.94 459.71 1061.89 477.00 983.25 589.57 858.62 703.71 1030.88 717.52
00020813 00000077 672.46 199.28 468.64 671.73 847.49 461.76 1061.20 479.19 981.82 593.97 857.09 708.51 1029.45 722.52
00020814 00000078 670.69 202.11 469.20 673.39 847.53 465.49 1060.89 483.29 981.40 599.24 855.54 712.18 1029.55 726.75
00020815 00000079 668.29 202.17 468.46 678.80 847.87 468.15 1059.14 486.55 980.36 605.49 852.82 717.09 1025.22 732.46
00020816 00000080 665.56 203.64 470.65 690.28 847.01 468.92 1056.96 488.28 978.49 606.83 851.06 723.36 1023.31 739.59
00020817 00000081 661.28 204.50 474.79 697.17 844.86 469.88 1054.28 490.80 975.30 606.15 846.33 725.82 1018.28 743.68
00020818 00000082 657.23 204.74 477.09 698.46 843.04 470.40 1052.10 493.74 971.79 606.14 842.03 726.35 1013.00 746.44
00020819 00000083 653.90 205.10 477.49 691.21 839.28 470.59 1049.06 493.65 967.81 607.11 838.01 724.55 1008.08 744.56
00020820 00000084 651.47 204.74 476.75 684.17 834.93 469.35 1046.72 493.31 964.06 605.20 834.04 717.87 1006.00 738.33
00020821 00000085 648.29 203.00 476.57 681.41 830.41 467.49 1043.70 493.47 959.31 603.54 826.27 711.36 1002.02 733.25
00020822 00000086 644.28 202.78 478.70 680.79 825.97 465.35 1041.02 491.26 955.02 600.44 820.59 707.73 1000.08 729.49
00020823 00000087 641.76 202.99 477.50 680.07 821.95 464.52 1037.82 490.17 950.52 598.69 817.20 706.81 996.88 728.30
00020824 00000088 637.20 202.50 478.47 681.40 819.57 465.42 1032.94 490.92 946.68 601.07 815.29 709.68 989.83 731.11
00020825 00000089 634.90 203.90 476.36 682.98 816.66 466.93 1029.79 493.21 943.58 602.78 811.31 711.74 984.93 734.00
00020826 00000090 631.61 201.69 475.22 692.62 814.23 467.13 1026.45 495.09 941.38 602.10 809.61 715.83 979.64 739.52
00020827 00000091 629.20 203.26 474.14 694.49 813.99 467.55 1024.87 495.25 940.68 604.27 811.04 720.51 976.56 744.11
00020828 00000092 625.97 204.90 475.03 693.22 811.09 466.68 1024.26 495.72 938.28 603.88 805.88 718.91 976.17 743.50
00020829 00000093 624.13 203.86 475.21 691.22 806.68 464.87 1022.02 494.84 933.95 603.03 799.83 713.30 976.51 738.37
00020830 00000094 622.53 204.15 475.69 686.51 804.30 463.44 1019.50 493.55 930.35 601.92 797.12 708.28 975.94 733.35
00020831 00000095 622.54 199.61 476.15 685.65 798.83 466.83 1019.05 487.29 927.81 602.39 798.21 708.79 976.03 726.33
00020832 00000096 620.84 199.06 475.31 686.37 797.35 466.15 1016.84 486.38 925.83 602.07 796.57 708.15 973.55 725.44
00020833 00000097 620.60 200.75 472.58 685.51 800.12 465.06 1009.91 483.34 925.18 603.34 800.05 713.47 973.04 728.36
00020834 00000098 616.82 203.54 470.29 681.91 797.30 473.52 1002.30 491.83 921.16 606.38 798.73 715.49 966.41 730.18
00020835 DELETE   617.16 205.38 466.89 678.84 795.86 475.74 999.28 493.17 918.68 604.79 800.46 718.03 963.11 731.95
00020836 00000100 615.96 204.28 467.41 678.54 792.31 474.06 998.65 490.79 917.35 602.34 799.85 718.01 962.88 731.49
00020837 00000101 613.79 205.29 467.29 673.27 789.17 471.27 996.85 487.79 916.49 599.11 798.46 714.74 961.57 727.97
00020838 00000102 614.14 201.71 468.19 673.67 787.65 468.21 996.83 484.13 915.25 596.73 798.18 713.41 961.93 726.09
00020839 00000103 613.54 199.75 468.35 675.59 786.97 464.43 995.46 480.21 913.73 596.11 797.64 712.87 959.53 725.38
00020840 00000104 613.04 197.31 469.16 679.66 783.78 462.50 995.03 478.56 911.38 596.72 794.38 713.35 958.34 726.07
00020841 00000105 611.41 198.15 468.25 683.22 781.89 462.82 993.80 477.33 910.47 597.16 791.35 714.19 958.92 725.65
CROP_BBOX: 346 0 1428 1080
