Video ID: 	HtVgvw5o5EQ
H: 	1080
W: 	1920
FPS: 	25.0

FRAME INDEX X0 Y0 W H [Landmarks (5 Points)]

00008664 00000000 543.76 117.93 422.60 582.88 630.80 378.02 820.04 378.94 708.35 481.51 652.67 568.79 812.87 569.17
00008665 DELETE   546.20 113.09 417.47 582.72 624.76 372.02 810.84 373.65 695.82 472.34 643.64 565.18 800.26 565.76
00008666 00000002 546.39 104.77 416.70 585.54 621.87 362.42 805.86 365.78 686.77 463.75 637.90 557.94 794.07 559.57
00008667 00000003 548.96 99.99 417.31 585.11 621.12 356.90 805.20 361.12 681.57 455.07 633.77 552.47 790.41 554.51
00008668 00000004 552.73 99.40 415.30 583.24 623.09 350.99 804.36 356.73 678.49 449.95 634.96 547.48 787.50 550.81
00008669 00000005 561.87 98.64 413.20 587.14 627.12 349.10 802.83 354.55 674.53 448.21 637.75 547.64 786.76 550.58
00008670 00000006 571.33 98.10 412.00 591.31 636.42 349.96 807.42 354.85 677.93 445.33 645.32 547.38 789.99 550.33
00008671 00000007 581.82 95.71 419.57 602.29 650.51 350.06 818.20 351.64 695.38 442.47 662.22 551.41 795.29 552.32
00008672 00000008 604.65 96.76 407.89 599.01 665.71 349.22 831.21 352.83 708.85 442.12 672.49 548.42 803.10 551.69
00008673 DELETE   618.92 98.20 409.45 594.32 681.05 350.08 846.32 354.60 722.39 442.83 688.51 549.88 820.29 553.16
00008674 00000010 630.84 101.12 407.07 588.13 696.63 349.63 866.86 358.58 737.57 442.75 698.16 546.36 835.74 553.19
00008675 00000011 636.54 103.26 410.72 581.61 704.10 348.59 879.85 361.70 745.99 442.41 701.81 542.70 848.19 552.45
00008676 00000012 638.79 104.47 411.60 578.12 707.33 347.68 884.54 360.65 749.46 441.23 705.29 540.25 854.73 550.01
00008677 00000013 636.28 103.84 413.65 579.39 706.38 347.02 883.67 359.28 750.13 440.79 705.66 541.00 854.63 550.06
00008678 00000014 635.15 103.90 412.05 578.77 702.90 349.17 878.96 359.25 746.68 440.82 703.77 543.79 849.78 551.02
00008679 00000015 633.04 103.09 411.70 578.68 700.04 348.50 877.01 358.66 744.85 441.29 702.02 543.55 849.56 550.71
00008680 00000016 631.77 100.76 411.33 580.62 698.42 348.57 876.02 357.20 744.79 441.66 701.83 544.63 849.87 550.55
00008681 00000017 631.21 100.05 411.62 580.28 697.66 347.03 875.94 355.93 744.04 439.77 700.52 543.65 850.37 549.68
00008682 00000018 630.07 98.95 412.69 579.02 697.88 344.86 878.83 353.19 746.29 436.46 698.58 542.07 852.12 547.52
00008683 00000019 628.87 98.15 414.18 577.86 699.35 342.75 881.72 351.69 749.09 432.67 699.00 538.29 855.68 544.22
00008684 00000020 628.48 96.95 415.89 578.42 699.94 339.91 885.16 349.84 750.93 428.45 698.85 536.24 858.77 542.95
00008685 00000021 630.50 97.63 418.07 572.87 700.69 345.38 884.38 347.09 751.50 429.11 704.14 534.49 857.67 536.30
00008686 00000022 629.29 95.42 419.67 575.55 701.93 344.42 885.39 347.48 752.84 428.08 704.12 531.51 859.44 534.27
00008687 00000023 628.47 95.40 414.19 577.60 704.82 338.51 888.72 351.11 757.78 427.06 703.62 527.69 864.09 536.92
00008688 00000024 628.25 95.72 414.25 576.76 704.49 337.92 889.57 350.87 758.07 426.61 703.06 526.14 866.11 535.66
00008689 00000025 626.51 96.70 414.27 578.84 703.52 337.69 888.57 350.81 757.39 427.02 702.34 527.35 865.36 537.04
00008690 00000026 624.13 99.85 415.51 578.60 702.46 337.72 882.72 349.18 755.41 429.74 704.83 532.93 854.79 541.67
00008691 00000027 623.38 98.12 414.93 582.98 700.04 339.32 881.92 349.17 753.13 431.03 700.26 536.77 853.21 544.03
00008692 00000028 620.62 97.67 413.92 583.80 697.43 338.70 879.13 347.11 752.00 431.92 700.32 539.08 851.76 545.37
00008693 00000029 620.34 97.51 410.63 590.48 696.74 337.63 873.56 345.19 749.44 432.56 701.82 542.72 844.93 548.86
00008694 00000030 618.41 95.18 411.11 594.41 694.96 337.43 870.49 344.28 748.18 433.19 702.29 543.49 843.90 549.04
00008695 00000031 616.83 96.06 412.01 586.19 692.73 339.34 869.68 345.97 746.30 431.98 698.53 540.79 845.09 545.70
00008696 00000032 614.93 94.89 412.41 585.99 691.99 338.32 868.55 345.05 745.73 430.41 696.29 538.19 844.15 543.20
00008697 00000033 612.00 93.23 414.43 589.55 689.69 336.24 865.80 341.57 743.79 428.64 694.88 540.03 840.00 544.15
00008698 00000034 611.16 90.95 413.37 606.03 689.24 333.96 861.89 336.23 741.42 426.31 697.02 545.32 835.37 547.68
00008699 00000035 609.37 92.99 411.94 613.06 687.20 336.90 859.98 337.18 740.01 427.90 697.18 552.61 833.42 553.69
00008700 00000036 607.49 95.62 409.62 612.54 684.86 341.63 856.53 341.12 740.41 432.08 697.15 554.80 831.25 555.49
00008701 00000037 603.31 87.08 410.38 604.02 677.82 343.08 854.05 347.03 733.72 436.12 687.02 547.88 825.02 551.54
00008702 00000038 593.97 98.19 414.57 573.77 679.55 344.28 864.64 351.26 742.53 436.54 690.10 533.53 844.31 539.32
00008703 DELETE   595.37 95.16 415.64 566.63 689.01 341.29 879.23 344.87 763.69 429.53 700.96 528.32 862.59 531.38
00008704 00000040 608.17 96.77 420.33 565.18 711.13 335.35 905.14 337.29 802.86 421.62 723.61 517.57 898.45 519.52
00008705 DELETE   621.53 97.22 421.34 561.72 732.20 325.35 928.11 324.99 837.60 411.61 752.19 511.15 929.77 510.35
00008706 00000042 627.35 97.44 425.94 564.26 750.91 324.22 944.97 324.57 863.19 411.71 772.22 512.33 948.20 511.34
00008707 00000043 626.55 93.37 428.41 580.42 758.53 327.62 945.86 329.26 870.74 416.42 788.75 526.83 945.53 526.37
00008708 00000044 626.01 95.12 426.96 584.17 758.81 330.35 946.15 335.13 870.40 422.32 789.76 536.45 939.15 539.13
00008709 00000045 623.87 94.98 425.59 583.58 755.59 331.57 943.52 334.03 867.98 423.78 788.86 538.04 938.15 538.92
00008710 00000046 623.35 94.48 422.74 576.96 755.14 331.08 944.14 332.95 868.86 422.99 788.28 535.58 938.01 536.03
00008711 00000047 623.03 92.80 422.74 576.87 754.41 330.63 945.69 332.66 869.53 422.73 785.85 532.58 941.04 533.01
00008712 00000048 623.29 91.70 425.49 576.09 755.03 331.04 948.97 334.87 870.43 423.61 784.43 531.06 943.72 532.79
00008713 00000049 623.28 90.28 429.06 584.13 756.18 332.50 951.77 337.81 870.64 424.86 781.68 529.34 948.26 532.41
00008714 00000050 625.44 92.45 426.88 581.12 758.81 334.13 951.79 340.58 870.72 425.47 783.38 528.20 947.82 532.34
00008715 00000051 626.13 93.87 426.62 579.19 758.84 334.54 952.59 340.67 871.04 425.44 783.69 528.53 949.10 532.44
00008716 00000052 625.61 93.55 426.45 579.72 758.02 334.61 951.83 340.40 870.45 425.42 783.35 529.42 948.39 533.00
00008717 00000053 624.20 93.77 426.45 580.66 755.73 333.12 950.80 339.00 869.08 424.12 781.91 530.74 946.63 534.31
00008718 00000054 623.44 93.63 425.97 584.37 753.12 331.53 948.77 337.95 865.81 422.26 779.48 533.49 942.32 537.38
00008719 00000055 622.17 93.19 425.81 588.82 752.24 332.08 944.89 337.54 863.81 423.64 777.51 535.22 937.69 538.40
00008720 00000056 621.13 92.71 423.37 589.74 750.59 331.36 940.67 336.59 861.17 422.78 775.11 534.12 932.72 537.27
00008721 00000057 619.61 91.43 422.16 592.57 748.11 330.36 938.38 335.04 859.67 420.80 770.85 532.69 930.73 535.48
00008722 00000058 618.31 90.19 418.05 591.39 744.83 329.63 935.61 334.18 857.77 421.06 768.48 533.77 928.72 536.58
00008723 00000059 616.15 88.16 416.10 595.04 741.64 327.70 932.09 330.65 855.82 422.37 767.19 536.79 926.37 538.52
00008724 00000060 612.39 89.87 417.94 592.91 734.06 330.87 927.06 330.54 846.89 422.80 761.30 541.21 920.89 540.30
00008725 00000061 606.28 93.40 418.06 582.41 725.66 336.88 911.22 331.85 830.41 427.63 756.81 539.91 905.81 535.79
00008726 00000062 595.83 95.58 420.34 576.23 715.45 332.90 903.26 329.01 816.84 422.79 742.61 534.16 895.21 531.07
00008727 00000063 579.95 96.04 422.08 568.80 696.73 332.90 882.66 322.43 800.78 417.80 732.21 533.86 881.79 524.66
00008728 00000064 571.90 89.30 424.84 573.99 687.19 330.74 878.91 321.75 794.04 417.27 724.75 533.72 880.76 525.38
00008729 00000065 569.70 90.19 424.55 569.16 686.44 330.55 878.40 321.03 795.49 415.78 724.70 530.57 882.09 521.21
00008730 00000066 568.11 88.73 425.04 573.79 688.24 331.16 879.54 321.57 799.45 417.06 728.38 531.51 885.47 522.15
00008731 00000067 567.67 93.10 425.86 574.60 695.01 335.89 883.95 325.01 810.71 421.16 738.39 534.91 893.97 524.53
00008732 00000068 572.07 95.31 424.10 579.64 706.90 340.65 893.16 328.04 829.21 425.16 753.54 541.62 905.06 530.01
00008733 00000069 579.52 93.51 420.56 584.98 720.13 339.41 901.04 327.12 844.83 423.01 765.76 541.18 912.63 530.10
00008734 00000070 591.37 92.05 418.25 583.95 729.07 328.87 906.25 320.60 842.92 414.53 771.44 532.56 908.87 525.87
00008735 00000071 594.50 97.79 415.51 566.74 734.22 329.31 911.19 321.46 848.12 410.60 774.30 525.38 913.68 519.36
00008736 00000072 595.02 97.20 415.99 555.34 735.39 329.38 915.66 323.62 850.80 411.38 773.58 520.99 918.30 516.75
00008737 00000073 594.01 97.49 415.94 548.77 733.34 331.27 919.61 326.45 852.11 414.73 767.94 520.32 921.70 516.81
00008738 00000074 593.89 97.65 414.89 546.36 732.73 332.34 919.14 326.88 851.25 414.62 767.42 520.20 921.72 516.03
00008739 00000075 593.25 96.20 414.92 553.74 732.10 329.76 916.19 325.14 848.75 412.88 767.77 520.09 918.62 516.65
00008740 00000076 592.96 95.70 414.63 564.08 731.21 327.42 907.50 320.36 842.61 406.59 769.42 527.38 905.12 522.24
00008741 00000077 586.20 93.35 416.33 562.38 724.06 328.44 906.79 320.71 844.29 408.52 762.30 525.85 906.61 518.47
00008742 00000078 585.98 92.76 415.65 551.82 720.06 327.51 904.21 318.40 839.61 407.31 758.76 519.23 906.41 510.11
00008743 00000079 584.83 93.50 416.04 549.15 718.44 327.20 903.87 317.45 838.91 407.94 756.57 517.52 907.81 507.87
00008744 00000080 583.13 95.10 415.82 548.98 718.50 327.25 901.62 316.95 838.56 408.11 757.35 517.32 907.27 507.13
00008745 00000081 581.74 94.31 415.85 550.79 717.10 328.86 900.80 317.73 838.34 411.46 757.65 520.69 907.58 509.84
00008746 00000082 581.57 94.31 416.01 553.81 716.05 331.03 899.62 319.80 837.31 411.68 757.62 522.96 907.73 512.11
00008747 00000083 578.94 93.68 417.79 556.51 713.34 333.42 898.65 322.43 835.68 414.43 754.50 524.82 907.80 514.24
00008748 00000084 579.15 94.18 418.05 558.72 709.97 334.98 897.91 323.02 832.81 415.34 750.48 526.60 909.63 515.41
00008749 00000085 573.03 96.81 424.58 565.12 701.29 337.39 890.07 323.51 819.51 415.85 740.88 526.31 904.98 513.39
00008750 DELETE   565.76 90.89 429.24 577.35 686.06 339.82 878.53 328.92 800.57 420.75 723.24 528.74 892.08 518.31
00008751 DELETE   560.44 94.31 423.06 579.82 672.67 340.61 857.89 334.18 776.83 420.97 707.25 532.63 862.71 526.33
00008752 00000088 555.13 96.74 419.66 577.17 655.52 338.05 834.94 329.50 746.41 421.84 690.40 534.54 833.75 526.87
00008753 00000089 544.91 96.83 421.82 572.31 644.67 331.27 829.01 325.15 730.03 412.57 671.96 529.61 816.04 524.67
00008754 00000090 543.93 95.57 418.14 566.26 640.92 324.86 819.75 321.13 721.30 404.19 662.69 523.12 802.36 520.64
00008755 00000091 543.24 98.49 415.98 558.36 638.42 319.54 817.58 314.96 717.43 394.78 658.86 519.05 797.58 516.31
00008756 00000092 541.76 96.10 418.38 558.66 637.25 317.38 818.06 311.62 716.87 386.90 657.41 514.75 797.16 511.03
00008757 00000093 541.82 96.12 416.35 554.22 636.03 318.14 817.66 311.16 715.46 385.88 655.22 513.66 796.96 508.87
00008758 00000094 540.94 96.24 415.80 554.61 634.43 318.49 815.84 310.64 713.30 385.19 653.89 513.40 795.30 507.97
00008759 00000095 541.07 95.87 415.57 559.53 635.07 319.04 814.65 313.61 714.40 389.18 653.75 515.81 793.50 512.62
00008760 00000096 542.43 93.44 415.03 573.81 637.65 319.63 815.83 317.05 717.12 399.12 658.95 525.13 796.30 523.98
00008761 00000097 543.88 91.39 420.35 587.84 641.56 324.80 821.39 317.84 723.03 408.60 668.77 537.48 803.70 532.60
00008762 00000098 548.54 90.02 422.47 599.16 649.12 325.82 833.45 321.98 733.26 414.72 672.72 540.84 816.48 537.79
00008763 00000099 553.01 90.91 420.64 594.21 651.05 329.95 836.63 324.11 737.17 418.88 678.34 540.67 827.57 535.59
00008764 00000100 553.91 92.58 419.30 586.70 650.51 329.90 839.36 323.42 739.02 416.88 677.85 536.44 835.90 530.99
00008765 00000101 554.04 92.96 418.98 582.41 650.54 330.24 838.75 324.16 739.31 415.49 678.06 532.90 836.97 527.84
00008766 00000102 554.02 93.46 418.66 581.40 651.19 330.46 838.76 324.75 739.53 415.91 678.69 533.25 835.77 528.46
00008767 00000103 554.54 92.16 417.47 575.21 651.68 332.39 841.96 329.00 743.31 417.89 677.80 530.90 838.08 527.88
00008768 00000104 554.15 89.07 418.54 566.62 652.62 333.03 847.45 330.76 750.62 418.54 679.33 526.97 843.62 524.77
00008769 00000105 556.21 88.44 417.70 564.18 659.49 330.04 856.32 330.65 762.05 416.45 685.78 524.26 852.08 523.68
00008770 00000106 557.05 88.61 420.88 567.73 668.88 327.65 863.69 327.12 776.20 415.70 700.02 525.10 862.27 523.25
00008771 00000107 556.69 91.39 424.47 578.25 680.85 324.94 867.82 323.82 791.11 414.80 717.40 532.20 865.74 529.74
00008772 00000108 557.07 90.86 427.61 582.36 685.83 324.51 871.61 322.08 798.34 415.24 725.30 534.21 870.63 530.71
00008773 00000109 557.80 90.53 427.13 578.68 685.52 325.57 873.45 322.27 799.45 415.43 726.79 533.35 874.87 528.92
00008774 00000110 557.68 90.71 425.14 573.09 682.28 326.35 873.95 323.07 797.30 416.78 722.37 531.37 875.40 526.73
00008775 00000111 558.10 88.72 425.86 570.94 680.76 327.13 876.66 326.49 795.19 418.12 718.03 529.55 876.35 526.81
00008776 00000112 560.32 87.97 425.49 567.16 683.84 326.55 880.61 325.96 798.43 420.67 719.85 528.20 879.30 525.46
00008777 00000113 565.22 89.02 423.35 571.18 691.58 327.80 882.26 326.63 804.04 418.55 727.20 529.06 881.99 526.39
00008778 00000114 565.80 90.90 424.11 580.28 699.28 327.38 881.89 326.67 810.48 415.83 734.78 532.20 880.03 530.66
00008779 00000115 565.92 91.56 424.54 580.14 699.14 328.05 880.65 326.59 809.75 414.54 734.35 532.47 878.39 530.32
00008780 00000116 564.71 90.38 425.40 583.27 697.64 326.27 880.04 326.44 807.71 414.11 732.03 532.90 876.14 531.96
00008781 00000117 564.29 90.01 424.97 586.40 696.52 325.89 879.13 325.20 805.90 413.53 731.09 535.24 874.26 533.59
00008782 00000118 563.08 90.54 425.76 585.54 694.36 327.10 878.29 327.07 804.26 415.90 730.19 535.56 874.64 534.44
00008783 00000119 562.94 89.40 425.11 579.17 692.47 329.96 878.99 329.30 803.45 417.85 729.94 533.10 877.69 531.14
00008784 00000120 558.80 89.98 428.73 575.36 687.72 329.96 877.33 327.51 800.95 418.34 726.84 531.30 878.01 527.43
00008785 00000121 556.27 94.21 425.59 570.40 677.60 335.63 869.29 330.46 791.11 418.19 713.48 528.67 873.63 523.42
00008786 DELETE   548.40 96.61 422.25 564.94 661.83 339.60 850.60 327.94 770.19 416.86 696.28 523.49 857.53 513.71
00008787 DELETE   534.67 97.81 422.77 557.28 642.66 344.51 824.75 326.04 740.65 418.43 676.35 518.33 834.74 503.52
00008788 00000124 512.33 90.45 428.95 564.82 618.58 344.55 799.58 326.03 714.17 420.17 657.11 523.91 810.21 507.01
00008789 00000125 505.07 97.70 429.35 565.46 609.16 347.46 786.54 330.33 703.79 423.08 650.49 531.05 796.43 515.84
00008790 00000126 500.88 98.69 427.88 569.44 606.12 350.74 781.59 332.99 701.18 427.03 649.87 536.12 793.07 520.25
00008791 00000127 499.67 94.90 429.21 582.00 610.95 348.12 787.24 329.38 710.34 424.25 657.87 542.86 795.80 526.93
00008792 00000128 506.21 92.16 428.07 590.23 621.25 346.25 803.52 326.60 726.62 424.20 668.33 551.09 807.79 534.72
00008793 00000129 520.81 83.98 424.65 599.25 635.34 340.16 820.49 321.63 738.00 423.35 675.81 542.87 827.34 528.37
00008794 00000130 529.55 89.27 425.57 592.18 644.48 340.29 832.02 321.72 751.71 423.58 688.07 540.05 843.50 524.89
00008795 00000131 534.96 90.67 426.53 589.90 650.17 339.34 836.46 321.59 758.86 426.31 694.91 540.18 848.31 525.31
00008796 00000132 538.63 92.76 424.95 586.79 652.26 337.15 840.40 319.51 762.17 426.36 697.34 540.21 851.30 525.42
00008797 00000133 540.78 93.29 424.46 588.00 655.80 333.70 841.94 321.26 762.90 423.92 698.95 542.74 842.35 532.09
00008798 00000134 543.16 96.51 422.44 583.90 661.22 335.56 844.17 325.00 767.77 424.28 703.80 543.88 843.53 534.92
00008799 00000135 544.88 97.34 420.54 581.87 663.26 340.93 844.60 329.37 769.07 429.36 705.07 545.92 846.76 536.36
00008800 00000136 542.95 95.75 421.25 580.95 659.62 344.29 845.63 332.90 766.95 433.07 699.63 545.43 850.39 535.62
00008801 00000137 537.14 98.36 422.05 574.68 651.99 350.47 842.55 339.24 760.01 437.60 686.94 539.94 849.93 530.44
00008802 DELETE   531.23 94.21 421.55 578.19 641.05 351.56 832.65 340.72 741.62 434.12 668.07 536.30 836.04 528.64
00008803 DELETE   519.68 92.85 424.32 575.96 625.95 343.14 811.38 334.01 718.92 423.32 657.31 531.36 813.07 522.73
00008804 00000140 518.11 88.02 418.12 575.90 617.93 333.14 803.70 324.11 706.50 414.10 647.39 526.27 802.15 518.71
00008805 00000141 516.86 87.86 419.01 576.77 619.33 328.42 802.02 322.90 706.14 409.04 645.62 521.16 796.92 516.12
00008806 00000142 518.87 86.53 418.93 580.92 623.50 324.42 805.67 319.64 710.79 408.86 650.48 523.37 797.44 518.80
00008807 00000143 525.75 87.17 420.44 590.05 629.64 323.84 810.53 319.29 719.09 408.17 655.59 528.88 794.97 525.81
00008808 00000144 531.75 86.49 418.51 588.11 634.97 327.46 818.51 322.62 726.31 411.79 659.70 529.52 806.42 525.61
00008809 00000145 537.73 89.78 420.98 585.20 641.72 331.02 828.04 324.52 737.99 414.45 669.52 529.90 825.42 524.18
00008810 00000146 543.73 93.94 419.87 576.45 651.08 330.62 842.15 325.40 756.38 414.48 683.09 527.66 844.46 522.62
00008811 00000147 551.53 93.21 422.13 574.06 667.07 322.92 860.83 322.59 779.24 407.18 700.86 523.22 863.52 521.55
00008812 00000148 556.68 99.08 424.53 559.53 677.70 318.16 875.77 314.23 795.77 401.81 717.45 519.05 882.87 513.85
00008813 00000149 561.76 98.82 423.86 550.30 688.75 314.88 880.89 308.17 806.75 395.71 728.25 510.75 889.54 502.90
00008814 00000150 561.66 102.48 426.11 540.60 694.52 310.33 884.41 301.89 811.68 390.52 732.29 503.61 892.78 494.43
00008815 00000151 561.86 101.26 425.61 536.14 697.48 302.90 887.58 297.22 814.72 382.45 732.11 495.89 892.31 489.26
00008816 00000152 562.95 98.76 424.84 541.39 697.61 298.18 882.54 291.23 813.33 372.20 736.39 497.08 885.82 488.78
00008817 00000153 563.70 93.70 420.95 532.75 699.71 296.85 880.93 287.47 815.70 363.23 741.09 489.76 885.60 479.10
00008818 00000154 564.56 92.42 418.31 525.60 701.50 293.40 883.58 284.96 819.82 354.70 741.83 482.80 889.89 472.67
00008819 00000155 563.64 88.97 417.07 522.94 701.34 290.86 885.28 285.59 822.35 348.76 740.82 478.74 891.18 471.40
00008820 00000156 560.01 90.95 418.27 522.26 698.71 290.77 884.44 286.57 820.04 352.27 737.06 479.40 891.60 473.18
00008821 00000157 554.30 93.57 420.50 525.47 694.30 293.20 883.36 288.57 817.97 363.18 732.06 482.23 891.02 476.33
00008822 00000158 551.41 90.15 422.76 538.02 689.87 299.94 879.00 293.15 813.32 374.90 727.63 487.83 889.57 480.60
00008823 00000159 550.15 97.95 422.82 541.60 684.54 306.16 876.98 296.55 809.97 385.74 727.78 500.31 890.39 490.68
00008824 00000160 549.28 91.53 419.93 557.03 682.26 313.01 871.10 303.91 807.07 388.89 728.24 510.77 884.36 501.42
00008825 00000161 547.44 96.58 420.15 560.71 684.06 317.17 865.12 307.28 805.89 388.22 732.26 514.49 878.36 504.59
00008826 00000162 546.04 96.69 416.29 569.32 685.13 317.00 862.32 309.02 806.55 391.52 730.86 518.65 872.12 510.86
00008827 00000163 546.75 94.03 415.07 576.88 684.71 317.72 862.94 309.84 806.95 394.46 731.44 524.23 872.34 516.63
00008828 00000164 547.16 94.78 415.46 577.69 684.26 319.02 863.52 310.36 806.43 398.78 732.73 526.79 873.53 518.37
00008829 00000165 547.71 92.90 415.33 583.83 685.16 322.64 864.45 313.56 807.53 405.99 733.35 533.42 871.84 524.84
00008830 00000166 546.18 90.80 418.98 593.30 685.06 330.39 865.15 322.51 806.75 418.28 732.99 544.10 868.67 536.64
00008831 00000167 548.94 91.66 419.89 594.88 688.06 337.68 868.86 328.43 806.52 429.02 733.53 548.58 872.44 539.87
00008832 00000168 550.52 86.85 422.36 605.81 691.44 342.95 873.55 333.84 811.06 435.41 734.37 554.92 874.68 546.34
00008833 00000169 548.17 94.17 421.59 603.16 691.87 347.80 875.58 340.19 813.61 445.20 731.95 558.72 876.91 551.52
00008834 00000170 547.31 94.60 418.60 610.45 691.42 357.17 876.92 347.65 816.17 460.38 727.76 568.78 877.15 560.33
00008835 00000171 543.60 104.69 416.18 605.86 683.16 370.91 873.27 353.04 812.37 474.04 722.83 578.59 879.16 563.84
