Video ID: 	nmb65Da1RSg
H: 	1080
W: 	1920
FPS: 	25.0

FRAME INDEX X0 Y0 W H [Landmarks (5 Points)]

00010324 00000000 589.01 134.93 375.10 535.18 761.59 336.23 924.61 360.75 877.29 432.10 765.13 532.78 892.50 553.94
00010325 00000001 593.73 128.70 376.20 545.72 765.14 332.85 929.28 355.74 883.32 429.88 767.12 532.64 898.41 552.54
00010326 00000002 595.78 127.39 377.76 557.02 768.53 329.12 926.88 352.00 882.33 424.69 768.94 532.47 896.26 552.08
00010327 00000003 598.20 129.89 377.62 559.64 769.49 327.00 924.97 348.07 881.52 423.31 769.89 533.74 896.50 551.92
00010328 00000004 602.17 129.09 376.71 558.81 769.83 326.29 928.65 345.84 885.36 423.87 771.01 533.36 900.48 550.42
00010329 00000005 604.90 127.19 378.03 560.49 772.56 326.87 931.72 344.61 888.36 424.11 775.67 534.32 905.17 549.72
00010330 00000006 606.17 126.40 378.36 560.29 773.76 326.47 932.85 343.61 889.95 421.83 777.96 533.80 907.64 548.78
00010331 00000007 603.98 125.92 380.26 557.22 769.62 326.44 931.67 342.52 886.77 422.19 776.11 532.92 906.43 546.86
00010332 00000008 602.35 123.85 377.86 552.94 764.34 325.48 926.29 343.57 879.29 417.94 771.28 528.77 900.78 544.59
00010333 00000009 599.60 123.35 377.66 547.04 761.70 322.98 924.41 343.02 876.39 413.32 768.56 523.92 897.75 541.51
00010334 00000010 599.38 120.20 376.97 547.81 761.87 321.13 925.52 340.85 878.55 412.36 769.56 521.20 899.87 538.55
00010335 00000011 598.53 116.43 377.39 550.60 765.22 320.41 926.66 337.34 884.42 412.75 776.03 520.85 904.96 535.68
00010336 00000012 596.33 119.11 377.14 554.33 768.98 320.33 925.69 337.43 886.19 413.64 777.84 523.27 902.52 537.97
00010337 00000013 593.06 120.87 375.22 554.78 764.87 323.07 922.26 342.60 881.76 413.08 772.38 525.23 899.30 542.11
00010338 00000014 587.91 118.29 372.00 551.41 755.50 326.19 915.68 343.56 873.88 413.36 766.72 525.69 894.34 540.72
00010339 00000015 583.24 112.50 370.82 555.74 746.40 327.95 906.83 342.20 864.26 411.89 759.55 523.21 887.36 535.57
00010340 00000016 576.81 109.90 371.87 560.95 740.95 325.65 896.43 338.92 854.72 411.97 754.99 521.35 877.51 532.47
00010341 00000017 570.20 111.17 374.67 555.41 731.31 327.43 892.29 336.20 848.62 417.39 750.73 522.22 876.52 529.17
00010342 DELETE   565.90 108.70 374.03 552.34 723.46 328.79 884.03 332.07 841.84 419.89 747.47 519.97 873.57 522.33
00010343 00000019 558.61 108.89 377.17 553.31 718.48 328.02 879.09 330.25 836.41 419.26 746.04 520.66 870.95 521.77
00010344 00000020 555.44 107.43 376.62 553.75 715.20 325.76 872.46 328.31 829.36 416.57 743.40 519.99 863.30 521.57
00010345 00000021 553.74 103.30 375.89 564.81 713.02 325.85 866.28 326.75 826.04 415.04 740.74 522.43 859.55 522.52
00010346 00000022 550.94 103.72 374.97 570.18 708.61 324.13 859.66 324.83 821.80 409.40 737.62 524.50 855.14 524.39
00010347 00000023 550.03 100.69 373.25 572.31 706.95 320.34 854.44 320.37 816.58 407.98 735.19 522.49 850.21 522.09
00010348 00000024 549.88 97.61 372.55 574.37 703.79 316.91 853.39 317.97 812.77 403.85 732.80 520.14 848.88 520.66
00010349 00000025 548.15 97.66 371.67 571.64 698.71 314.98 848.92 312.73 808.73 403.39 730.30 515.63 850.55 513.55
00010350 00000026 545.88 99.11 371.52 567.61 694.20 311.05 845.65 309.57 803.94 400.43 725.74 511.39 847.98 510.00
00010351 00000027 543.20 105.54 374.99 560.68 687.28 317.26 847.69 309.43 805.31 394.49 712.36 513.83 852.50 507.95
00010352 DELETE   539.96 106.29 375.92 558.29 681.50 317.62 842.62 310.55 799.50 398.19 706.48 511.19 848.42 505.75
00010353 00000029 537.97 104.38 376.21 556.71 672.46 321.50 836.40 312.99 787.74 400.77 699.84 511.65 843.40 504.77
00010354 00000030 534.89 103.92 377.34 558.77 661.56 321.28 826.15 313.88 772.75 398.39 688.81 510.26 835.42 504.29
00010355 00000031 531.52 101.56 375.33 560.23 655.09 319.27 818.68 315.04 764.61 395.52 680.22 507.97 827.29 504.76
00010356 00000032 529.60 97.33 373.42 562.03 648.63 318.46 812.53 313.92 755.37 387.29 673.39 505.71 821.14 502.86
00010357 00000033 526.75 94.64 374.30 567.00 645.78 315.97 808.22 312.15 751.21 383.18 669.82 504.83 815.45 502.96
00010358 00000034 523.49 94.64 376.86 566.29 642.63 313.29 806.07 307.97 749.01 376.78 669.08 503.97 813.51 500.79
00010359 00000035 522.12 94.67 378.45 564.37 641.60 308.59 805.22 303.35 747.21 372.70 668.78 502.21 810.65 498.71
00010360 00000036 521.57 93.46 378.36 564.81 640.42 306.53 803.70 300.64 745.87 370.03 667.28 501.26 809.26 497.31
00010361 00000037 518.33 90.82 378.63 567.88 638.15 304.24 801.25 298.85 744.03 367.36 664.37 499.91 806.84 496.76
00010362 00000038 514.94 90.20 380.40 567.68 636.41 303.68 799.43 297.84 743.69 364.49 663.89 497.75 807.29 494.12
00010363 00000039 512.56 90.21 380.91 565.37 634.84 303.29 797.03 297.00 741.33 362.73 663.14 497.51 804.98 493.29
00010364 00000040 509.13 90.66 382.87 565.60 632.08 304.10 794.42 297.05 738.24 362.86 661.86 496.92 804.56 491.94
00010365 00000041 507.56 90.68 383.68 563.75 630.33 303.21 793.35 295.03 736.65 360.65 660.61 496.39 802.55 490.57
00010366 00000042 507.09 92.00 384.21 561.71 629.94 303.05 792.99 295.19 735.96 360.49 660.03 495.75 802.05 490.06
00010367 00000043 506.43 93.31 385.10 561.35 629.64 303.30 792.88 295.46 735.87 360.47 660.17 496.16 802.74 490.37
00010368 00000044 505.32 92.94 386.05 561.49 629.73 303.31 793.24 295.78 737.08 360.82 661.14 495.91 803.56 490.13
00010369 00000045 506.06 92.38 384.87 562.73 630.43 303.17 794.16 296.07 738.54 360.94 661.57 495.87 804.78 490.53
00010370 00000046 505.85 92.60 385.28 561.77 630.79 303.40 794.51 296.30 738.95 361.13 662.20 495.96 804.96 490.56
00010371 00000047 506.21 91.70 384.87 561.28 631.52 302.80 795.88 296.39 740.98 361.53 662.49 494.54 806.41 489.50
00010372 00000048 509.06 91.76 384.23 560.60 634.72 302.30 798.72 296.89 743.75 362.00 663.90 493.79 807.82 489.55
00010373 00000049 515.55 90.99 381.54 558.44 639.05 303.17 804.26 296.94 749.51 360.47 667.33 494.57 812.06 489.78
00010374 00000050 519.85 92.82 380.82 554.51 641.69 303.80 808.47 297.51 752.65 358.96 669.55 494.30 816.41 489.27
00010375 00000051 524.42 90.94 376.61 553.50 646.27 303.17 812.81 296.93 759.24 357.06 673.60 492.84 821.20 488.30
00010376 00000052 527.56 92.29 376.82 548.73 650.44 301.80 819.33 296.26 766.80 355.38 678.98 491.62 829.05 487.10
00010377 00000053 529.55 91.40 376.85 548.76 652.93 302.93 823.27 298.26 771.75 354.90 683.81 493.33 834.43 489.23
00010378 00000054 534.13 90.79 374.78 549.36 656.51 303.80 827.56 298.41 776.10 356.58 688.49 493.71 840.54 488.69
00010379 00000055 536.02 91.05 374.37 549.96 660.14 303.78 830.20 299.53 781.00 357.11 691.25 492.95 842.51 488.95
00010380 00000056 537.49 91.06 374.01 549.99 661.70 304.85 831.10 300.45 782.36 357.95 693.65 494.31 843.59 490.26
00010381 00000057 537.05 93.75 375.06 549.47 662.97 305.02 831.11 300.79 783.76 358.20 695.03 494.45 844.32 490.52
00010382 00000058 538.41 93.01 374.79 550.46 664.71 304.85 833.29 301.31 785.00 359.09 695.64 494.32 845.18 491.02
00010383 00000059 538.95 91.62 374.42 552.52 666.23 305.31 834.50 301.92 786.24 360.54 696.64 495.20 845.44 492.13
00010384 00000060 539.88 90.82 374.57 557.21 667.65 305.23 835.90 302.69 787.47 361.26 696.56 495.64 846.44 493.36
00010385 00000061 540.94 91.59 374.47 559.10 669.15 305.28 837.48 303.33 788.68 360.92 697.13 495.87 847.83 494.16
00010386 00000062 542.65 92.58 374.33 563.35 670.86 304.86 838.06 303.22 789.84 359.49 699.62 497.32 849.67 495.91
00010387 00000063 543.60 93.76 374.04 564.16 672.13 304.44 839.05 303.92 790.24 361.06 699.54 498.00 849.52 497.64
00010388 00000064 543.37 93.82 374.65 565.98 672.77 304.22 839.06 303.52 791.00 362.00 699.83 498.61 849.51 498.18
00010389 00000065 543.21 93.52 375.50 565.32 673.52 303.15 839.88 302.73 791.75 360.59 700.22 496.98 849.87 496.70
00010390 00000066 545.59 94.54 374.29 562.18 676.26 303.87 842.08 304.95 793.57 361.21 701.14 495.21 850.44 496.20
00010391 00000067 546.41 95.00 374.59 561.91 678.28 306.82 843.10 307.69 794.97 363.59 701.46 494.81 851.51 495.62
00010392 00000068 545.95 93.81 373.73 562.77 681.20 308.51 842.95 310.47 796.42 365.42 702.17 494.66 850.15 496.52
00010393 DELETE   546.40 95.20 373.83 560.81 683.75 306.96 846.90 311.54 798.70 364.80 702.55 493.72 851.11 497.61
00010394 DELETE   548.02 96.49 373.50 560.32 686.12 309.86 848.39 314.92 800.70 364.60 704.59 494.06 852.83 498.32
00010395 00000071 549.63 98.74 372.75 557.67 686.51 311.72 848.92 316.28 801.05 364.67 706.06 494.47 854.65 498.26
00010396 00000072 549.92 98.45 372.80 555.42 685.18 310.53 849.36 315.43 800.87 363.30 705.63 493.61 854.99 497.62
00010397 00000073 546.53 92.91 375.22 558.73 680.66 307.47 842.25 312.40 786.64 366.80 706.76 487.69 846.34 492.22
00010398 00000074 546.48 90.74 375.19 559.67 680.86 305.30 841.68 309.95 786.99 366.30 707.33 486.78 846.23 491.07
00010399 00000075 548.56 91.95 374.61 562.19 682.80 306.47 841.95 310.39 787.93 366.72 709.86 489.09 847.44 492.54
00010400 00000076 550.18 93.53 374.42 562.96 683.06 309.29 844.12 313.64 788.70 369.52 709.62 491.80 849.71 495.44
00010401 00000077 548.54 93.08 373.85 563.30 682.57 307.55 842.44 312.02 788.26 369.30 709.30 491.28 847.67 495.09
00010402 00000078 548.83 92.74 371.87 562.34 684.46 306.75 846.66 309.36 800.20 364.95 705.80 494.94 852.65 497.53
00010403 00000079 547.60 91.88 373.68 563.74 680.25 307.77 838.07 310.48 786.28 370.79 707.28 491.90 845.14 494.64
00010404 00000080 548.02 93.16 373.90 563.54 680.09 309.47 838.90 312.35 786.00 372.73 706.52 492.38 846.66 495.18
00010405 00000081 547.93 93.14 374.08 561.09 679.66 309.20 839.06 311.92 785.63 371.32 706.33 491.35 846.20 494.07
00010406 00000082 548.48 94.51 373.31 557.46 679.59 309.52 845.39 310.84 795.74 366.46 702.63 494.79 852.62 496.04
00010407 00000083 546.43 95.07 373.78 561.92 678.86 309.83 843.45 308.85 795.49 368.60 701.55 496.83 852.13 496.42
00010408 00000084 545.77 95.44 374.67 563.77 679.14 311.02 843.65 309.52 796.08 370.97 701.99 498.99 852.54 498.26
00010409 00000085 546.13 95.86 376.02 558.48 680.28 312.03 845.24 312.33 797.64 369.00 702.89 495.82 853.78 496.26
00010410 00000086 546.72 96.19 376.58 551.90 683.58 310.99 847.83 313.98 800.92 364.79 705.63 491.58 855.12 493.91
00010411 00000087 545.98 97.00 377.64 552.57 682.91 310.84 843.77 316.09 790.59 372.13 709.25 489.17 849.67 493.94
00010412 00000088 545.91 99.03 378.12 556.91 681.76 315.05 842.99 318.05 789.81 376.62 710.10 493.94 852.86 496.37
00010413 00000089 544.93 102.18 377.23 554.15 681.07 317.16 841.10 319.04 788.52 380.43 710.42 496.45 850.70 498.14
00010414 00000090 545.63 105.86 374.78 548.75 683.02 318.55 847.70 318.98 800.25 375.87 706.84 500.47 855.71 500.97
00010415 00000091 543.39 105.82 375.80 548.91 681.34 318.83 845.67 318.68 799.12 376.01 705.43 499.99 854.83 499.87
00010416 00000092 544.05 106.95 376.70 546.32 683.30 318.39 845.33 317.79 801.65 375.71 708.25 498.78 855.49 498.43
00010417 00000093 544.95 102.42 377.44 549.20 682.27 316.77 842.30 318.58 791.85 379.39 711.95 494.42 852.10 496.28
00010418 00000094 546.01 101.00 378.32 550.74 683.96 315.96 844.46 318.03 793.72 377.37 713.79 494.60 853.29 496.63
00010419 00000095 546.46 99.62 377.16 552.04 684.61 315.00 844.86 318.19 793.75 376.22 712.86 493.77 852.27 496.79
00010420 00000096 546.89 98.35 376.05 552.17 684.14 315.79 843.32 318.53 793.29 376.80 712.64 493.84 851.81 496.54
00010421 00000097 545.77 97.38 375.94 552.91 682.18 316.81 842.73 319.65 790.93 376.88 710.23 494.34 849.44 497.20
00010422 00000098 546.09 100.25 376.09 552.52 684.66 316.71 847.01 319.23 802.58 372.57 706.61 496.87 854.83 499.22
00010423 00000099 545.88 100.47 375.36 560.98 685.28 317.22 845.38 319.16 801.04 374.53 704.96 498.94 853.84 500.96
00010424 00000100 546.41 100.87 375.04 556.04 683.49 317.83 845.09 318.26 799.81 375.25 705.41 499.32 853.56 500.22
00010425 00000101 546.07 99.12 376.61 548.56 680.99 314.82 846.05 317.03 799.03 368.22 704.29 493.93 853.77 495.79
00010426 00000102 543.63 96.36 376.91 547.37 676.74 310.44 842.00 312.43 793.40 362.45 699.65 489.90 849.79 491.35
00010427 00000103 540.87 93.36 376.71 547.65 671.00 310.70 835.32 306.57 787.24 364.68 699.27 493.24 846.67 489.48
00010428 00000104 541.76 93.72 372.87 539.36 665.81 312.94 832.53 307.28 779.92 367.57 695.55 494.25 842.89 489.26
00010429 00000105 540.90 100.28 373.05 538.10 663.13 317.62 829.75 309.77 774.11 375.53 691.74 499.26 839.18 492.45
00010430 00000106 540.20 103.93 375.40 556.28 664.07 322.07 827.71 317.27 772.59 381.33 691.05 506.71 837.81 502.81
00010431 00000107 540.24 107.64 378.35 565.77 664.94 326.34 829.08 320.84 772.76 390.24 694.24 516.30 840.67 511.96
00010432 00000108 541.67 107.16 378.72 567.73 668.78 327.35 831.16 322.61 775.80 392.33 697.19 517.41 841.11 513.82
00010433 00000109 544.75 100.27 376.46 574.91 672.68 327.59 828.70 324.97 775.59 397.17 705.19 519.76 836.82 517.80
00010434 00000110 548.81 97.31 375.35 578.29 675.23 326.11 828.95 324.18 775.42 390.98 707.05 519.09 835.86 517.70
00010435 00000111 552.25 96.54 375.08 576.23 678.13 322.95 832.95 323.12 776.41 386.44 707.25 511.26 840.03 511.19
00010436 00000112 554.84 97.42 372.33 569.17 679.33 322.83 834.50 324.52 776.78 385.45 708.99 507.06 842.95 507.90
00010437 00000113 551.32 100.21 372.97 562.45 675.72 326.67 830.28 328.02 771.61 389.72 704.96 508.03 835.97 509.12
CROP_BBOX: 294 0 1200 866
