Video ID: 	ae7ArewdSLg
H: 	2160
W: 	3840
FPS: 	30.0

FRAME INDEX X0 Y0 W H [Landmarks (5 Points)]

00000136 00000000 1037.21 537.15 441.08 641.79 1323.36 767.73 1426.80 786.36 1483.95 905.68 1352.08 1032.95 1428.21 1047.46
00000137 00000001 1035.20 543.87 432.37 627.82 1311.24 774.59 1427.67 788.71 1466.10 900.81 1344.02 1029.77 1425.72 1040.39
00000138 DELETE   1020.09 535.49 444.73 629.72 1302.05 774.87 1418.68 786.80 1457.34 903.25 1339.44 1030.10 1419.58 1039.28
00000139 00000003 1021.85 545.17 441.59 628.79 1294.59 779.49 1422.38 792.65 1442.48 905.66 1337.14 1028.87 1419.69 1036.11
00000140 00000004 1012.85 544.58 452.13 620.29 1283.53 771.28 1432.58 787.78 1439.72 907.00 1319.54 1031.53 1422.87 1043.20
00000141 00000005 1011.03 549.62 451.79 631.81 1276.43 770.63 1423.53 796.96 1433.42 909.18 1303.92 1032.53 1407.78 1049.02
00000142 00000006 1003.63 552.01 462.92 634.72 1269.84 773.43 1422.86 800.10 1422.45 916.82 1282.38 1036.41 1396.05 1053.39
00000143 00000007 1002.28 565.76 467.88 618.92 1258.61 775.84 1424.13 802.80 1408.69 919.88 1266.02 1038.12 1394.13 1054.86
00000144 00000008 999.36 570.96 471.11 617.22 1249.32 779.98 1423.62 802.72 1400.17 924.33 1253.76 1040.86 1393.18 1054.25
00000145 00000009 1000.35 571.47 467.54 618.35 1244.50 785.32 1420.00 802.77 1393.87 929.36 1243.10 1045.35 1387.35 1055.63
00000146 00000010 996.63 580.51 468.33 615.32 1230.21 788.26 1413.39 804.63 1379.69 933.50 1228.87 1050.45 1383.39 1059.46
00000147 00000011 992.51 571.43 464.09 623.96 1216.99 789.92 1401.62 797.50 1372.84 935.06 1215.18 1053.46 1376.30 1057.12
00000148 00000012 983.98 563.02 467.04 635.33 1204.42 789.83 1392.90 793.58 1364.50 933.21 1205.86 1053.81 1370.48 1054.93
00000149 00000013 974.48 574.05 476.91 633.11 1193.37 788.21 1383.54 790.41 1350.19 936.41 1196.21 1060.58 1359.95 1058.87
00000150 00000014 973.66 581.20 475.24 628.01 1182.25 788.97 1376.26 789.72 1336.13 936.93 1189.67 1063.86 1354.98 1059.72
00000151 00000015 970.65 572.70 470.58 633.52 1170.61 789.41 1371.05 786.25 1328.02 935.03 1182.99 1063.30 1355.32 1056.10
00000152 00000016 953.73 567.68 475.94 625.06 1156.87 790.53 1358.46 780.78 1321.08 934.57 1190.63 1057.70 1355.00 1046.09
00000153 00000017 947.14 560.85 476.96 632.12 1142.81 792.46 1351.81 779.94 1310.95 931.21 1188.44 1061.43 1356.91 1047.24
00000154 00000018 943.43 555.88 469.35 639.52 1131.12 793.73 1338.60 781.11 1295.16 927.99 1184.98 1065.20 1348.74 1049.63
00000155 00000019 940.39 547.44 467.62 647.00 1122.43 793.72 1329.83 779.17 1281.68 926.46 1178.33 1066.40 1338.08 1048.95
00000156 00000020 931.79 551.71 473.21 643.56 1115.68 791.90 1325.43 775.75 1276.23 928.07 1171.84 1069.54 1331.96 1050.50
00000157 00000021 925.70 549.60 477.09 648.04 1111.11 793.75 1320.90 772.87 1273.35 928.84 1167.26 1072.13 1328.86 1049.79
00000158 00000022 920.13 554.27 479.15 642.96 1107.95 791.56 1317.59 766.18 1272.19 929.35 1166.34 1073.61 1325.24 1047.72
00000159 00000023 914.56 544.53 484.29 646.08 1103.63 787.21 1315.09 760.60 1269.14 927.57 1160.24 1070.26 1320.17 1043.43
00000160 00000024 911.78 547.83 487.87 640.07 1099.75 783.82 1314.15 756.33 1266.64 924.55 1151.13 1064.05 1319.46 1037.01
00000161 00000025 904.57 534.40 492.23 647.92 1095.04 773.75 1308.53 746.50 1263.09 913.58 1144.35 1057.21 1313.90 1030.73
00000162 00000026 894.88 520.42 497.95 661.56 1090.76 764.97 1306.13 739.31 1260.42 897.33 1137.13 1043.91 1307.92 1019.99
00000163 00000027 893.65 513.57 495.24 663.71 1091.51 756.21 1306.81 730.53 1265.88 883.23 1132.59 1034.25 1314.59 1011.32
00000164 00000028 896.79 505.84 497.43 659.39 1096.46 742.93 1310.90 719.70 1273.83 863.50 1146.00 1017.98 1324.92 994.82
00000165 00000029 880.64 484.20 511.03 683.29 1093.86 734.37 1311.91 709.76 1288.71 850.25 1154.78 1005.85 1328.11 986.31
00000166 00000030 890.41 477.48 500.14 687.87 1102.77 726.60 1310.17 697.27 1293.42 841.43 1158.53 1003.34 1332.23 977.39
00000167 00000031 883.85 475.97 502.76 688.73 1103.95 723.02 1307.97 696.25 1298.85 835.02 1161.79 1001.79 1333.05 978.25
00000168 00000032 871.67 467.82 514.74 694.32 1091.23 715.14 1303.98 691.10 1295.71 830.80 1165.30 999.47 1329.10 980.09
00000169 00000033 862.68 458.77 520.84 705.44 1088.80 710.72 1299.83 684.24 1297.76 826.54 1170.32 998.61 1329.87 977.29
00000170 00000034 854.24 455.34 518.18 706.49 1085.36 710.54 1293.01 678.44 1296.11 826.29 1171.04 1000.26 1326.86 974.73
00000171 00000035 845.70 450.16 518.50 714.86 1082.09 709.51 1284.88 675.53 1296.82 825.88 1171.67 1003.22 1322.74 976.34
00000172 00000036 829.84 428.73 527.75 736.31 1079.13 706.23 1281.24 674.94 1293.37 825.46 1170.81 1004.37 1315.60 979.18
00000173 00000037 817.26 411.35 531.82 754.25 1071.78 709.69 1278.27 671.63 1293.13 825.84 1171.30 1010.40 1315.40 980.88
00000174 00000038 804.36 410.47 533.69 748.96 1064.86 715.38 1269.53 676.21 1286.49 833.26 1170.05 1014.27 1308.87 984.06
00000175 00000039 792.88 412.04 539.22 744.56 1054.85 713.94 1254.47 684.11 1271.83 838.51 1165.05 1010.67 1299.04 988.32
00000176 00000040 777.25 404.75 544.05 762.56 1038.92 719.80 1242.65 688.86 1255.11 841.55 1150.76 1019.28 1286.01 995.21
00000177 00000041 772.10 412.23 537.94 759.75 1024.23 720.64 1232.79 691.25 1237.07 851.78 1136.34 1030.79 1273.67 1006.29
00000178 00000042 755.96 436.33 546.16 743.95 1001.78 725.87 1219.26 693.04 1214.74 859.69 1114.41 1039.57 1258.84 1010.75
00000179 00000043 739.33 430.50 543.27 752.67 981.82 734.91 1205.75 691.24 1197.32 871.84 1082.10 1050.58 1242.71 1014.00
00000180 00000044 721.45 420.00 543.11 766.97 962.74 744.39 1191.72 696.39 1179.75 879.83 1051.87 1053.16 1225.42 1014.12
00000181 00000045 700.70 420.11 560.01 782.82 942.02 753.60 1181.41 699.86 1166.98 889.96 1024.55 1059.79 1204.17 1020.03
00000182 00000046 679.96 439.01 569.18 766.28 924.39 762.72 1165.95 706.84 1147.44 906.31 1007.36 1069.75 1195.25 1026.87
00000183 00000047 654.77 421.92 584.66 795.64 908.12 770.84 1155.47 710.82 1141.71 917.73 980.13 1073.76 1179.90 1030.74
00000184 00000048 631.30 416.79 589.02 822.39 897.16 776.66 1139.29 723.07 1125.05 919.08 963.69 1077.76 1156.51 1040.15
00000185 00000049 606.72 431.86 578.68 827.99 880.44 788.05 1117.77 733.76 1109.45 938.73 945.10 1097.61 1130.56 1059.10
00000186 00000050 586.69 415.37 590.48 862.76 850.25 791.15 1105.25 735.37 1085.82 938.32 922.95 1106.09 1127.35 1065.59
00000187 00000051 559.22 444.67 610.88 837.44 828.42 795.56 1087.76 734.99 1074.37 942.78 898.42 1109.20 1114.02 1065.40
00000188 00000052 539.48 422.08 623.06 867.28 807.54 795.44 1076.56 730.15 1053.89 949.16 871.61 1109.52 1095.40 1064.01
00000189 00000053 519.34 398.00 626.04 899.26 784.56 798.50 1056.22 731.69 1036.93 949.88 854.23 1116.00 1081.61 1070.53
00000190 00000054 505.54 392.74 625.24 917.89 760.65 803.13 1036.09 740.00 1015.61 955.62 834.79 1124.42 1072.23 1081.25
00000191 00000055 483.99 416.28 626.46 907.16 741.14 809.88 1017.76 743.73 999.44 968.84 815.35 1133.27 1061.06 1087.49
00000192 00000056 463.71 425.24 651.00 912.38 731.64 815.94 1011.68 754.81 991.86 967.53 810.60 1136.19 1052.06 1090.62
00000193 00000057 449.77 410.15 652.37 942.34 714.64 824.37 1000.19 758.15 976.45 973.75 798.88 1148.02 1043.90 1098.83
00000194 00000058 433.47 399.86 666.13 965.26 698.20 832.44 993.23 757.23 964.58 986.22 788.52 1160.64 1041.89 1104.63
00000195 00000059 408.42 419.26 685.41 959.59 689.78 839.26 988.04 766.22 956.17 997.88 783.01 1170.11 1035.04 1115.63
00000196 00000060 392.64 431.09 700.49 978.97 682.28 846.75 982.38 770.19 956.22 1012.79 770.90 1184.39 1029.18 1127.99
00000197 00000061 392.70 426.76 701.62 997.74 672.13 856.95 974.16 780.22 948.00 1023.30 761.11 1196.58 1027.22 1140.17
00000198 00000062 389.77 449.17 713.38 988.42 665.82 872.82 971.79 785.31 950.76 1048.15 758.12 1212.27 1030.17 1147.61
00000199 00000063 379.24 449.95 723.32 1001.15 660.98 890.53 984.21 789.79 960.28 1059.52 774.02 1239.88 1039.93 1156.39
00000200 00000064 389.61 471.23 724.71 993.77 672.52 910.75 995.03 801.85 976.06 1075.23 782.95 1254.14 1048.71 1164.30
00000201 00000065 398.10 465.96 728.64 1006.17 691.76 926.95 1003.40 803.40 999.24 1081.19 798.40 1265.04 1058.45 1164.80
00000202 00000066 439.26 502.56 710.35 953.21 706.38 920.97 1021.87 804.66 1012.50 1093.08 814.09 1260.70 1091.19 1173.53
00000203 00000067 441.91 465.31 741.41 1030.60 728.72 934.60 1057.16 791.26 1060.16 1078.42 832.76 1291.21 1111.57 1178.23
00000204 00000068 451.25 451.63 751.89 1054.54 745.74 952.41 1066.34 796.04 1071.95 1092.13 846.03 1298.50 1131.27 1175.10
00000205 00000069 475.82 481.92 743.33 1032.65 747.10 957.69 1073.23 819.50 1055.73 1100.00 894.36 1287.32 1181.93 1176.19
00000206 00000070 476.55 513.08 775.94 1027.27 757.24 1007.86 1097.18 851.61 1064.05 1131.03 902.47 1348.00 1181.21 1222.42
00000207 00000071 489.50 550.89 785.21 1015.19 772.86 1046.25 1122.80 880.53 1086.78 1187.04 915.73 1378.35 1199.69 1244.94
00000208 00000072 507.58 591.67 797.56 990.34 800.66 1070.71 1157.73 890.10 1133.93 1219.13 930.69 1393.70 1225.77 1248.24
00000209 00000073 558.10 578.98 792.48 1015.22 849.60 1088.61 1195.56 902.29 1175.07 1246.45 961.69 1404.69 1256.28 1255.21
00000210 00000074 610.69 610.86 762.43 992.73 874.87 1073.10 1234.15 921.29 1191.49 1237.45 1030.53 1410.46 1314.32 1290.89
00000211 00000075 639.97 626.04 762.24 981.31 917.15 1080.87 1262.96 941.06 1222.96 1264.34 1054.67 1417.82 1319.66 1307.34
00000212 00000076 654.69 618.77 766.48 1001.64 944.05 1092.00 1286.22 947.26 1254.29 1272.57 1063.01 1424.98 1333.48 1309.33
00000213 00000077 687.54 610.94 769.79 1041.53 973.11 1107.71 1317.26 945.45 1290.34 1282.12 1079.23 1436.38 1377.89 1305.54
00000214 00000078 704.59 629.85 782.59 1017.62 1004.86 1105.78 1343.74 947.82 1325.07 1291.17 1093.73 1440.91 1396.90 1315.84
00000215 00000079 754.16 606.35 739.13 1027.33 1000.95 1100.96 1360.06 964.18 1292.06 1294.66 1124.97 1422.73 1433.21 1314.01
00000216 00000080 771.56 609.23 750.13 1028.15 1021.36 1100.69 1370.97 967.50 1303.98 1300.34 1145.09 1418.85 1448.50 1311.70
00000217 00000081 791.00 628.03 750.03 1007.25 1044.59 1095.44 1395.64 968.86 1328.93 1308.54 1163.26 1418.96 1465.21 1317.60
00000218 00000082 804.46 628.14 748.60 991.51 1071.85 1090.59 1420.53 971.97 1355.54 1299.56 1187.47 1419.05 1466.75 1323.28
00000219 00000083 831.00 612.22 730.83 1005.36 1096.88 1102.07 1435.65 972.75 1385.12 1295.21 1197.51 1419.89 1477.56 1315.96
00000220 00000084 855.43 612.84 726.97 1008.98 1121.76 1098.13 1459.46 956.47 1417.10 1287.79 1222.32 1425.62 1495.25 1312.14
00000221 00000085 886.17 604.78 709.98 995.59 1157.99 1098.98 1488.96 964.80 1421.85 1284.02 1255.20 1406.18 1539.11 1302.28
00000222 00000086 917.75 614.31 688.02 981.55 1156.39 1074.33 1501.47 960.42 1426.70 1284.56 1271.75 1404.83 1548.03 1314.71
00000223 00000087 924.49 609.87 694.97 974.34 1172.31 1063.37 1515.20 951.64 1443.78 1265.59 1286.77 1390.50 1559.53 1301.82
00000224 00000088 934.95 571.66 700.54 987.23 1189.71 1056.74 1509.87 933.36 1463.05 1258.54 1297.58 1378.45 1556.33 1284.95
00000225 00000089 950.32 578.50 695.96 971.01 1203.48 1048.53 1513.60 927.32 1478.66 1241.81 1309.58 1367.62 1564.43 1275.36
00000226 00000090 976.16 564.14 671.17 963.27 1217.77 1038.04 1521.58 917.93 1489.62 1228.16 1321.27 1352.14 1573.92 1259.57
00000227 00000091 985.07 560.46 661.56 949.97 1220.65 1027.08 1535.94 910.04 1485.82 1219.58 1325.11 1344.00 1580.23 1256.54
00000228 00000092 993.53 560.34 653.54 944.94 1230.59 1016.94 1547.58 901.01 1496.10 1206.73 1331.73 1329.26 1591.05 1242.07
00000229 00000093 1008.91 563.14 646.04 936.53 1241.56 1007.51 1555.26 892.20 1508.98 1192.05 1344.25 1315.57 1603.40 1227.80
00000230 00000094 1023.80 551.67 637.85 938.77 1255.52 997.99 1562.82 886.66 1516.83 1180.16 1363.80 1308.27 1610.78 1222.59
00000231 00000095 1037.50 561.59 630.19 918.95 1271.17 992.88 1570.89 883.81 1532.40 1171.48 1370.52 1294.71 1615.48 1211.02
00000232 00000096 1050.51 543.88 623.99 931.39 1282.76 984.45 1572.01 879.73 1541.41 1160.76 1379.16 1287.45 1618.00 1206.61
00000233 00000097 1060.31 530.15 616.40 932.41 1287.69 978.43 1577.07 870.11 1554.81 1150.37 1380.86 1288.76 1623.99 1207.72
00000234 00000098 1080.12 521.16 585.30 930.76 1290.65 960.47 1580.84 857.03 1546.98 1141.77 1386.55 1278.29 1622.71 1202.82
00000235 00000099 1083.98 510.32 580.27 912.85 1292.26 951.23 1576.78 854.39 1544.83 1128.96 1386.65 1264.00 1619.61 1192.69
00000236 00000100 1078.21 503.12 587.22 901.55 1290.94 938.05 1567.14 848.48 1540.86 1107.42 1385.91 1256.97 1618.51 1186.87
00000237 00000101 1079.91 511.17 583.32 878.37 1291.28 927.01 1562.85 838.60 1537.40 1096.35 1390.39 1249.01 1615.64 1179.16
00000238 00000102 1079.75 520.45 574.25 870.68 1290.31 926.05 1555.10 837.11 1539.62 1093.83 1383.67 1247.23 1608.87 1177.46
00000239 00000103 1081.08 520.19 567.10 866.34 1290.32 926.13 1551.22 836.59 1537.40 1092.93 1380.20 1243.46 1604.64 1173.37
00000240 00000104 1081.68 519.16 556.16 865.73 1287.91 925.61 1543.53 837.09 1532.95 1090.90 1377.57 1239.04 1596.50 1170.11
00000241 00000105 1080.99 539.60 548.54 838.52 1286.39 926.83 1540.16 840.67 1527.79 1090.01 1370.63 1224.56 1578.68 1161.17
00000242 00000106 1073.33 543.53 551.68 834.41 1278.86 926.48 1536.29 841.28 1522.76 1089.86 1361.33 1224.34 1573.84 1161.40
00000243 00000107 1065.13 538.61 543.71 829.46 1270.76 926.71 1527.21 840.76 1508.08 1088.95 1362.44 1224.12 1568.15 1160.72
00000244 00000108 1065.55 552.61 536.05 790.93 1268.30 922.22 1515.91 849.39 1491.79 1083.59 1371.51 1228.07 1558.75 1171.98
00000245 00000109 1060.46 555.49 535.12 792.56 1264.11 926.16 1512.18 854.04 1487.91 1086.13 1373.24 1234.37 1555.53 1178.76
00000246 00000110 1060.26 560.72 530.05 781.50 1263.15 928.19 1508.70 858.25 1483.83 1087.64 1376.11 1237.36 1550.05 1183.51
00000247 00000111 1057.26 559.10 528.66 778.61 1258.66 932.33 1501.78 860.20 1477.86 1087.86 1372.91 1239.03 1544.10 1183.63
00000248 00000112 1057.72 566.15 519.85 771.59 1251.85 932.87 1494.74 859.73 1470.42 1088.45 1365.04 1239.77 1537.05 1183.31
00000249 00000113 1056.54 568.63 514.65 771.52 1246.08 930.17 1488.48 857.22 1465.96 1084.54 1357.16 1238.11 1529.77 1181.69
00000250 00000114 1054.47 567.06 516.02 766.63 1242.83 927.58 1489.47 856.72 1462.83 1082.99 1349.42 1237.23 1524.44 1182.12
00000251 00000115 1053.63 564.63 512.22 763.96 1242.87 923.85 1487.52 853.21 1461.36 1079.24 1342.19 1232.17 1515.73 1177.32
00000252 00000116 1055.26 577.28 511.13 749.52 1243.77 916.93 1487.52 847.56 1461.00 1076.15 1335.20 1226.58 1514.28 1172.35
00000253 00000117 1058.78 585.35 507.66 733.86 1247.34 915.55 1485.51 843.61 1462.13 1072.43 1335.53 1218.85 1515.13 1162.90
00000254 00000118 1064.35 591.41 504.51 723.90 1254.30 913.60 1484.36 839.18 1466.88 1067.36 1340.29 1204.18 1520.05 1146.50
00000255 00000119 1070.48 589.48 504.81 713.87 1265.57 909.60 1486.20 834.22 1470.51 1061.90 1345.56 1184.20 1522.35 1125.69
00000256 00000120 1078.07 586.11 497.99 708.33 1273.49 907.00 1489.62 833.72 1472.47 1054.03 1346.26 1175.43 1521.37 1119.17
00000257 00000121 1082.56 586.90 497.64 704.47 1275.94 906.99 1491.78 830.28 1477.53 1046.74 1343.56 1166.06 1524.61 1107.86
00000258 00000122 1089.08 583.75 495.33 695.03 1280.59 894.85 1496.43 822.29 1475.95 1033.38 1354.53 1153.57 1531.38 1098.15
CROP_BBOX: 119 0 1936 1930
