Video ID: 	ozOIt7S83g4
H: 	1080
W: 	1920
FPS: 	25.0

FRAME INDEX X0 Y0 W H [Landmarks (5 Points)]

00032425 00000000 574.03 148.83 512.13 749.40 744.64 435.90 975.51 461.44 867.40 603.23 730.99 704.33 934.36 726.15
00032426 00000001 563.12 147.43 510.31 745.91 728.16 434.22 958.70 455.07 847.04 597.74 728.80 704.40 917.94 722.66
00032427 00000002 557.74 136.37 509.60 760.21 711.65 429.04 947.30 447.05 832.20 590.54 706.05 696.78 906.80 712.38
00032428 00000003 546.46 135.42 507.18 767.69 700.24 428.85 932.95 444.50 821.14 591.01 694.12 695.36 898.38 708.75
00032429 00000004 540.28 136.08 500.89 767.22 688.76 431.86 922.24 443.64 811.66 593.21 682.28 692.98 898.34 702.71
00032430 00000005 531.60 132.36 504.72 770.81 681.59 431.52 914.90 443.65 803.94 591.42 674.94 690.90 892.83 700.90
00032431 00000006 526.77 133.10 504.70 770.80 675.30 431.13 908.60 443.78 796.97 595.28 667.96 688.93 890.38 699.20
00032432 00000007 519.52 137.88 508.09 764.94 674.67 431.80 901.92 443.63 795.31 591.69 673.79 689.79 886.11 698.92
00032433 00000008 517.67 138.00 508.68 764.57 672.49 431.57 900.04 443.79 792.65 593.19 672.48 690.59 884.38 700.02
00032434 00000009 516.96 138.73 509.20 765.27 671.12 431.58 898.76 444.99 790.68 594.40 671.19 690.81 883.64 701.15
00032435 00000010 517.74 140.80 510.24 764.85 671.16 432.04 900.16 446.57 790.59 597.29 670.87 693.85 882.62 705.29
00032436 00000011 520.62 143.26 509.73 761.77 672.34 433.34 901.97 447.61 791.47 599.30 672.48 696.66 881.35 708.11
00032437 00000012 530.29 138.60 503.38 769.57 673.84 436.73 908.80 453.20 792.79 603.97 666.64 699.26 883.19 712.83
00032438 00000013 533.84 140.31 501.98 772.15 677.24 437.90 911.59 456.24 795.10 604.54 668.41 701.77 883.63 716.97
00032439 00000014 530.18 146.11 508.81 773.96 684.38 439.77 912.55 458.74 801.22 604.85 676.30 705.15 886.67 720.96
00032440 00000015 533.27 146.70 512.42 777.93 690.43 441.08 919.90 460.75 809.52 606.03 680.99 707.85 888.81 724.33
00032441 00000016 543.06 143.09 509.05 773.17 698.31 448.43 925.51 468.83 813.69 607.59 689.92 711.74 887.43 729.17
00032442 00000017 551.77 139.13 508.86 768.20 709.32 445.95 935.34 466.82 822.89 602.30 706.47 714.29 888.37 732.13
00032443 00000018 556.57 138.66 513.12 765.83 726.45 435.04 952.04 457.89 847.23 593.29 722.50 709.07 900.92 728.52
00032444 00000019 563.16 140.56 514.43 756.73 747.01 429.23 968.49 452.72 871.43 586.70 741.31 706.16 913.92 726.08
00032445 DELETE   564.38 134.39 512.50 761.93 757.70 426.16 979.28 446.10 893.44 589.44 767.73 710.67 933.10 725.77
00032446 00000021 581.18 128.35 504.34 772.29 777.71 424.46 996.56 440.72 913.19 579.70 779.20 700.58 953.00 714.17
00032447 00000022 587.77 123.81 499.12 759.87 784.30 418.46 1003.28 433.12 925.26 567.87 786.59 686.43 969.65 698.04
00032448 00000023 589.35 114.64 497.45 766.32 788.81 409.32 1005.41 429.94 929.07 561.84 782.78 673.77 976.69 690.04
00032449 00000024 582.13 112.41 500.43 778.75 785.53 404.66 999.45 429.01 924.68 559.85 771.54 669.74 970.33 689.23
00032450 00000025 576.40 110.73 498.70 775.06 776.14 403.60 992.24 426.22 917.33 562.06 757.80 666.55 965.54 685.11
00032451 00000026 561.85 115.52 506.43 772.74 762.79 405.32 979.71 423.03 902.97 558.65 755.57 669.34 954.65 682.56
00032452 00000027 558.07 113.71 498.93 775.71 747.85 405.21 965.80 422.26 885.69 555.17 741.20 670.45 942.53 682.79
00032453 00000028 551.19 109.88 502.17 777.16 736.94 404.19 953.37 420.83 869.63 556.92 730.06 669.47 934.22 681.09
00032454 00000029 548.23 111.04 501.19 770.25 719.30 406.43 945.55 425.51 853.53 557.91 711.44 662.99 929.18 677.87
00032455 00000030 538.39 112.74 499.99 763.61 707.77 409.28 933.84 424.43 842.27 561.42 702.44 664.15 918.93 675.83
00032456 00000031 531.67 112.52 502.08 766.07 695.58 411.07 925.31 420.48 831.68 563.52 693.38 668.94 912.90 676.17
00032457 00000032 527.41 115.39 502.24 764.77 691.07 413.25 920.97 422.39 825.10 566.51 686.56 669.79 906.68 677.09
00032458 00000033 525.19 117.19 502.76 768.54 689.47 416.34 920.39 426.89 823.21 568.95 681.73 671.58 904.05 680.14
00032459 00000034 526.10 122.60 501.77 768.37 688.40 421.48 919.36 431.66 820.26 577.89 682.20 679.16 900.38 687.51
00032460 00000035 531.23 128.52 502.30 766.89 691.64 428.22 922.88 436.89 820.01 585.92 689.24 692.37 891.66 700.08
00032461 00000036 540.58 132.88 500.56 765.76 697.60 429.23 928.52 438.58 824.50 591.39 702.11 701.15 891.65 709.67
00032462 00000037 538.80 136.38 511.75 758.90 706.49 429.10 932.41 447.33 829.85 598.71 713.72 704.68 887.62 719.36
00032463 00000038 546.45 139.99 511.72 763.18 719.01 429.31 942.50 452.40 838.15 598.85 720.06 708.04 889.16 726.74
00032464 00000039 550.75 140.65 513.60 764.01 730.38 426.72 951.73 456.00 846.25 598.58 723.99 706.35 893.27 730.15
00032465 00000040 560.78 146.87 511.45 750.81 733.57 431.71 960.36 455.74 851.28 596.47 736.19 709.63 907.61 730.63
00032466 00000041 569.50 143.30 513.23 753.79 740.84 431.13 969.62 456.95 858.48 598.19 740.34 708.20 916.48 730.68
00032467 00000042 576.53 141.26 511.43 754.65 749.55 430.71 978.64 459.24 868.42 600.99 746.26 708.84 921.42 733.53
00032468 00000043 582.93 145.16 511.20 756.58 756.27 432.74 985.20 463.18 876.22 604.23 748.75 714.28 923.62 740.86
00032469 00000044 587.09 150.81 511.25 749.01 762.09 435.85 988.64 467.35 880.37 609.14 754.12 713.91 926.81 741.20
00032470 00000045 591.07 150.24 512.71 751.33 768.51 435.90 992.99 468.62 885.01 612.56 758.81 711.84 930.84 739.88
00032471 00000046 597.35 151.98 510.97 755.85 778.72 435.88 997.52 468.52 892.29 615.44 766.85 713.81 935.58 741.80
00032472 00000047 604.70 151.78 509.51 757.60 784.65 437.26 1007.07 472.78 899.22 617.44 769.02 715.08 941.69 745.28
00032473 00000048 606.52 150.90 511.46 756.80 787.71 436.96 1010.87 476.21 900.59 618.85 769.67 713.01 941.26 746.26
00032474 00000049 606.98 150.66 511.42 755.06 787.40 436.83 1010.63 476.61 899.44 618.57 768.80 711.21 941.03 744.87
00032475 00000050 606.37 150.97 510.34 754.21 787.11 435.30 1008.41 475.61 897.35 619.24 766.21 709.90 937.21 744.24
00032476 00000051 604.31 151.04 509.50 754.90 786.45 435.45 1005.39 474.14 896.87 618.19 766.61 711.02 935.06 744.05
00032477 00000052 599.29 150.54 511.39 755.38 781.86 435.40 1002.96 473.16 895.57 616.98 761.46 710.32 938.38 742.53
00032478 00000053 592.43 152.30 513.94 770.73 777.49 434.73 1000.02 471.82 893.99 613.26 751.67 712.87 940.21 744.44
00032479 00000054 585.91 149.92 515.89 772.27 772.48 435.00 995.90 469.11 891.52 609.12 749.45 710.34 944.00 739.22
00032480 00000055 584.16 148.98 514.87 768.71 768.75 436.52 991.88 469.67 888.90 609.26 746.53 706.53 944.99 734.41
00032481 00000056 582.20 147.23 513.23 765.57 764.65 437.10 988.98 470.19 884.67 608.33 744.81 705.34 944.40 733.20
00032482 00000057 580.59 147.57 512.87 760.35 760.46 439.12 987.84 471.81 881.19 612.52 742.57 707.06 939.92 734.79
00032483 00000058 578.06 149.47 513.26 754.11 756.24 438.78 986.51 473.45 876.12 615.22 738.02 707.38 931.60 736.87
00032484 00000059 575.94 150.46 513.71 750.25 752.92 437.03 982.90 472.04 870.86 612.41 738.24 707.16 925.35 737.21
00032485 00000060 571.64 148.65 512.78 749.27 748.08 435.17 978.30 469.05 866.56 609.77 734.79 705.16 921.85 734.28
00032486 00000061 565.81 147.85 511.63 750.45 739.68 434.62 970.10 465.50 859.18 606.02 727.81 704.80 917.03 731.56
00032487 00000062 562.18 136.43 509.42 770.49 728.33 437.89 953.54 464.23 844.20 596.37 715.70 697.68 912.02 719.52
00032488 00000063 557.73 132.61 505.60 771.54 720.43 434.08 945.89 461.10 836.82 592.48 703.59 688.97 907.58 711.23
00032489 00000064 555.26 129.48 508.13 772.05 719.02 425.14 949.65 450.26 842.01 584.49 701.10 675.94 921.42 696.08
00032490 00000065 555.58 127.93 511.88 770.18 727.95 418.20 956.48 444.68 855.27 580.56 705.45 666.07 930.45 687.39
00032491 00000066 559.42 121.85 503.52 774.55 739.69 411.42 961.06 441.64 866.75 573.94 710.24 660.64 933.72 685.22
00032492 00000067 556.92 113.73 502.51 770.23 738.39 403.79 961.88 429.57 870.26 565.75 716.88 656.56 939.06 677.50
00032493 00000068 551.07 101.30 504.47 773.59 733.92 396.94 955.65 422.96 865.40 557.63 713.31 653.23 930.07 674.44
00032494 00000069 542.79 97.10 500.96 768.64 719.41 392.99 941.88 414.56 851.28 547.24 705.48 651.16 917.54 668.53
00032495 00000070 531.28 92.06 501.57 769.47 705.35 388.11 926.41 405.14 834.12 538.42 697.32 651.61 903.79 665.26
00032496 00000071 522.90 91.28 504.74 768.28 693.87 386.87 916.08 401.85 821.57 536.80 687.92 651.16 892.61 663.72
00032497 00000072 515.67 91.64 506.27 761.09 687.38 384.35 909.79 401.72 812.01 535.57 680.12 648.25 882.32 662.91
00032498 00000073 510.99 93.08 506.73 756.33 680.77 385.90 904.46 400.83 804.37 533.75 675.03 649.57 876.51 662.38
00032499 00000074 508.93 95.82 505.63 758.19 676.90 383.60 900.77 400.37 799.47 536.03 669.76 649.35 873.17 663.70
00032500 00000075 507.65 98.07 506.37 761.59 674.97 385.50 899.35 401.20 798.04 537.30 668.56 652.60 873.44 666.07
00032501 00000076 509.96 102.19 506.45 763.54 675.84 388.63 900.95 403.59 800.06 543.33 667.34 655.52 878.08 668.33
00032502 00000077 514.24 105.10 505.71 766.37 680.20 395.15 904.65 409.93 803.78 551.00 669.70 660.94 880.97 673.78
00032503 00000078 519.22 108.93 504.35 763.86 684.57 401.46 909.56 417.36 807.68 556.83 673.88 665.04 883.92 678.73
00032504 00000079 522.41 112.83 505.39 759.84 687.19 405.65 914.81 424.16 810.69 563.08 673.68 665.99 886.70 681.64
00032505 00000080 529.25 114.52 503.16 758.20 692.15 408.47 920.39 427.63 815.36 566.63 678.82 666.24 890.64 682.30
00032506 00000081 535.97 116.61 500.88 758.26 698.80 408.06 927.60 429.98 822.34 567.44 682.59 666.60 893.30 684.67
00032507 00000082 540.97 115.39 504.19 766.21 708.76 409.10 938.12 437.21 829.49 569.34 686.10 670.96 892.93 694.15
00032508 00000083 549.19 117.27 506.40 762.89 719.39 412.31 947.93 442.01 839.62 570.19 699.88 678.85 891.78 703.87
00032509 00000084 556.82 122.65 509.98 759.11 730.34 411.90 956.14 446.09 847.75 572.72 708.79 678.77 897.78 707.26
00032510 00000085 561.82 126.20 516.64 756.69 740.50 414.80 965.68 449.82 856.41 578.62 720.07 682.76 906.55 711.84
00032511 00000086 569.08 123.99 514.86 763.94 741.58 418.74 975.29 454.62 859.11 590.50 729.29 692.25 916.82 722.60
00032512 00000087 576.66 128.34 516.80 762.86 753.90 420.12 983.99 456.33 870.00 595.11 739.59 695.44 921.08 726.09
00032513 00000088 583.86 137.68 513.42 747.24 766.10 422.47 989.52 458.99 881.82 601.04 755.05 695.59 922.59 726.69
00032514 00000089 584.70 137.54 515.18 753.70 770.80 421.51 989.95 457.85 885.64 599.00 757.34 694.58 925.71 725.39
00032515 00000090 584.90 138.52 514.11 754.34 769.37 420.53 992.37 458.04 887.87 598.00 748.15 692.44 932.67 724.26
00032516 00000091 581.14 135.91 517.61 757.90 762.43 417.86 989.14 454.45 880.77 594.38 739.94 689.28 931.74 720.32
00032517 00000092 573.30 132.41 518.08 758.35 756.21 417.19 984.16 453.13 875.68 592.14 733.35 686.38 930.24 716.94
00032518 00000093 572.21 127.77 511.75 762.33 753.52 417.01 982.35 455.72 875.09 589.95 722.70 681.36 927.76 714.50
00032519 00000094 565.68 131.82 515.70 757.31 752.75 419.94 978.25 456.31 872.32 593.89 736.10 688.83 923.99 719.99
00032520 00000095 564.81 132.17 517.51 760.38 754.41 418.32 975.50 455.07 872.73 583.12 730.76 685.25 917.13 715.90
00032521 00000096 563.38 132.70 515.46 756.84 746.04 418.95 967.84 451.81 863.24 585.60 727.74 687.82 911.55 715.17
00032522 00000097 558.40 129.63 512.20 762.56 732.42 421.43 956.48 448.55 851.91 586.32 720.78 692.39 905.51 714.96
00032523 00000098 551.04 123.09 504.88 766.89 720.02 430.86 942.48 451.55 840.08 587.47 711.85 692.41 897.63 709.60
00032524 00000099 544.68 124.30 502.57 764.75 710.91 433.23 937.73 451.87 833.52 590.61 699.91 691.94 894.10 707.60
00032525 00000100 540.47 127.04 500.76 769.92 706.16 431.00 935.10 447.79 831.82 592.35 694.97 692.13 894.93 706.37
00032526 00000101 534.21 128.97 501.38 766.99 700.02 430.76 928.04 443.82 826.79 593.33 690.15 691.41 891.38 702.81
00032527 00000102 524.28 126.01 501.29 766.67 688.89 427.89 916.69 440.04 815.34 590.69 679.88 687.06 885.40 697.72
00032528 00000103 513.15 123.37 502.49 763.71 679.18 426.80 908.84 441.32 805.95 590.11 670.01 681.68 882.61 693.77
00032529 00000104 505.02 124.21 501.36 767.56 672.59 422.11 902.15 440.64 800.64 589.97 658.73 676.36 880.80 691.54
00032530 00000105 495.87 127.15 508.93 770.97 673.48 425.61 895.83 438.07 803.90 587.16 661.81 678.57 882.59 688.47
00032531 00000106 498.71 121.88 502.26 772.09 676.62 425.39 904.92 439.53 813.72 590.51 656.48 671.54 889.36 682.79
00032532 00000107 498.77 118.18 500.50 768.74 681.44 425.71 907.30 435.31 822.62 586.81 665.70 670.61 893.33 678.11
00032533 00000108 496.58 115.99 501.82 769.44 685.84 424.00 909.42 431.91 830.54 581.01 670.56 668.86 894.95 675.14
00032534 00000109 494.03 111.64 501.92 773.32 686.90 421.03 907.64 428.43 833.56 577.20 672.92 668.25 894.83 674.03
00032535 00000110 492.98 108.93 497.43 772.60 685.91 419.63 905.26 425.24 834.28 573.31 672.22 665.94 895.42 670.05
00032536 00000111 483.04 111.85 498.53 775.40 673.03 414.47 893.92 418.72 822.29 566.56 673.82 672.46 886.98 674.02
00032537 00000112 476.30 108.10 496.71 786.83 661.41 412.54 877.78 413.88 809.49 561.72 664.30 675.46 874.50 674.15
00032538 00000113 471.88 110.80 493.28 785.60 647.34 417.70 869.00 410.01 796.35 564.81 658.94 679.70 867.64 671.50
00032539 00000114 467.17 112.78 494.34 775.33 643.78 417.05 864.88 406.15 793.17 561.08 659.01 676.37 867.57 665.23
00032540 00000115 464.75 104.64 494.33 777.45 644.92 408.40 862.73 402.56 798.10 554.65 657.03 664.82 875.05 659.02
00032541 00000116 465.17 103.76 494.64 771.97 647.44 406.58 862.91 399.02 802.49 547.82 663.53 663.46 876.89 656.26
00032542 00000117 463.11 102.89 496.63 773.25 649.90 404.11 861.90 394.90 805.60 544.83 665.21 661.76 877.68 653.33
00032543 00000118 456.83 98.84 498.66 774.46 645.87 402.28 856.80 392.43 800.54 542.54 664.21 661.34 873.88 652.30
00032544 00000119 446.34 98.54 500.45 773.00 637.00 401.55 845.49 389.95 791.72 538.78 655.41 658.03 865.69 647.71
00032545 00000120 432.62 94.80 501.72 776.28 625.23 403.34 836.19 390.05 784.57 536.68 640.85 654.55 857.73 642.72
00032546 00000121 422.22 104.14 505.14 760.51 609.64 407.04 833.16 382.59 774.45 534.68 636.09 660.86 848.93 638.40
00032547 00000122 414.87 99.58 503.63 759.84 603.13 403.48 824.62 379.99 768.50 533.12 636.04 660.58 840.90 638.45
00032548 00000123 409.23 93.49 496.18 755.48 599.83 398.05 812.17 381.61 761.08 532.50 637.67 661.10 829.24 645.91
00032549 00000124 412.14 89.48 485.64 751.79 590.75 400.93 810.56 378.01 754.85 527.28 637.36 657.05 824.29 637.14
00032550 00000125 406.94 92.51 484.11 744.56 584.35 406.06 804.40 381.59 747.04 532.42 632.07 661.74 814.44 640.99
00032551 00000126 395.30 99.67 490.91 759.89 582.23 404.10 793.96 389.77 740.37 544.42 625.14 675.85 805.63 662.25
00032552 00000127 388.82 101.74 495.29 775.43 574.54 412.90 789.26 394.34 734.45 554.11 620.80 688.59 802.76 671.97
00032553 00000128 382.41 111.69 494.53 773.94 561.77 427.33 777.48 405.40 718.63 560.57 610.02 695.37 794.80 675.84
00032554 00000129 371.55 119.16 498.27 779.13 543.45 439.84 765.92 414.90 699.83 572.37 592.02 706.01 783.27 684.32
00032555 00000130 358.32 137.39 501.33 761.96 524.65 447.61 747.40 418.21 683.47 587.93 573.69 718.10 761.53 692.07
00032556 00000131 350.07 140.89 503.48 764.98 508.16 453.19 736.01 423.09 665.81 595.03 552.01 717.35 757.31 691.13
00032557 00000132 346.08 143.83 503.93 768.13 497.53 458.61 727.82 428.95 651.27 598.36 537.74 715.88 752.29 690.13
00032558 00000133 342.56 147.85 509.40 766.78 490.44 462.00 721.13 433.62 639.39 603.08 531.38 716.92 746.83 692.02
00032559 00000134 343.58 150.25 510.83 767.90 488.47 463.50 721.13 439.24 633.57 603.40 523.93 715.52 743.53 694.27
00032560 00000135 348.54 149.61 514.25 773.58 497.16 462.78 723.99 441.60 631.78 608.69 526.84 718.21 744.51 698.68
00032561 00000136 355.34 146.90 512.61 773.30 501.67 454.49 730.45 440.34 635.14 607.54 534.26 718.34 744.95 704.94
00032562 00000137 366.24 143.45 508.13 755.37 512.94 446.99 746.66 431.06 653.93 597.41 549.98 714.18 745.96 699.55
00032563 00000138 383.25 131.79 500.56 763.57 532.42 442.25 765.97 431.15 670.18 596.82 557.84 701.51 764.76 692.31
00032564 00000139 395.64 130.07 499.02 767.85 550.36 437.87 782.33 425.88 692.87 588.79 576.78 700.46 779.26 690.75
00032565 00000140 403.46 125.81 506.38 769.82 564.32 431.28 798.30 424.81 710.24 581.29 587.08 692.61 794.07 687.16
00032566 00000141 405.51 120.08 505.17 766.80 574.63 426.46 799.67 420.05 721.88 575.63 594.60 684.80 804.38 677.01
00032567 00000142 412.19 115.30 499.52 771.07 580.34 420.93 803.80 413.86 728.60 571.15 596.74 678.53 811.26 670.19
00032568 00000143 415.26 111.78 503.29 776.28 587.23 417.38 809.18 411.32 733.30 569.15 599.29 673.80 814.93 666.40
00032569 00000144 425.36 114.82 499.68 771.25 594.08 421.11 817.10 411.82 736.65 568.16 606.98 676.56 819.68 668.24
00032570 00000145 429.37 110.83 500.39 774.17 598.68 420.03 822.27 411.93 740.97 566.82 611.46 676.18 824.17 668.79
00032571 00000146 433.26 102.32 500.56 783.97 609.97 412.77 829.47 413.06 751.83 564.59 610.99 668.67 829.51 668.29
00032572 00000147 435.30 102.89 501.30 767.74 614.15 411.91 835.98 414.14 755.75 564.18 617.10 671.32 825.71 672.94
00032573 00000148 439.74 95.44 501.86 779.29 615.85 409.18 842.41 412.03 755.13 560.53 625.10 671.99 824.92 673.39
00032574 00000149 445.78 97.00 500.19 771.71 617.93 408.75 845.54 410.79 756.50 559.76 629.82 670.50 828.12 671.30
00032575 00000150 450.53 103.52 498.22 759.44 625.40 408.54 846.58 414.55 759.89 562.41 629.57 667.42 828.23 672.18
00032576 00000151 454.51 104.44 499.88 761.70 627.21 409.28 850.55 415.02 761.72 565.46 631.33 669.55 829.12 674.25
00032577 00000152 459.71 107.71 498.18 756.68 628.72 411.08 853.16 416.51 763.12 567.15 635.14 672.22 830.12 676.62
00032578 00000153 464.22 110.78 496.73 756.52 631.47 412.53 856.56 418.71 765.40 567.27 638.22 675.20 832.80 680.21
00032579 00000154 467.41 112.49 498.35 762.48 634.15 415.45 859.54 422.44 766.91 568.44 640.62 678.94 833.43 684.78
00032580 00000155 472.36 116.25 501.45 761.13 637.03 415.57 862.93 423.57 768.25 568.84 645.11 680.39 834.94 687.10
00032581 00000156 478.42 118.60 502.36 765.98 641.04 419.33 865.92 426.81 770.79 572.28 650.81 684.69 840.14 691.15
00032582 00000157 480.04 123.09 504.56 764.79 640.91 420.17 868.16 429.66 771.48 582.35 657.75 692.34 839.73 698.90
00032583 00000158 482.77 123.30 505.20 767.44 645.28 421.62 871.73 433.29 774.01 581.77 656.21 692.30 842.94 700.71
00032584 00000159 480.06 122.04 505.81 772.41 645.34 421.38 872.44 436.33 775.37 578.98 644.72 685.79 844.26 696.93
00032585 00000160 476.34 120.39 507.66 774.62 639.43 418.30 871.94 435.43 766.78 571.83 630.29 675.91 845.06 689.75
CROP_BBOX: 145 0 1315 1080
