Video ID: 	NxNMIlH2SIU
H: 	1080
W: 	1920
FPS: 	25.0

FRAME INDEX X0 Y0 W H [Landmarks (5 Points)]

00002281 00000000 676.40 60.30 541.40 755.39 807.66 342.17 1074.45 340.19 936.40 488.37 845.34 641.78 1035.63 640.58
00002282 00000001 671.85 57.73 538.06 754.68 795.21 340.43 1062.64 338.02 920.80 485.98 831.47 639.74 1021.76 638.36
00002283 00000002 665.80 61.35 540.33 737.33 786.97 339.83 1052.48 338.35 910.69 477.08 823.91 631.93 1016.15 630.49
00002284 00000003 664.98 60.82 535.78 735.86 788.90 334.10 1048.79 337.96 907.89 480.03 813.20 631.04 1005.61 634.55
00002285 00000004 656.62 63.15 538.82 741.54 783.05 336.93 1044.63 341.64 904.01 482.59 807.16 635.18 1002.62 638.93
00002286 00000005 651.55 63.97 539.95 745.83 782.22 339.67 1042.37 345.03 905.53 487.31 808.14 637.60 1002.47 641.57
00002287 00000006 651.86 78.35 528.59 733.66 774.04 345.43 1036.21 346.92 899.19 491.85 806.93 639.22 1002.37 639.44
00002288 00000007 649.36 81.96 527.59 732.82 771.28 347.78 1033.97 347.02 898.43 495.58 808.06 643.50 1003.87 641.93
00002289 DELETE   646.84 82.85 527.95 733.12 769.87 349.56 1031.95 347.07 898.48 496.45 809.43 645.29 1003.54 642.35
00002290 00000009 644.77 81.49 528.30 733.60 766.93 351.66 1030.06 347.06 897.32 498.56 809.43 647.64 1004.00 642.80
00002291 00000010 643.38 80.97 526.41 734.55 766.30 352.88 1028.18 347.57 897.10 498.44 808.46 647.94 1003.87 642.41
00002292 00000011 642.63 79.91 524.98 736.70 765.27 353.23 1026.55 347.01 896.61 498.25 807.89 648.42 1003.57 642.17
00002293 00000012 641.80 81.93 523.61 733.43 765.27 353.27 1025.73 346.85 896.97 497.46 808.24 647.73 1003.46 641.28
00002294 00000013 641.44 83.95 522.47 731.59 766.19 353.75 1025.18 347.20 897.64 496.32 809.36 646.59 1003.98 639.99
00002295 00000014 642.62 85.75 520.54 729.38 767.29 356.72 1026.02 349.87 899.52 495.90 810.67 647.02 1005.70 640.18
00002296 00000015 644.07 92.29 518.21 722.10 768.61 359.00 1027.29 350.68 901.56 497.21 812.63 647.60 1009.55 639.45
00002297 00000016 644.11 89.55 519.12 726.32 770.90 360.70 1030.34 352.46 904.60 498.21 814.79 648.98 1011.68 641.03
00002298 00000017 644.54 88.46 518.94 728.30 773.86 362.80 1033.48 354.28 909.98 499.98 816.94 649.26 1015.20 640.90
00002299 00000018 643.72 89.28 519.93 729.07 776.90 364.23 1036.48 355.35 916.09 502.28 820.39 649.66 1019.91 640.84
00002300 00000019 643.88 86.15 520.82 731.97 780.04 366.12 1038.53 354.94 924.17 504.82 825.27 651.28 1024.76 640.26
00002301 00000020 645.51 87.23 519.91 732.54 783.33 366.14 1040.69 354.54 929.58 504.56 829.02 652.22 1028.00 640.83
00002302 00000021 645.15 85.43 521.73 734.94 786.59 365.82 1043.39 354.98 935.04 503.07 832.53 653.39 1029.76 642.73
00002303 00000022 644.88 87.00 522.21 733.37 788.65 365.00 1045.63 354.72 938.30 501.73 833.95 653.13 1031.48 643.00
00002304 00000023 645.22 88.87 520.76 732.11 789.99 364.61 1046.72 354.97 940.04 500.91 834.61 651.92 1033.33 642.28
00002305 00000024 645.27 91.71 520.62 729.66 790.62 364.38 1046.69 354.84 940.50 500.02 835.07 650.93 1033.62 641.37
00002306 00000025 644.84 91.82 520.73 728.82 791.05 363.32 1047.09 353.27 941.50 497.90 836.87 649.61 1033.84 639.57
00002307 00000026 646.49 96.52 517.65 723.25 791.23 362.14 1046.91 351.49 942.12 496.39 837.73 648.56 1033.95 638.00
00002308 00000027 646.77 91.97 517.27 726.03 791.54 361.29 1046.62 350.71 942.60 495.54 838.45 647.24 1033.88 636.69
00002309 00000028 646.70 89.42 517.38 726.44 791.27 359.52 1046.22 348.57 942.97 494.35 839.41 645.92 1034.39 634.94
00002310 00000029 646.22 88.19 517.64 727.14 791.99 357.81 1046.65 347.10 943.92 492.57 839.64 644.30 1034.58 633.59
00002311 00000030 646.36 85.12 518.26 730.20 792.61 356.58 1047.61 345.55 945.94 491.54 840.81 643.77 1035.68 632.77
00002312 00000031 647.24 86.11 517.96 730.35 793.54 356.90 1047.79 344.73 947.17 491.13 842.84 644.51 1036.47 632.64
00002313 00000032 648.16 87.62 518.33 728.32 794.49 357.82 1048.76 345.34 947.89 491.26 843.75 645.11 1037.33 633.13
00002314 00000033 649.27 85.57 518.02 729.79 795.94 358.03 1049.99 345.87 948.73 492.14 844.52 644.98 1037.98 633.27
00002315 00000034 649.45 85.06 519.08 730.51 797.51 359.16 1052.07 347.39 950.76 493.30 845.72 644.93 1040.21 633.51
00002316 00000035 650.76 81.57 519.41 731.11 799.09 359.90 1054.38 348.55 952.78 494.46 848.33 644.17 1043.04 632.98
00002317 00000036 651.88 79.91 519.63 730.89 801.16 360.68 1056.39 349.04 955.29 495.23 851.07 643.55 1045.84 632.02
00002318 00000037 652.71 73.62 520.19 730.42 806.40 361.80 1059.45 347.95 962.09 499.88 854.42 641.94 1050.40 630.13
00002319 00000038 653.78 71.06 522.15 731.46 809.72 362.14 1060.97 348.44 965.55 500.23 858.24 642.23 1052.79 630.60
00002320 00000039 655.33 71.12 522.29 729.16 813.08 362.00 1064.05 348.30 969.79 500.38 861.19 641.97 1054.84 630.39
00002321 00000040 657.04 74.42 523.27 726.07 815.19 361.83 1066.58 347.57 972.73 500.75 864.88 642.30 1057.88 630.30
00002322 00000041 657.88 73.75 524.10 726.29 816.09 362.07 1068.88 346.80 975.47 500.71 866.40 642.72 1061.44 629.88
00002323 00000042 657.92 70.95 527.13 732.61 817.20 361.96 1070.76 346.77 977.70 501.18 867.25 643.65 1065.82 630.70
00002324 00000043 658.73 70.91 529.01 736.44 819.30 361.97 1071.88 347.01 979.47 500.38 870.93 644.53 1066.16 631.77
00002325 00000044 659.70 72.79 530.04 735.38 820.84 361.94 1073.81 347.19 981.59 501.28 873.11 645.62 1067.68 633.04
00002326 00000045 661.67 73.38 529.52 735.38 822.90 362.38 1075.25 347.92 983.72 500.91 875.36 646.83 1068.99 634.47
00002327 00000046 664.16 72.75 530.54 737.87 824.30 362.87 1076.69 347.92 984.15 501.12 877.16 648.57 1070.33 635.87
00002328 00000047 666.94 74.14 529.99 736.49 826.61 363.27 1078.58 348.60 985.64 501.31 879.30 648.67 1071.71 636.20
00002329 00000048 668.75 78.01 530.56 733.75 827.56 363.48 1080.30 349.50 985.82 501.89 878.36 648.43 1073.82 636.45
00002330 00000049 670.29 74.61 530.73 739.13 829.46 363.08 1081.61 349.87 987.42 501.11 878.46 648.20 1075.41 636.81
00002331 00000050 672.71 76.32 529.73 741.53 831.77 362.67 1082.66 350.71 989.03 499.00 878.58 648.06 1077.52 637.64
00002332 DELETE   676.83 83.11 529.32 733.53 834.05 367.91 1084.07 356.85 986.97 499.49 877.17 646.72 1077.18 637.15
00002333 00000052 678.12 78.64 530.40 737.55 836.45 368.75 1084.37 357.72 987.42 497.79 878.68 643.50 1078.25 633.96
00002334 00000053 679.68 75.53 530.25 738.97 839.11 367.77 1087.17 355.92 991.66 496.22 883.06 642.00 1081.83 631.70
00002335 00000054 681.06 73.25 529.32 740.68 843.95 366.37 1091.54 354.15 1000.15 492.64 890.65 641.78 1086.62 630.94
00002336 DELETE   685.77 81.11 526.72 734.20 850.37 363.00 1098.35 351.38 1010.51 492.43 899.00 642.71 1092.05 632.34
00002337 00000056 684.84 69.80 528.64 748.20 856.83 351.87 1105.84 344.63 1019.49 494.92 906.19 643.13 1100.51 633.92
00002338 00000057 686.97 67.06 530.97 748.18 863.07 347.30 1112.62 339.93 1029.26 494.84 915.27 642.52 1108.00 633.07
00002339 00000058 695.07 57.31 526.09 746.15 871.38 352.12 1116.63 340.49 1041.49 492.93 926.34 638.79 1109.53 627.88
00002340 00000059 691.31 60.33 536.86 752.88 877.43 346.18 1127.38 335.96 1051.30 493.21 934.53 643.18 1124.25 631.40
00002341 00000060 695.05 60.00 537.43 753.12 885.11 345.85 1133.94 333.50 1061.66 490.74 942.34 643.10 1131.81 629.89
00002342 00000061 700.27 60.31 537.74 751.05 891.48 345.72 1139.53 330.48 1068.78 486.71 951.71 643.18 1139.10 627.91
00002343 00000062 701.63 57.64 539.38 747.89 892.88 348.30 1145.13 332.76 1074.34 489.70 956.69 639.19 1145.51 624.64
00002344 00000063 705.91 54.85 541.45 754.44 897.92 347.07 1149.96 331.34 1080.21 489.31 963.97 641.17 1151.83 626.45
00002345 00000064 712.56 58.43 539.43 752.53 903.55 346.56 1154.95 330.62 1085.38 489.16 969.46 641.87 1156.91 627.01
00002346 00000065 718.98 61.62 536.86 752.29 908.88 343.29 1161.94 328.38 1092.61 490.39 974.79 644.36 1161.19 630.44
00002347 00000066 722.50 58.90 537.44 754.69 914.91 342.35 1168.46 328.46 1099.06 491.41 980.07 646.27 1164.48 633.02
00002348 00000067 728.51 58.64 535.01 756.51 921.76 341.49 1173.38 328.88 1104.27 491.84 982.49 645.81 1167.79 633.60
00002349 00000068 734.01 54.70 533.11 759.34 927.99 343.72 1177.07 331.12 1108.50 493.00 986.59 646.55 1170.67 634.44
00002350 00000069 738.40 54.10 533.51 760.56 933.62 345.54 1180.74 333.55 1112.90 494.95 989.86 647.95 1173.04 636.48
00002351 00000070 742.08 55.50 535.71 758.77 937.10 346.74 1184.58 334.55 1116.35 495.40 993.35 648.32 1175.28 636.75
00002352 00000071 745.42 56.40 536.34 756.82 939.05 348.22 1186.56 335.86 1117.16 495.65 994.29 647.58 1177.27 635.88
00002353 00000072 749.06 54.68 536.09 759.38 941.44 347.47 1188.62 335.97 1118.33 495.37 995.28 647.51 1177.69 636.59
00002354 00000073 751.42 54.38 536.73 758.40 943.11 347.69 1190.25 336.51 1118.53 495.42 997.01 646.99 1178.53 636.33
00002355 00000074 753.27 54.60 536.81 757.28 943.72 347.96 1191.79 336.59 1119.14 495.32 998.13 647.07 1179.33 636.30
00002356 00000075 754.00 54.46 537.62 757.67 945.67 347.82 1192.80 337.32 1120.16 495.01 999.44 647.01 1179.57 636.89
00002357 00000076 754.56 55.81 537.78 757.82 946.90 348.54 1193.48 338.26 1121.07 495.40 1000.21 647.37 1180.46 637.41
00002358 00000077 755.13 57.22 538.26 756.69 947.14 348.91 1194.31 338.14 1121.96 496.14 1001.57 648.49 1180.99 638.14
00002359 00000078 755.81 57.99 538.23 756.27 947.20 349.89 1195.16 339.19 1121.69 497.16 1000.86 649.12 1181.61 638.85
00002360 00000079 756.08 58.57 539.51 757.29 945.03 352.13 1194.90 340.06 1120.42 497.40 999.68 650.92 1182.52 639.75
00002361 00000080 757.26 64.68 538.94 751.11 943.73 356.87 1192.95 343.22 1118.64 499.10 998.82 652.05 1181.64 639.86
00002362 00000081 756.37 67.05 540.02 748.64 942.00 358.14 1191.56 343.99 1117.07 499.88 997.36 651.96 1180.98 639.37
00002363 00000082 749.79 61.78 550.53 763.01 941.67 348.68 1197.51 340.82 1115.96 501.55 993.07 654.93 1187.82 644.97
00002364 00000083 749.55 61.43 550.90 763.10 940.88 349.42 1197.44 341.21 1115.70 502.65 992.43 655.51 1188.00 645.23
00002365 00000084 757.87 68.54 540.78 747.41 938.83 360.73 1192.48 345.74 1114.29 503.51 995.29 653.51 1181.46 640.46
00002366 00000085 751.52 60.83 552.09 763.86 940.19 353.52 1198.00 344.68 1113.67 506.57 991.97 657.89 1187.67 647.26
00002367 00000086 752.44 60.44 550.98 764.92 939.55 355.55 1197.99 347.10 1112.77 508.21 990.49 659.35 1186.66 649.10
00002368 00000087 752.38 61.25 551.83 764.18 937.94 356.36 1198.11 348.67 1110.18 509.68 988.72 659.59 1185.53 650.04
00002369 00000088 751.94 55.99 550.67 769.30 934.15 355.40 1195.95 349.33 1106.00 508.89 983.34 659.12 1182.29 650.92
00002370 00000089 753.71 70.70 543.01 748.83 928.37 363.88 1187.78 350.89 1101.99 509.64 981.77 658.12 1173.68 647.41
00002371 00000090 749.38 68.24 544.34 755.91 920.93 364.59 1181.32 352.27 1092.76 508.65 974.37 660.16 1168.39 649.87
00002372 00000091 743.68 68.98 544.70 755.95 914.41 367.43 1173.67 354.55 1084.30 511.35 968.13 662.64 1161.64 651.78
00002373 00000092 739.00 68.46 544.93 756.53 906.64 368.93 1166.80 355.81 1073.56 511.76 959.03 664.08 1154.81 652.98
00002374 00000093 735.48 71.78 544.80 753.19 901.14 369.54 1163.42 356.94 1067.77 515.33 952.79 664.79 1151.22 654.05
00002375 00000094 733.30 71.20 542.45 755.79 896.77 368.76 1159.61 355.57 1063.17 518.22 947.68 665.22 1146.79 654.08
00002376 00000095 731.31 67.09 541.02 760.55 893.36 369.62 1156.46 355.68 1059.13 518.17 943.27 665.87 1143.36 654.08
00002377 00000096 729.86 70.82 538.88 754.28 888.55 371.24 1151.97 356.66 1052.73 519.33 938.66 665.73 1138.60 653.39
00002378 00000097 728.70 73.66 537.32 751.96 886.12 371.69 1148.89 357.67 1049.44 520.09 935.44 666.05 1135.09 654.09
00002379 00000098 728.14 72.47 535.86 753.08 883.36 371.68 1145.81 356.95 1045.93 520.53 933.64 666.90 1132.65 654.37
00002380 00000099 728.92 78.22 532.92 747.79 881.54 372.96 1143.61 357.69 1042.88 522.15 932.27 668.07 1130.15 655.20
00002381 00000100 727.67 77.77 532.08 747.17 879.58 372.91 1140.91 357.78 1039.81 522.18 929.88 667.37 1127.44 654.62
00002382 00000101 726.69 75.28 532.64 748.80 877.28 373.06 1140.21 357.37 1038.02 521.61 928.08 668.11 1125.55 654.90
00002383 00000102 725.16 76.48 533.67 746.55 875.56 372.33 1138.24 356.63 1035.53 520.40 926.84 666.37 1124.00 653.11
00002384 00000103 724.23 74.92 533.62 748.12 874.72 373.59 1137.44 357.41 1034.28 520.67 926.38 666.42 1123.02 652.76
00002385 00000104 723.98 76.39 533.70 747.26 874.59 372.90 1135.99 356.18 1033.16 519.88 926.84 664.59 1123.82 650.38
00002386 00000105 725.86 82.50 531.38 740.25 874.89 375.43 1135.70 357.11 1033.28 521.18 929.32 667.18 1123.93 651.54
CROP_BBOX: 362 0 1484 1012
