Video ID: 	jtewZhpsAE0
H: 	1080
W: 	1920
FPS: 	30.0

FRAME INDEX X0 Y0 W H [Landmarks (5 Points)]

00001661 00000000 1125.80 106.62 446.29 616.89 1254.07 343.94 1476.55 358.71 1375.60 426.14 1269.53 572.57 1449.78 582.43
00001662 00000001 1135.68 101.94 447.21 613.06 1267.10 340.68 1490.03 357.10 1391.40 421.79 1282.50 566.50 1460.26 577.93
00001663 DELETE   1142.66 107.74 450.99 611.66 1280.63 342.14 1499.56 356.26 1405.28 429.09 1294.81 568.42 1467.83 578.06
00001664 00000003 1148.36 113.64 449.43 616.69 1286.17 348.25 1504.07 361.06 1414.01 442.94 1299.79 578.19 1474.72 587.12
00001665 00000004 1148.62 115.53 449.03 615.23 1287.05 348.20 1503.91 361.61 1414.32 442.33 1299.94 577.55 1474.41 586.91
00001666 00000005 1151.69 124.62 445.17 613.34 1290.61 352.54 1504.69 367.09 1419.84 446.78 1304.82 584.26 1474.65 594.72
00001667 00000006 1149.72 125.81 445.39 619.25 1290.57 354.24 1504.97 368.68 1422.22 449.88 1305.45 588.24 1476.01 598.63
00001668 00000007 1148.91 131.22 444.14 617.34 1286.62 356.21 1502.08 370.74 1416.92 450.55 1301.80 590.98 1473.42 601.37
00001669 00000008 1145.46 127.32 446.19 623.62 1281.73 356.15 1499.20 369.44 1410.44 452.22 1298.04 594.35 1467.81 603.66
00001670 00000009 1145.84 127.05 446.60 624.49 1281.72 356.36 1499.33 369.84 1409.67 451.82 1297.53 594.42 1467.62 603.92
00001671 00000010 1139.43 125.21 450.03 627.16 1272.07 354.72 1493.32 366.26 1401.23 452.44 1292.08 596.03 1464.49 603.51
00001672 00000011 1136.51 127.20 451.17 626.40 1269.11 354.28 1492.10 365.07 1400.67 453.26 1292.14 597.07 1465.30 603.75
00001673 00000012 1135.63 127.95 449.80 626.35 1268.27 353.54 1490.97 364.91 1399.39 452.95 1291.08 596.34 1464.40 603.56
00001674 00000013 1133.27 127.88 447.79 626.33 1265.27 353.06 1488.06 365.11 1395.91 452.98 1287.38 595.85 1462.62 603.55
00001675 00000014 1133.47 127.86 447.31 626.10 1264.48 352.76 1488.05 364.30 1395.26 453.53 1286.92 596.31 1462.77 603.60
00001676 00000015 1130.14 129.52 446.05 624.15 1260.70 351.25 1482.88 364.40 1389.44 454.33 1281.49 594.73 1455.87 603.45
00001677 00000016 1128.68 128.36 444.01 621.56 1257.53 352.98 1479.42 366.62 1382.24 454.87 1275.36 592.68 1452.11 601.84
00001678 00000017 1126.64 130.78 443.15 616.10 1252.79 352.81 1474.61 367.53 1374.84 455.03 1269.15 589.79 1447.20 600.00
00001679 00000018 1124.75 132.38 444.34 611.55 1250.70 351.86 1473.35 368.39 1371.55 455.79 1266.74 588.08 1444.84 599.65
00001680 00000019 1124.90 131.72 443.75 611.76 1250.30 351.82 1473.46 368.20 1371.51 454.67 1266.62 588.27 1445.12 599.67
00001681 00000020 1125.43 130.38 445.39 611.38 1252.21 351.80 1476.62 367.15 1375.02 455.67 1269.31 587.99 1449.09 598.63
00001682 00000021 1127.42 123.14 445.22 615.11 1255.36 351.73 1481.44 366.73 1381.91 456.22 1274.18 587.86 1455.33 598.16
00001683 00000022 1127.97 120.81 445.66 612.87 1257.90 355.80 1482.12 369.68 1385.03 453.48 1277.71 587.10 1459.34 596.56
00001684 00000023 1130.13 123.51 441.87 608.53 1255.93 360.82 1479.51 377.43 1376.47 453.83 1272.49 584.82 1456.38 596.67
00001685 00000024 1129.92 123.36 441.82 608.89 1255.14 360.69 1479.28 377.40 1375.26 453.34 1271.09 584.85 1455.91 596.79
00001686 00000025 1124.49 122.83 443.93 609.62 1248.58 355.36 1474.95 370.45 1371.52 453.83 1264.84 583.04 1453.23 593.70
00001687 00000026 1123.07 127.61 444.86 605.68 1246.41 353.77 1473.99 371.20 1368.51 456.16 1261.15 582.31 1452.88 594.73
00001688 00000027 1124.21 129.11 443.69 606.91 1248.01 354.59 1475.69 372.27 1370.43 459.45 1263.43 585.01 1453.87 597.66
00001689 00000028 1125.38 126.41 442.92 612.35 1250.35 355.38 1477.03 372.70 1373.73 461.40 1265.81 586.43 1455.19 598.95
00001690 00000029 1124.99 126.77 443.12 611.99 1250.14 355.35 1476.84 372.79 1373.32 461.65 1265.55 586.45 1454.70 599.09
00001691 00000030 1125.78 128.47 442.06 611.81 1248.85 354.96 1475.85 372.79 1370.89 460.78 1263.97 588.34 1452.61 601.07
00001692 00000031 1125.67 133.13 442.04 614.49 1248.53 353.72 1473.48 371.34 1370.40 459.22 1264.05 590.64 1448.66 603.33
00001693 00000032 1126.33 133.98 441.45 620.39 1248.90 352.19 1472.36 368.36 1370.93 456.89 1265.15 594.30 1445.08 605.81
00001694 00000033 1127.74 134.71 439.69 621.95 1250.62 353.14 1472.83 368.65 1372.76 456.80 1267.18 595.79 1446.54 606.80
00001695 00000034 1127.03 134.88 440.10 622.08 1250.25 352.91 1472.58 368.69 1373.32 456.68 1267.24 595.90 1446.46 607.08
00001696 00000035 1126.72 136.28 439.34 622.49 1248.86 352.14 1471.13 368.65 1371.75 456.57 1265.05 597.34 1444.11 609.26
00001697 00000036 1125.89 136.25 440.90 622.47 1246.93 353.33 1470.80 369.96 1370.30 457.36 1263.23 598.37 1444.50 610.29
00001698 00000037 1124.64 136.28 441.36 622.05 1244.82 354.54 1469.69 371.72 1368.30 458.88 1260.70 598.50 1444.14 610.70
00001699 00000038 1123.11 134.96 441.91 619.42 1244.24 356.30 1470.35 375.38 1367.17 459.29 1258.57 597.59 1444.49 611.43
00001700 00000039 1122.59 135.86 442.70 618.61 1243.74 356.05 1470.05 375.04 1366.66 459.73 1258.23 597.51 1444.11 611.25
00001701 00000040 1121.38 134.33 443.61 617.66 1243.05 358.02 1470.46 378.75 1365.00 461.68 1255.66 596.40 1444.79 611.58
00001702 00000041 1120.64 133.40 443.44 617.55 1241.32 359.41 1470.43 381.39 1364.55 465.13 1253.53 597.06 1445.39 613.14
00001703 00000042 1121.07 135.47 442.78 619.80 1241.55 360.83 1470.15 382.99 1364.06 467.68 1252.61 599.75 1442.99 616.23
00001704 00000043 1121.82 135.45 444.53 622.11 1244.12 367.82 1471.74 389.59 1363.70 472.55 1252.40 603.09 1442.67 619.47
00001705 00000044 1121.42 135.27 444.70 623.52 1244.16 367.74 1471.63 389.52 1364.16 472.56 1252.35 603.36 1442.70 619.79
00001706 00000045 1122.90 138.11 443.66 623.54 1243.91 371.63 1469.16 392.37 1361.41 476.17 1251.96 606.60 1441.15 622.22
00001707 00000046 1121.97 141.26 446.50 629.31 1244.37 375.67 1467.83 395.26 1362.40 480.70 1254.07 613.58 1439.73 628.43
00001708 00000047 1122.30 141.63 447.32 636.58 1243.81 379.82 1465.83 398.55 1358.41 483.94 1253.20 617.33 1437.71 631.72
00001709 00000048 1121.75 145.84 449.19 640.89 1242.74 382.60 1464.37 402.18 1355.23 487.06 1249.33 620.09 1435.22 635.53
00001710 00000049 1121.57 145.65 449.50 641.60 1242.91 383.48 1464.41 403.02 1355.15 487.47 1249.50 620.18 1435.50 635.58
00001711 00000050 1122.26 148.38 448.86 642.01 1242.76 385.98 1463.88 405.89 1354.14 490.00 1248.52 622.23 1434.62 638.12
00001712 00000051 1123.61 151.36 447.38 638.70 1243.85 389.24 1465.73 410.01 1356.50 491.74 1249.75 623.84 1437.09 640.49
00001713 00000052 1124.08 153.25 446.85 636.71 1244.05 390.01 1466.27 410.38 1357.03 494.45 1250.79 625.55 1437.48 641.83
00001714 00000053 1123.81 153.70 446.44 637.23 1243.69 390.84 1465.49 411.34 1357.33 497.17 1250.86 627.23 1437.09 643.66
00001715 00000054 1124.24 154.51 446.04 635.65 1243.33 390.93 1465.22 411.25 1355.91 497.69 1250.46 627.03 1437.07 643.30
00001716 00000055 1123.61 159.30 446.57 632.74 1242.31 393.11 1463.87 411.84 1355.60 500.40 1249.74 629.17 1436.53 644.16
00001717 00000056 1123.36 160.23 448.70 637.86 1243.95 396.05 1463.99 414.11 1356.12 508.39 1251.05 633.11 1436.00 647.64
00001718 00000057 1123.65 161.24 449.30 643.02 1241.15 396.80 1462.01 413.58 1354.25 515.47 1249.47 637.69 1436.33 651.04
00001719 00000058 1124.14 161.54 451.06 649.80 1240.67 398.86 1460.70 415.47 1352.62 518.66 1248.90 642.20 1434.93 655.34
00001720 00000059 1123.94 162.19 451.14 649.60 1240.83 398.80 1460.65 415.64 1352.60 518.36 1248.66 641.88 1434.78 655.23
00001721 00000060 1122.64 161.83 451.24 648.42 1238.73 399.13 1457.65 414.79 1350.09 518.46 1247.41 642.21 1431.84 654.76
00001722 00000061 1117.81 163.33 451.94 641.21 1232.50 397.96 1452.66 411.72 1344.81 514.78 1244.99 637.74 1431.21 648.49
00001723 00000062 1115.36 162.07 451.70 635.27 1228.63 395.91 1448.11 410.23 1339.40 512.69 1240.66 633.87 1424.47 645.17
00001724 00000063 1114.75 164.76 450.40 628.63 1225.59 394.03 1445.10 409.27 1334.16 509.92 1235.54 631.76 1417.57 644.01
00001725 00000064 1114.44 164.98 450.94 628.27 1224.74 394.05 1444.91 408.97 1333.80 509.64 1235.58 632.22 1417.45 644.15
00001726 00000065 1114.28 165.08 449.89 628.25 1222.69 393.66 1441.54 407.81 1329.76 509.52 1234.32 633.38 1411.43 644.97
00001727 00000066 1114.61 165.02 449.56 628.27 1222.06 393.83 1440.84 407.99 1328.80 509.79 1233.74 633.61 1410.46 645.16
00001728 00000067 1114.63 165.52 450.27 628.92 1222.45 394.25 1439.29 407.57 1328.20 510.12 1236.39 635.04 1409.52 646.15
00001729 00000068 1114.67 165.03 451.21 634.33 1224.08 395.11 1439.24 408.63 1328.98 511.53 1236.84 634.63 1412.56 645.87
00001730 00000069 1114.35 165.32 451.80 634.00 1224.44 395.12 1439.62 408.84 1329.54 511.70 1237.05 634.28 1412.86 645.66
00001731 00000070 1114.72 165.77 451.32 630.93 1225.60 395.75 1441.92 410.41 1330.95 510.95 1237.07 633.03 1416.45 644.86
00001732 00000071 1114.56 165.43 451.36 626.11 1228.24 397.57 1445.61 414.09 1334.21 511.22 1237.86 630.90 1420.26 644.08
00001733 00000072 1115.94 164.35 450.23 626.22 1233.69 405.49 1452.00 425.01 1334.41 510.85 1238.81 629.57 1423.61 645.09
00001734 00000073 1117.15 164.73 448.95 624.19 1233.96 406.93 1452.14 425.68 1335.07 512.75 1239.71 630.91 1424.54 645.69
00001735 00000074 1117.14 164.28 448.93 625.04 1233.77 406.98 1451.85 425.23 1335.14 513.08 1239.96 631.19 1424.87 645.53
00001736 00000075 1117.06 165.02 447.35 625.06 1231.65 401.57 1450.65 419.10 1335.22 511.55 1239.38 631.43 1423.67 645.49
00001737 00000076 1116.29 163.69 449.06 625.56 1229.60 398.74 1446.38 416.18 1332.08 509.88 1236.48 629.58 1419.44 643.55
00001738 00000077 1113.39 163.71 451.12 627.76 1223.99 395.49 1442.48 411.53 1327.73 509.25 1229.84 629.64 1414.01 642.39
00001739 00000078 1110.27 162.89 454.17 628.10 1219.11 394.24 1440.21 409.90 1321.74 508.33 1224.90 629.37 1409.20 641.74
00001740 00000079 1110.30 163.11 453.91 627.66 1218.97 394.14 1439.99 410.13 1321.39 507.85 1224.74 629.33 1408.85 641.95
00001741 00000080 1108.78 161.71 452.20 627.54 1214.74 392.53 1435.82 407.70 1315.09 507.19 1220.41 629.17 1404.48 641.00
00001742 00000081 1107.28 159.94 452.15 628.96 1214.00 392.21 1434.74 407.48 1312.84 505.13 1217.56 627.40 1403.50 639.12
00001743 00000082 1106.53 158.32 452.16 628.87 1213.65 391.36 1434.08 406.84 1311.13 504.36 1216.58 625.72 1402.59 637.56
00001744 00000083 1105.73 156.52 452.89 629.21 1212.87 391.02 1434.47 406.09 1310.87 503.23 1215.58 625.27 1402.68 636.68
00001745 00000084 1106.13 156.65 452.46 629.75 1213.30 390.60 1434.55 405.89 1311.19 502.75 1215.50 624.78 1403.14 636.35
00001746 00000085 1106.27 155.40 452.78 630.11 1212.89 389.86 1435.15 405.25 1311.18 501.10 1215.04 623.66 1403.96 635.26
00001747 00000086 1107.51 155.56 451.54 628.19 1213.90 389.72 1436.11 405.19 1312.25 500.19 1215.17 623.00 1405.22 634.56
00001748 00000087 1107.07 157.27 452.24 625.95 1213.96 389.43 1436.74 405.03 1313.62 500.94 1215.57 623.61 1405.02 635.33
00001749 00000088 1107.31 158.03 452.72 625.72 1216.24 389.32 1440.23 407.11 1317.20 501.64 1216.91 623.49 1408.60 636.87
00001750 00000089 1107.12 158.17 452.74 624.73 1216.62 389.20 1440.24 407.07 1317.74 502.42 1217.55 623.34 1408.92 636.78
00001751 00000090 1109.67 157.88 452.59 624.33 1219.85 389.24 1442.74 408.97 1320.16 502.13 1218.68 622.65 1409.77 637.66
00001752 00000091 1110.27 158.22 451.74 622.61 1220.24 388.42 1444.06 409.42 1320.49 503.34 1216.44 622.33 1409.09 638.43
00001753 00000092 1110.33 157.65 452.24 621.93 1219.36 388.51 1444.33 410.11 1319.90 503.26 1214.15 621.38 1409.85 637.77
00001754 00000093 1110.03 156.92 452.29 620.60 1218.99 388.21 1444.14 410.06 1319.86 503.45 1212.91 621.19 1408.54 637.79
00001755 00000094 1110.22 157.30 451.97 620.35 1218.80 388.28 1443.91 410.07 1319.27 503.53 1212.89 620.97 1408.59 637.52
00001756 00000095 1109.67 156.80 452.38 618.49 1218.52 388.57 1443.71 410.72 1318.69 503.45 1212.47 620.98 1408.04 637.74
00001757 00000096 1107.38 157.60 453.26 618.98 1214.74 389.22 1440.27 407.41 1317.17 501.97 1213.48 621.33 1409.01 634.86
00001758 00000097 1106.28 155.06 454.36 620.43 1214.03 389.81 1439.84 408.22 1316.48 503.28 1212.64 621.57 1408.75 635.17
00001759 00000098 1106.13 155.20 454.55 620.26 1213.99 390.04 1440.36 408.92 1317.08 503.24 1212.34 621.92 1408.87 635.88
00001760 00000099 1106.28 155.60 454.81 619.18 1214.37 390.16 1440.20 408.38 1317.38 504.10 1212.86 622.09 1409.01 635.54
00001761 00000100 1106.72 156.23 454.71 618.50 1214.54 390.45 1440.06 408.30 1317.10 504.39 1213.67 622.75 1409.13 635.88
00001762 00000101 1107.01 156.64 454.81 618.67 1215.00 390.18 1440.57 408.40 1317.56 504.25 1214.09 622.64 1409.44 636.10
00001763 00000102 1106.94 156.75 454.68 619.77 1215.19 389.63 1440.57 407.92 1317.56 504.20 1213.65 622.29 1409.54 635.79
00001764 00000103 1106.54 156.36 455.30 617.88 1215.07 390.38 1439.94 407.67 1317.40 504.70 1215.45 623.14 1409.50 635.77
00001765 00000104 1106.69 157.23 454.28 617.87 1215.58 390.15 1440.09 407.52 1318.26 504.70 1215.67 622.76 1409.65 635.52
00001766 00000105 1107.56 156.28 453.99 618.60 1215.95 389.98 1440.18 407.77 1317.83 504.43 1215.19 622.75 1408.81 635.89
00001767 00000106 1107.75 156.75 454.63 619.38 1216.30 390.24 1440.08 407.21 1318.31 504.64 1216.78 622.68 1409.95 635.17
00001768 00000107 1108.57 157.31 454.20 617.31 1216.67 389.94 1440.86 407.16 1319.11 504.36 1217.80 623.07 1410.80 635.70
00001769 00000108 1112.43 159.84 450.63 615.77 1223.67 393.57 1446.65 419.10 1321.18 501.21 1220.04 618.96 1412.52 638.39
00001770 00000109 1112.31 160.56 450.51 615.09 1223.94 393.33 1446.82 419.10 1321.38 501.02 1220.42 618.75 1412.70 638.42
00001771 00000110 1112.64 160.87 449.10 613.99 1223.88 398.53 1447.16 423.24 1321.17 502.19 1221.58 620.35 1413.35 638.98
00001772 00000111 1111.66 160.73 450.74 614.50 1223.57 394.79 1448.01 420.86 1321.88 502.12 1220.77 619.60 1413.47 639.49
00001773 00000112 1111.03 158.19 451.98 616.91 1222.67 391.77 1446.21 416.20 1322.24 503.00 1220.47 620.54 1413.26 638.99
00001774 00000113 1110.90 159.01 452.44 615.77 1222.01 390.51 1444.40 412.65 1321.10 504.06 1220.47 620.72 1412.04 637.33
00001775 00000114 1110.96 158.78 452.68 615.84 1222.04 390.49 1444.88 412.71 1321.78 503.71 1220.44 620.64 1412.48 637.29
00001776 00000115 1111.43 157.82 453.05 617.95 1222.20 389.49 1445.46 411.36 1321.75 501.99 1220.27 621.49 1411.96 637.95
00001777 00000116 1111.74 158.84 453.55 620.99 1222.86 388.77 1445.84 409.54 1323.05 502.10 1222.27 622.00 1412.81 637.77
00001778 00000117 1113.14 157.94 454.40 636.46 1222.00 387.25 1444.12 406.85 1321.31 504.02 1223.98 627.89 1407.01 643.75
00001779 00000118 1113.57 157.64 454.25 645.11 1221.64 385.90 1441.02 403.94 1320.77 505.70 1223.15 631.42 1402.65 646.69
00001780 00000119 1113.49 158.19 454.06 644.84 1221.64 386.03 1440.87 404.09 1320.78 505.62 1223.18 631.42 1402.91 646.71
00001781 00000120 1114.03 158.45 452.49 642.88 1220.99 385.98 1441.39 403.64 1321.53 505.57 1223.51 631.72 1404.92 646.60
00001782 00000121 1114.51 157.32 451.40 639.53 1220.40 385.99 1442.57 403.65 1321.96 504.38 1223.41 630.82 1405.69 645.52
00001783 00000122 1113.67 156.82 451.95 633.89 1220.78 386.59 1444.12 403.71 1323.90 502.55 1226.02 628.84 1406.44 642.78
00001784 00000123 1112.24 154.75 452.39 636.90 1220.10 385.86 1443.48 403.99 1321.98 502.62 1223.46 629.42 1402.69 644.13
00001785 00000124 1111.73 154.27 452.69 637.24 1219.70 385.83 1443.03 404.11 1321.01 502.24 1222.98 629.20 1401.93 644.01
00001786 00000125 1112.08 155.97 451.10 632.60 1218.53 385.93 1442.16 404.42 1319.16 502.27 1220.92 628.90 1400.22 643.92
00001787 00000126 1111.94 155.61 451.00 632.37 1218.59 386.67 1441.49 405.21 1318.59 503.76 1221.56 628.32 1400.54 643.36
00001788 00000127 1111.17 157.14 452.49 633.24 1218.39 388.26 1440.00 406.41 1318.50 505.16 1222.09 628.14 1401.00 642.86
00001789 00000128 1111.44 158.98 454.39 635.48 1220.77 392.38 1439.48 410.07 1320.40 510.03 1226.57 631.69 1403.17 646.11
00001790 00000129 1111.16 160.11 454.32 634.51 1220.79 392.37 1439.08 409.61 1321.09 510.67 1227.24 631.83 1403.10 645.97
00001791 00000130 1111.66 164.97 453.36 648.78 1224.68 400.51 1441.04 417.51 1327.65 518.72 1232.59 645.81 1403.56 658.76
00001792 00000131 1111.07 170.97 450.82 659.27 1222.14 404.07 1442.11 421.31 1326.52 526.15 1228.09 656.32 1404.58 669.57
00001793 00000132 1109.44 169.63 450.98 658.60 1219.93 405.83 1439.26 422.93 1322.92 528.42 1226.49 656.69 1401.78 669.89
00001794 00000133 1107.70 168.91 450.50 650.26 1217.30 406.04 1436.22 424.65 1319.96 527.50 1223.26 652.95 1399.19 667.56
CROP_BBOX: 797 0 1817 975
