Video ID: 	im_qZTWqW88
H: 	1080
W: 	1920
FPS: 	25.0

FRAME INDEX X0 Y0 W H [Landmarks (5 Points)]

00000765 00000000 877.49 161.31 367.41 520.42 926.56 361.77 1090.59 336.76 978.53 421.54 954.83 557.41 1079.53 540.30
00000766 DELETE   869.47 161.66 368.54 513.57 921.43 359.95 1085.46 333.84 975.78 420.99 953.48 553.09 1076.20 534.19
00000767 00000002 858.06 144.63 376.28 539.56 915.66 363.12 1086.29 329.17 969.21 410.26 947.71 560.72 1069.02 532.76
00000768 00000003 860.54 153.87 364.96 538.78 922.81 360.44 1080.39 321.91 969.37 406.28 959.00 570.00 1065.82 537.66
00000769 DELETE   855.69 148.99 369.22 542.59 920.86 368.97 1082.79 329.05 971.12 403.30 953.97 566.45 1068.92 533.64
00000770 DELETE   851.78 146.08 376.53 535.85 919.60 379.62 1078.36 335.71 970.07 405.90 954.10 562.52 1073.89 526.33
00000771 DELETE   849.18 145.86 379.81 529.53 910.87 379.11 1078.51 333.22 967.87 407.55 952.23 563.47 1083.26 525.35
00000772 00000007 844.90 142.98 380.12 523.62 907.59 376.86 1072.55 329.98 966.21 408.61 951.97 559.93 1085.25 521.13
00000773 00000008 840.94 141.87 378.60 516.80 905.10 370.57 1067.55 322.96 966.43 404.27 952.34 552.60 1081.35 513.60
00000774 00000009 838.25 139.18 377.85 514.11 903.35 363.65 1064.94 316.12 965.01 399.36 953.05 548.63 1075.08 509.58
00000775 00000010 841.21 136.50 381.04 518.12 905.76 359.99 1069.73 313.69 966.44 397.24 954.10 549.28 1076.45 511.25
00000776 00000011 844.42 135.37 380.89 519.23 909.19 357.83 1073.83 312.65 968.02 393.56 954.59 547.92 1077.42 510.75
00000777 00000012 845.16 136.15 386.17 520.10 912.30 354.71 1079.54 310.65 971.45 388.33 956.95 547.40 1077.73 510.73
00000778 00000013 846.22 138.43 384.57 520.24 916.14 351.86 1084.72 310.26 977.33 387.65 959.90 547.09 1077.94 512.30
00000779 00000014 845.70 141.06 388.22 522.97 917.02 352.19 1086.93 311.72 979.56 389.89 960.91 550.17 1078.58 516.25
00000780 00000015 845.17 142.57 389.84 525.53 915.23 353.07 1088.05 313.16 978.51 393.89 960.30 554.57 1079.59 521.25
00000781 00000016 839.89 143.78 388.93 525.45 906.35 360.75 1087.83 313.13 979.82 405.82 953.50 560.47 1090.21 522.51
00000782 00000017 839.71 144.91 395.13 523.53 904.83 365.15 1086.52 316.80 975.10 410.98 954.59 560.27 1094.03 521.26
00000783 00000018 840.56 146.72 397.57 520.35 904.96 366.64 1085.94 317.97 972.80 411.99 953.39 557.58 1095.86 517.96
00000784 00000019 842.33 145.54 399.88 523.52 904.35 368.65 1088.16 318.25 971.96 411.46 952.73 558.05 1100.21 516.69
00000785 00000020 844.73 145.97 400.08 537.84 905.20 369.17 1088.02 316.15 971.27 413.36 954.81 563.37 1105.75 519.37
00000786 00000021 849.69 147.81 398.14 550.40 906.64 369.10 1091.44 311.12 974.13 414.84 959.10 570.88 1116.14 522.64
00000787 00000022 863.40 163.27 386.77 545.61 917.60 371.21 1093.09 319.01 975.36 409.47 965.42 570.45 1122.00 528.76
00000788 00000023 864.92 161.24 389.80 547.47 921.28 372.61 1096.79 321.52 982.47 412.83 968.18 569.08 1128.29 528.30
00000789 00000024 868.43 157.77 389.32 543.54 924.18 374.49 1097.19 324.21 984.33 415.39 970.30 569.59 1124.31 529.67
00000790 00000025 872.16 153.88 389.69 538.97 926.37 372.95 1097.98 325.21 985.88 416.21 970.61 568.29 1111.69 531.02
00000791 00000026 869.38 154.55 391.67 535.13 926.98 370.57 1096.09 326.22 990.00 419.34 971.96 565.24 1101.26 532.00
00000792 00000027 869.11 154.40 390.93 533.08 927.17 367.57 1095.70 326.24 989.01 418.81 970.22 565.62 1092.24 535.37
00000793 00000028 867.98 151.37 391.27 535.21 926.82 365.87 1095.68 325.51 989.54 419.93 969.31 565.64 1089.73 536.50
00000794 00000029 866.45 148.31 390.30 529.47 922.60 365.70 1094.59 325.81 985.55 422.28 963.21 562.22 1090.80 533.36
00000795 00000030 860.81 139.59 391.55 536.58 919.06 367.21 1093.53 319.53 980.39 414.81 965.88 560.29 1100.53 522.28
00000796 00000031 859.32 138.63 393.80 536.89 916.71 367.14 1093.99 314.12 978.27 411.14 967.47 560.86 1107.23 518.05
00000797 00000032 860.00 139.28 392.77 535.33 917.93 365.63 1093.00 313.26 978.18 410.11 968.80 559.85 1105.77 517.58
00000798 00000033 860.63 138.71 390.50 534.93 918.76 363.77 1093.54 312.51 977.59 407.94 967.53 559.47 1103.04 518.14
00000799 00000034 863.94 137.29 389.15 533.56 922.04 360.72 1094.45 310.33 981.09 403.49 969.29 555.87 1102.93 515.67
00000800 00000035 868.94 134.90 385.59 532.29 926.22 359.89 1097.22 312.29 985.06 403.99 969.93 553.22 1102.35 515.52
00000801 00000036 874.49 135.15 382.38 528.74 930.57 359.45 1099.36 315.00 987.90 403.74 970.71 549.61 1100.92 514.60
00000802 00000037 878.49 134.14 382.87 527.01 934.22 357.95 1103.77 314.40 991.12 404.38 973.40 546.44 1106.73 512.11
00000803 00000038 881.05 133.70 383.78 523.92 938.68 355.98 1108.90 314.47 997.31 406.64 979.18 544.09 1112.69 511.24
00000804 00000039 886.13 131.28 381.68 526.13 942.33 353.58 1112.05 310.95 999.55 402.53 983.07 543.39 1116.14 509.70
00000805 00000040 887.59 132.62 384.80 525.93 941.93 352.83 1114.49 307.94 1001.07 401.09 985.47 542.47 1125.48 506.36
00000806 00000041 888.37 133.06 387.11 530.67 941.61 351.39 1115.52 305.83 1001.24 399.74 986.50 542.74 1130.01 505.71
00000807 00000042 887.95 130.90 385.87 528.54 943.82 352.07 1116.87 307.57 1005.40 400.13 988.58 541.53 1129.70 505.37
00000808 00000043 888.33 131.32 384.83 523.56 944.89 351.78 1116.21 308.47 1005.13 397.95 986.91 539.36 1125.09 504.50
00000809 00000044 888.19 131.13 385.19 523.90 944.95 351.30 1115.44 309.09 1004.91 398.84 986.15 538.69 1123.45 504.81
00000810 00000045 472.47 51.67 263.87 341.13
00000811 00000046 472.75 51.63 263.89 341.07
00000812 00000047 473.03 51.58 263.90 341.01
00000813 00000048 473.31 51.53 263.92 340.96
00000814 00000049 473.59 51.48 263.94 340.90
00000815 00000050 473.72 51.53 264.06 340.71
00000816 00000051 473.86 51.58 264.19 340.53
00000817 00000052 473.99 51.62 264.31 340.35
00000818 00000053 474.13 51.67 264.43 340.17
00000819 00000054 474.26 51.72 264.56 339.98
00000820 00000055 474.72 52.12 264.91 339.93
00000821 00000056 475.19 52.52 265.26 339.88
00000822 00000057 475.65 52.92 265.62 339.84
00000823 00000058 476.12 53.31 265.97 339.79
00000824 00000059 476.58 53.71 266.32 339.74
00000825 00000060 476.35 54.22 266.40 339.58
00000826 00000061 888.89 136.04 390.77 532.99 944.96 375.44 1117.73 326.73 1014.87 421.03 995.63 556.03 1145.02 515.17
00000827 00000062 881.41 130.80 396.03 535.50 939.09 376.69 1112.41 324.84 1008.82 418.90 992.40 555.12 1142.09 511.47
00000828 00000063 880.24 137.58 392.05 525.71 936.27 368.82 1107.61 321.80 1002.53 423.32 987.07 545.85 1133.67 506.32
00000829 00000064 875.01 133.65 389.04 530.69 931.05 370.04 1102.64 322.51 997.22 423.38 980.16 546.40 1128.30 506.39
00000830 DELETE   856.02 132.63 400.63 535.38 917.62 372.07 1094.18 320.97 990.67 425.22 971.74 551.60 1123.62 508.42
00000831 00000066 840.83 134.64 402.82 533.10 903.04 372.54 1083.76 322.10 976.24 426.46 957.81 554.59 1110.29 512.42
00000832 DELETE   830.74 136.85 397.49 530.27 891.14 371.71 1069.52 324.66 959.93 427.75 942.02 555.71 1090.63 516.03
00000833 DELETE   822.45 135.25 395.88 535.12 883.83 373.89 1059.73 326.47 954.81 429.49 935.02 558.07 1081.62 518.20
00000834 00000069 812.61 141.80 395.62 540.17 875.97 382.56 1048.59 329.92 954.84 434.16 929.09 563.68 1081.42 521.07
00000835 00000070 810.73 142.93 394.62 540.69 870.73 383.28 1043.27 328.30 949.16 437.26 925.74 565.84 1078.77 521.49
00000836 00000071 811.96 142.54 393.13 539.52 871.42 383.00 1043.75 327.77 948.94 435.54 925.52 564.60 1078.42 520.17
00000837 00000072 812.59 139.54 398.63 533.70 875.16 377.37 1044.16 328.68 945.35 432.69 930.49 555.62 1071.56 514.77
00000838 00000073 815.40 139.50 396.08 529.27 876.44 376.68 1044.81 328.11 946.01 431.83 931.04 552.38 1072.65 511.76
00000839 00000074 817.86 137.59 395.11 530.20 879.14 375.95 1046.69 329.97 948.81 432.04 933.52 550.66 1074.22 512.14
00000840 00000075 824.31 131.92 394.23 539.35 884.46 382.25 1054.73 325.49 956.26 432.27 946.17 565.81 1091.66 517.61
00000841 00000076 821.57 142.69 389.93 525.04 881.92 373.87 1058.86 325.99 953.39 430.20 935.07 559.04 1080.56 518.91
00000842 00000077 824.67 144.37 390.14 526.16 886.37 375.35 1059.92 329.17 957.55 434.63 942.60 561.66 1083.93 523.45
00000843 00000078 830.90 149.74 391.60 525.07 891.20 379.35 1064.19 332.15 959.44 436.28 946.68 564.17 1087.55 525.10
00000844 00000079 834.83 153.98 390.82 523.05 894.52 383.09 1069.60 335.57 964.64 438.00 950.68 568.24 1092.32 529.10
00000845 00000080 837.22 155.03 389.63 520.87 896.52 382.93 1071.87 334.91 966.83 437.00 952.87 567.25 1095.77 527.68
00000846 00000081 838.53 155.71 389.03 517.37 898.47 382.50 1073.37 333.17 969.74 435.32 956.58 565.10 1098.71 524.44
00000847 00000082 838.54 153.28 388.52 513.91 899.69 379.81 1074.31 331.12 972.05 432.22 958.11 559.61 1100.26 519.60
00000848 00000083 838.72 151.47 388.82 513.73 900.44 378.01 1075.44 329.53 972.89 430.75 957.97 556.38 1101.55 516.44
00000849 00000084 839.47 153.09 390.05 514.03 902.10 378.56 1076.37 329.72 974.12 431.37 959.22 557.32 1102.39 517.20
00000850 00000085 840.04 152.46 390.40 515.42 903.46 378.30 1076.77 329.80 975.55 431.98 960.91 557.49 1103.45 517.86
00000851 00000086 841.48 154.50 391.92 517.07 904.82 378.74 1077.28 330.22 976.02 433.63 962.54 559.92 1105.12 520.35
00000852 00000087 843.91 155.12 391.85 516.89 906.45 379.68 1078.37 330.30 977.27 434.41 964.64 560.84 1106.21 520.59
00000853 00000088 844.61 152.38 393.20 518.36 907.93 378.75 1079.52 329.09 979.48 432.93 966.11 559.74 1107.77 519.21
00000854 00000089 844.55 150.98 392.65 518.57 908.31 378.48 1080.12 329.55 980.10 432.05 965.43 557.87 1107.95 517.95
00000855 00000090 845.11 148.94 392.53 518.85 908.56 376.58 1081.23 328.61 980.21 430.79 964.70 555.46 1108.41 516.23
00000856 00000091 846.81 147.85 392.29 517.81 910.42 375.32 1083.72 327.83 982.55 428.91 965.73 553.32 1110.59 514.46
00000857 00000092 847.75 148.34 392.55 516.72 911.28 374.89 1085.18 327.24 982.23 426.28 964.93 552.17 1111.06 513.19
00000858 00000093 851.44 148.54 390.06 515.83 913.50 374.63 1086.89 326.84 983.07 424.41 965.70 551.05 1111.74 511.95
00000859 00000094 854.25 149.08 388.92 515.96 915.99 375.94 1087.70 328.81 985.52 425.87 967.49 551.38 1112.66 512.80
00000860 00000095 854.68 149.65 387.76 515.96 915.46 376.86 1087.00 329.81 984.54 426.44 966.75 552.49 1110.93 514.07
00000861 00000096 854.17 148.06 387.03 518.29 915.15 374.86 1087.24 328.71 983.09 424.80 965.53 551.99 1110.05 514.42
00000862 00000097 852.51 146.66 386.36 520.64 913.44 372.50 1086.15 327.28 981.11 424.11 963.58 551.81 1108.09 515.11
00000863 00000098 851.75 146.66 387.92 519.82 913.21 371.39 1086.74 325.97 980.61 422.83 963.22 551.72 1107.18 514.94
00000864 00000099 851.67 145.24 387.73 520.81 912.75 371.36 1086.40 324.61 979.09 421.79 962.38 551.46 1106.41 513.41
00000865 00000100 853.30 145.19 385.80 519.97 914.41 370.76 1087.99 325.96 980.85 422.56 963.11 550.96 1106.62 514.56
00000866 00000101 857.59 144.75 385.44 522.63 918.41 370.67 1089.89 324.33 983.91 420.93 968.16 552.19 1109.85 514.42
00000867 00000102 859.83 144.12 385.22 523.63 919.72 370.64 1091.34 324.10 985.30 421.39 969.35 552.52 1111.38 514.63
00000868 00000103 859.75 145.85 385.16 522.22 919.63 371.55 1090.18 324.69 985.27 423.17 970.98 552.41 1113.04 514.07
00000869 00000104 861.61 147.18 384.18 522.72 921.62 370.92 1088.15 325.90 986.93 425.15 972.74 551.90 1111.10 515.23
00000870 00000105 865.27 147.79 382.20 523.43 923.23 371.95 1089.72 328.23 986.55 425.93 972.82 551.04 1114.11 515.31
00000871 00000106 870.57 150.12 379.29 527.19 926.58 373.99 1090.71 329.60 988.90 429.96 976.49 552.01 1120.31 515.43
00000872 00000107 876.76 159.85 379.64 528.40 930.97 381.62 1095.11 335.16 993.58 434.88 976.07 560.82 1128.93 523.16
CROP_BBOX: 609 0 1521 890
