Video ID: 	0Gfb6WjGr_Q
H: 	1080
W: 	1920
FPS: 	29.97002997002997

FRAME INDEX X0 Y0 W H [Landmarks (5 Points)]

00006086 00000000 957.46 278.61 330.91 569.29 1189.61 479.32 1236.62 519.63 1276.35 620.52 1139.98 670.94 1190.90 708.25
00006087 DELETE   958.55 275.07 332.13 567.97 1198.22 478.30 1241.82 518.51 1284.12 615.20 1153.96 667.12 1202.09 703.30
00006088 00000002 959.07 265.44 337.05 560.72 1206.04 476.67 1234.86 519.01 1284.79 607.86 1166.73 650.92 1202.32 688.84
00006089 00000003 959.28 265.63 336.84 560.66 1206.13 476.78 1234.99 519.04 1284.78 607.91 1166.71 650.65 1202.31 688.55
00006090 00000004 961.00 262.56 332.09 559.41 1206.89 474.76 1236.11 513.47 1285.64 603.61 1169.44 650.30 1204.60 685.62
00006091 00000005 957.66 255.25 326.48 565.38 1204.73 465.29 1237.91 506.76 1285.58 595.53 1161.80 649.14 1203.75 685.97
00006092 00000006 957.84 253.20 324.27 563.33 1205.74 459.34 1239.31 501.16 1285.25 591.82 1160.70 646.07 1202.92 683.02
00006093 00000007 958.44 245.97 324.41 565.25 1205.16 459.49 1237.77 495.17 1285.48 588.55 1162.24 647.03 1200.66 678.54
00006094 00000008 959.20 246.52 323.70 564.51 1205.10 459.60 1238.11 495.56 1285.06 588.99 1161.85 647.13 1200.69 678.91
00006095 00000009 952.85 243.80 329.68 579.20 1203.37 455.57 1235.46 496.43 1272.66 586.68 1158.45 639.01 1200.41 674.02
00006096 00000010 947.22 242.92 332.12 577.22 1199.63 447.58 1231.64 491.42 1267.77 578.77 1157.12 632.03 1200.72 669.53
00006097 00000011 937.17 245.92 337.31 570.31 1193.33 442.97 1227.78 489.27 1264.25 572.02 1153.85 625.14 1200.23 664.39
00006098 00000012 935.77 248.55 336.89 559.51 1188.92 437.25 1226.31 483.69 1257.20 565.92 1146.31 618.24 1195.24 657.72
00006099 00000013 935.67 249.18 336.73 558.96 1188.75 437.37 1226.27 483.59 1257.28 565.82 1146.74 618.26 1195.87 657.57
00006100 00000014 933.98 238.10 335.92 564.00 1185.44 428.14 1223.44 478.34 1254.76 555.06 1146.93 611.78 1196.27 654.81
00006101 00000015 931.47 232.16 339.29 561.52 1184.24 421.22 1226.22 472.11 1256.44 546.96 1149.92 608.57 1198.20 651.95
00006102 00000016 942.85 218.47 328.18 569.93 1181.79 416.81 1231.46 473.89 1280.14 547.89 1154.79 610.31 1200.24 660.00
00006103 DELETE   937.11 224.73 328.78 555.99 1174.31 414.90 1224.38 472.08 1272.67 547.64 1143.01 606.00 1188.47 656.23
00006104 DELETE   936.83 224.53 328.89 555.71 1174.17 415.17 1224.12 472.20 1272.34 547.93 1143.06 605.90 1188.57 656.00
00006105 00000019 934.78 222.95 327.60 560.12 1171.17 413.45 1220.53 473.00 1269.85 551.22 1134.64 604.27 1181.04 657.43
00006106 00000020 934.73 224.09 328.41 558.92 1169.57 413.36 1220.72 475.24 1269.05 550.96 1134.58 603.45 1181.83 658.49
00006107 00000021 933.46 222.99 328.33 562.23 1170.24 408.08 1220.33 475.30 1267.56 547.95 1131.76 597.52 1179.13 657.13
00006108 00000022 932.57 226.59 332.44 558.73 1170.42 401.98 1220.46 473.17 1267.33 543.58 1127.22 591.53 1175.22 654.82
00006109 00000023 932.85 227.19 331.91 558.29 1170.49 401.85 1220.70 473.16 1267.49 543.53 1127.17 591.71 1175.25 655.13
00006110 00000024 927.57 223.67 339.14 561.36 1168.20 397.43 1216.79 466.88 1264.32 540.54 1122.41 588.12 1170.45 649.78
00006111 00000025 924.09 217.07 340.81 566.31 1167.47 392.11 1214.35 463.74 1260.25 534.93 1116.86 581.75 1163.71 645.08
00006112 00000026 917.32 210.94 341.05 564.86 1161.55 384.46 1212.79 459.51 1253.12 526.10 1108.27 575.43 1157.60 641.44
00006113 00000027 911.55 210.55 336.41 562.85 1153.18 382.45 1202.72 456.52 1247.19 521.49 1099.78 572.60 1148.79 638.07
00006114 00000028 910.58 212.83 337.80 561.22 1153.15 383.27 1203.54 457.97 1246.86 521.77 1099.29 573.50 1148.76 639.38
00006115 00000029 908.50 216.03 337.25 556.33 1151.27 380.76 1204.73 460.84 1246.15 522.11 1091.81 570.56 1144.90 641.41
00006116 00000030 905.27 220.90 338.52 551.97 1148.04 381.56 1202.27 465.08 1244.41 524.10 1088.56 571.29 1142.10 644.99
00006117 00000031 900.34 223.18 338.97 545.36 1145.62 380.82 1196.75 463.63 1239.03 523.70 1085.54 569.07 1138.65 642.05
00006118 00000032 893.37 224.86 345.80 543.80 1142.07 377.21 1193.61 465.75 1235.34 520.49 1079.77 562.57 1135.68 640.67
00006119 00000033 894.11 224.73 344.54 542.96 1141.36 377.28 1193.36 465.72 1235.09 520.40 1079.34 562.79 1135.48 640.83
00006120 00000034 896.39 217.34 339.94 549.03 1137.62 375.60 1191.48 460.73 1236.07 518.06 1079.67 561.37 1135.40 637.17
00006121 00000035 896.22 213.05 338.58 546.51 1135.26 375.55 1188.58 459.38 1233.14 514.12 1079.51 557.63 1134.28 632.54
00006122 00000036 899.54 205.38 331.53 547.78 1134.65 373.77 1186.17 454.43 1227.00 514.37 1077.30 553.58 1130.96 625.93
00006123 00000037 897.40 199.61 331.36 554.46 1136.62 367.57 1185.91 449.50 1226.05 511.56 1075.76 546.37 1129.67 619.70
00006124 00000038 897.78 199.64 330.94 554.66 1136.60 367.61 1185.58 449.43 1225.96 511.61 1075.60 546.25 1129.30 619.50
00006125 00000039 886.56 191.13 338.54 573.39 1135.58 371.42 1197.44 452.07 1205.84 517.91 1062.28 550.46 1134.93 619.18
00006126 00000040 879.04 192.80 343.31 572.61 1128.71 371.99 1191.38 451.13 1201.97 513.06 1060.52 549.77 1132.71 616.71
00006127 00000041 873.06 197.32 344.51 569.51 1124.42 371.23 1183.94 448.49 1198.52 510.15 1058.73 546.21 1129.79 611.05
00006128 00000042 871.98 197.16 344.46 569.98 1124.54 372.61 1184.29 453.99 1198.35 512.86 1057.68 545.79 1129.32 613.99
00006129 00000043 872.20 197.91 344.13 569.59 1124.43 372.55 1184.35 453.43 1198.55 512.61 1057.58 545.97 1129.52 613.83
00006130 00000044 872.41 198.09 343.72 568.80 1124.48 372.67 1184.64 453.70 1198.79 513.09 1057.65 545.52 1129.93 613.46
00006131 00000045 871.12 197.99 344.43 564.38 1122.24 371.92 1183.78 451.37 1198.68 508.57 1059.28 544.00 1131.32 610.45
00006132 00000046 867.24 194.71 347.52 561.83 1119.01 368.88 1182.55 448.34 1197.99 504.61 1058.58 542.23 1131.59 609.28
00006133 00000047 868.42 190.00 347.35 562.03 1118.98 365.32 1185.06 448.90 1196.19 503.16 1057.83 538.90 1132.56 609.65
00006134 00000048 868.08 188.45 347.63 563.71 1119.20 364.97 1185.05 449.31 1195.98 503.28 1058.14 538.52 1132.67 609.83
00006135 00000049 866.67 190.54 349.28 557.41 1118.07 362.53 1185.77 447.51 1195.52 499.73 1057.08 534.89 1133.42 607.01
00006136 00000050 865.06 185.26 348.66 559.28 1116.33 359.52 1183.15 443.85 1193.27 497.67 1058.22 532.53 1133.31 604.32
00006137 00000051 864.44 184.62 347.82 560.97 1114.65 359.44 1181.95 445.27 1191.33 498.54 1056.35 533.17 1131.82 606.32
00006138 00000052 865.52 185.36 346.64 561.79 1114.65 360.43 1182.00 445.13 1191.66 498.54 1056.61 535.00 1131.74 606.98
00006139 00000053 866.01 185.54 346.20 561.35 1114.02 360.64 1181.89 444.53 1190.84 498.22 1056.59 535.56 1131.86 606.93
00006140 00000054 866.10 188.50 344.93 559.36 1114.33 363.61 1181.77 447.13 1192.51 501.07 1057.80 538.99 1132.11 609.78
00006141 00000055 865.26 191.32 345.50 557.11 1112.82 363.78 1180.91 447.10 1193.08 500.95 1056.18 539.06 1130.75 609.53
00006142 00000056 872.19 193.29 331.91 545.77 1114.12 355.82 1174.32 445.66 1209.56 500.18 1054.99 537.95 1116.08 616.56
00006143 00000057 871.56 197.46 334.80 542.04 1105.55 364.72 1176.54 446.67 1202.89 503.44 1050.62 547.62 1117.68 619.42
00006144 00000058 871.84 197.10 334.52 542.78 1105.33 364.72 1176.65 446.92 1202.99 503.20 1050.77 547.57 1117.92 619.57
00006145 00000059 866.06 198.90 339.23 544.59 1102.92 363.14 1173.39 449.33 1197.84 502.40 1046.72 544.35 1113.97 619.52
00006146 00000060 863.83 205.08 339.53 536.17 1098.48 364.65 1175.59 451.77 1195.71 500.98 1042.49 546.64 1114.25 622.17
00006147 00000061 859.12 199.67 338.62 539.45 1096.99 358.02 1169.25 443.48 1195.19 498.29 1042.24 548.02 1111.33 621.61
00006148 00000062 846.66 197.74 343.37 543.91 1088.40 357.07 1163.75 441.61 1188.70 494.95 1037.48 550.99 1108.46 622.92
00006149 00000063 846.50 196.85 343.67 544.78 1087.98 357.29 1163.94 442.35 1188.46 495.14 1037.52 551.01 1108.71 623.38
00006150 00000064 843.96 200.55 343.01 537.28 1084.69 357.27 1164.65 446.27 1185.69 494.78 1035.11 552.74 1109.22 627.82
00006151 00000065 840.38 203.62 343.14 532.40 1082.81 354.45 1166.41 446.70 1185.37 491.95 1032.41 551.23 1110.11 629.06
00006152 00000066 838.17 197.56 339.57 539.30 1079.76 353.20 1164.88 445.84 1182.90 491.71 1030.21 550.60 1107.96 629.10
00006153 00000067 835.03 197.54 340.02 536.26 1076.32 354.26 1162.63 441.90 1179.26 488.65 1031.13 550.98 1110.17 625.07
00006154 00000068 834.76 197.40 340.44 536.19 1076.56 353.97 1162.93 441.55 1179.40 488.55 1031.10 550.73 1110.32 624.74
00006155 00000069 832.58 198.42 341.25 534.57 1075.60 353.51 1162.03 441.05 1176.86 486.19 1030.87 548.86 1110.24 622.69
00006156 00000070 828.58 194.93 343.80 534.30 1074.33 350.99 1160.46 439.15 1174.65 484.26 1030.43 546.96 1109.84 620.92
00006157 00000071 828.56 196.32 344.19 530.65 1073.92 350.42 1161.59 438.82 1175.29 483.46 1030.23 546.42 1111.41 620.54
00006158 00000072 831.75 198.72 343.31 533.56 1075.64 354.27 1163.06 442.05 1178.61 484.63 1035.57 549.11 1114.55 622.82
00006159 00000073 831.44 198.60 344.04 533.33 1075.54 354.37 1162.35 441.98 1178.13 484.63 1036.12 549.07 1114.49 622.55
00006160 00000074 832.99 198.64 347.64 535.85 1076.84 355.70 1164.34 447.12 1180.14 486.78 1037.92 551.12 1114.85 627.42
00006161 00000075 834.81 202.53 350.04 534.76 1077.11 356.85 1166.84 451.65 1180.32 487.95 1036.65 551.59 1115.48 630.72
00006162 00000076 834.97 203.73 350.79 533.93 1077.85 356.94 1168.14 453.13 1182.87 485.26 1041.27 553.53 1119.38 633.38
00006163 00000077 833.98 200.04 350.32 535.66 1079.62 354.76 1168.46 447.80 1183.92 484.05 1043.88 549.77 1121.78 627.21
00006164 00000078 833.99 199.72 350.18 535.89 1079.67 354.54 1168.47 447.55 1184.10 483.94 1043.95 549.75 1121.82 627.18
00006165 00000079 834.39 197.82 350.61 530.99 1079.13 351.63 1169.93 443.56 1184.13 481.77 1042.72 546.14 1124.62 622.58
00006166 00000080 835.48 198.59 349.66 526.40 1079.15 349.41 1171.85 442.67 1186.06 481.01 1042.49 545.74 1126.22 623.03
00006167 00000081 837.04 192.92 349.79 525.99 1078.80 345.65 1174.47 439.94 1186.50 476.05 1043.73 543.01 1128.55 620.81
00006168 00000082 836.77 192.89 349.40 520.31 1078.57 340.87 1175.53 434.07 1185.41 472.59 1042.46 539.27 1128.33 616.24
00006169 00000083 836.77 192.87 349.00 520.67 1078.48 341.13 1175.23 433.12 1185.36 472.88 1042.83 539.88 1128.49 615.82
00006170 00000084 836.83 192.78 349.56 520.82 1076.41 340.90 1175.31 434.59 1183.46 471.92 1039.95 539.29 1127.38 616.57
00006171 00000085 833.51 195.45 351.85 517.91 1075.51 341.34 1173.98 433.91 1182.18 473.59 1036.84 540.01 1124.67 616.59
00006172 00000086 832.12 199.60 351.72 517.26 1075.20 342.73 1172.02 433.13 1180.03 474.94 1032.73 540.19 1122.72 615.38
00006173 00000087 833.55 197.58 353.08 515.64 1076.12 340.86 1175.25 434.43 1181.63 473.55 1033.97 537.48 1124.85 615.20
00006174 00000088 833.62 197.68 352.91 515.95 1076.36 341.18 1175.26 435.00 1181.35 474.12 1033.65 537.40 1124.39 615.37
00006175 00000089 834.62 195.91 355.21 516.48 1076.02 340.05 1178.77 439.08 1181.89 470.39 1033.78 534.87 1126.19 616.80
00006176 00000090 834.24 197.41 355.20 515.65 1076.56 338.57 1179.49 438.07 1181.93 468.86 1032.03 533.02 1125.71 615.56
00006177 00000091 834.43 197.20 354.54 515.32 1076.98 338.63 1179.56 437.22 1182.11 468.54 1033.01 532.52 1126.34 614.35
00006178 00000092 834.42 195.70 356.36 517.38 1076.48 339.11 1179.67 436.23 1181.85 468.70 1032.91 531.93 1127.10 612.59
00006179 00000093 834.11 195.75 356.53 517.13 1076.52 339.26 1179.57 435.85 1181.75 468.79 1032.98 531.95 1127.15 612.18
00006180 00000094 833.09 195.67 358.04 517.14 1075.10 337.64 1179.35 433.09 1182.21 465.41 1032.45 529.61 1128.37 609.02
00006181 00000095 830.93 194.39 358.74 518.24 1072.10 337.30 1176.08 430.53 1179.67 464.70 1030.77 529.07 1128.14 606.80
00006182 00000096 830.70 192.68 357.69 516.01 1071.62 338.54 1174.79 426.50 1177.38 464.39 1031.12 527.32 1128.09 600.83
00006183 00000097 829.49 190.24 360.63 515.77 1069.51 339.63 1173.32 426.35 1175.41 463.40 1031.40 527.33 1127.67 599.66
00006184 00000098 829.21 190.73 360.55 515.43 1069.54 339.49 1173.19 426.28 1175.42 463.29 1031.34 527.34 1127.58 599.72
00006185 00000099 828.02 192.09 362.29 517.80 1066.68 340.52 1173.28 428.06 1174.00 461.71 1027.84 526.94 1127.71 600.18
00006186 00000100 826.89 189.27 364.83 520.03 1063.05 338.59 1172.95 424.58 1172.59 457.72 1026.39 525.15 1129.23 597.10
00006187 00000101 824.68 186.32 365.89 520.05 1061.41 335.48 1171.65 421.24 1170.02 454.16 1024.74 522.16 1128.19 593.80
00006188 00000102 824.98 184.94 365.30 516.76 1056.30 331.71 1170.90 416.62 1164.44 447.84 1019.46 517.26 1127.81 587.97
00006189 00000103 825.19 185.27 364.89 516.37 1056.29 331.64 1170.72 416.58 1164.40 447.82 1019.37 517.32 1127.65 588.05
00006190 00000104 821.20 182.91 366.74 520.56 1053.13 330.30 1167.82 416.53 1162.08 442.29 1017.76 514.76 1126.86 586.63
00006191 00000105 817.12 178.90 365.63 536.74 1040.54 340.55 1166.41 424.39 1152.22 442.62 998.59 514.72 1118.68 585.37
00006192 00000106 815.70 176.72 367.38 536.42 1034.24 335.59 1164.97 417.27 1145.15 440.04 992.03 511.53 1116.19 580.21
00006193 00000107 811.15 175.38 370.70 534.96 1027.90 335.38 1163.10 416.55 1142.88 435.68 989.88 511.14 1116.91 579.17
00006194 00000108 811.32 175.58 370.80 534.23 1027.96 335.34 1163.51 416.67 1143.03 435.96 989.97 510.89 1117.03 579.05
00006195 00000109 809.82 172.31 372.09 526.91 1021.51 331.06 1160.70 412.37 1137.65 430.46 985.06 504.82 1113.98 573.23
CROP_BBOX: 446 0 1516 1004
