Video ID: 	a7Ams-DoJMI
H: 	1080
W: 	1920
FPS: 	25.0

FRAME INDEX X0 Y0 W H [Landmarks (5 Points)]

00001922 00000000 858.50 158.59 467.23 662.47 984.61 369.45 1209.82 388.13 1088.36 501.39 992.02 622.09 1158.04 637.77
00001923 00000001 871.88 160.74 464.76 671.04 1005.10 360.94 1226.65 388.20 1102.70 497.94 1000.00 617.44 1167.87 639.98
00001924 00000002 876.85 150.04 474.20 669.41 1013.25 348.40 1237.60 384.70 1112.10 494.14 1003.28 606.45 1173.81 636.43
00001925 00000003 877.68 148.60 475.46 669.31 1016.81 343.92 1241.17 382.08 1115.59 488.11 1004.26 602.97 1175.35 634.64
00001926 00000004 876.92 151.13 476.40 675.67 1014.79 346.59 1240.24 386.99 1113.07 489.88 999.61 607.59 1175.96 641.18
00001927 00000005 874.67 153.76 475.29 680.57 1009.38 355.04 1233.92 391.15 1106.45 495.66 996.41 614.03 1172.73 644.06
00001928 00000006 873.50 157.03 471.07 672.87 1007.01 356.26 1228.27 391.34 1101.52 497.86 993.15 611.37 1166.07 640.62
00001929 00000007 870.45 160.55 467.12 659.70 1004.81 355.57 1225.55 391.82 1101.48 497.17 989.22 606.48 1164.66 636.68
00001930 00000008 868.06 159.02 466.59 657.40 1004.38 355.05 1225.06 390.74 1103.63 498.34 992.53 604.62 1163.39 634.34
00001931 00000009 864.10 156.54 469.89 672.94 1004.35 355.85 1225.51 388.40 1106.51 498.84 996.52 609.12 1169.63 636.11
00001932 00000010 861.85 155.23 468.59 680.15 1004.49 356.68 1225.03 390.44 1107.74 501.18 992.60 609.40 1172.43 637.38
00001933 00000011 861.72 157.30 462.07 677.91 1001.49 355.94 1220.67 388.06 1104.22 500.43 988.46 607.63 1173.99 634.08
00001934 00000012 858.44 155.58 462.16 678.49 997.85 355.94 1218.11 386.72 1100.52 499.89 984.71 605.70 1172.34 631.09
00001935 00000013 850.32 152.97 466.85 673.71 988.06 355.93 1208.96 383.54 1091.90 501.17 980.25 600.67 1169.28 623.20
00001936 00000014 837.82 148.50 482.00 668.05 971.86 360.59 1204.40 381.85 1086.19 494.65 968.46 605.54 1170.15 620.89
00001937 00000015 833.44 144.91 477.56 661.65 960.88 364.15 1192.12 380.74 1074.35 495.06 962.93 604.38 1161.56 615.89
00001938 00000016 826.02 148.89 472.25 663.65 946.14 366.37 1177.86 371.33 1060.16 495.62 958.61 612.54 1151.13 614.57
00001939 00000017 817.93 144.92 467.82 663.30 928.82 369.91 1155.87 366.30 1038.99 491.26 949.77 616.49 1135.80 611.54
00001940 DELETE   806.24 136.15 459.57 666.68 902.84 376.34 1133.20 365.62 1011.63 495.55 925.26 621.20 1124.90 612.07
00001941 DELETE   798.08 143.31 456.94 683.27 893.44 387.14 1114.21 368.66 996.58 500.28 927.10 628.45 1107.49 611.39
00001942 DELETE   788.83 136.18 469.96 687.98 876.72 391.53 1100.00 373.48 973.24 507.19 911.79 635.08 1098.14 619.85
00001943 00000021 779.40 138.15 473.83 675.52 865.05 391.10 1090.09 368.56 963.28 509.70 903.92 631.14 1090.13 612.07
00001944 00000022 772.50 144.81 475.60 674.29 868.28 394.87 1092.32 364.86 971.79 504.66 911.68 634.57 1096.77 605.55
00001945 00000023 782.61 143.50 466.11 681.60 868.82 380.64 1093.92 354.99 970.22 495.43 911.74 628.60 1094.04 604.92
00001946 00000024 787.51 145.37 463.73 678.17 872.82 373.92 1097.04 352.74 971.87 490.96 909.13 621.99 1092.10 602.45
00001947 00000025 794.02 143.16 458.60 676.55 882.15 362.81 1105.30 345.62 980.18 476.35 911.37 611.37 1096.76 594.83
00001948 00000026 799.99 139.83 456.14 678.56 892.92 357.11 1109.85 344.45 985.01 471.51 917.54 605.61 1096.21 593.30
00001949 00000027 803.05 144.68 457.40 676.83 899.15 353.08 1112.33 345.71 985.29 473.47 921.58 605.86 1092.77 598.34
00001950 00000028 811.62 142.20 450.47 686.66 903.43 354.87 1114.85 351.49 983.65 478.91 921.20 611.15 1092.04 606.92
00001951 00000029 813.10 152.92 450.04 679.73 906.34 358.28 1118.17 359.62 985.53 485.05 919.60 612.33 1091.62 612.34
00001952 00000030 810.24 154.31 451.82 679.72 905.66 354.92 1118.44 358.44 984.57 483.63 918.18 611.09 1090.04 613.02
00001953 00000031 801.19 149.14 450.80 662.22 894.61 349.66 1109.91 350.71 982.39 471.22 909.01 600.42 1084.11 600.63
00001954 DELETE   779.11 128.09 461.13 645.07 862.59 360.09 1086.40 343.07 947.16 454.55 881.16 583.51 1076.80 568.40
00001955 DELETE   762.77 132.08 459.29 629.03 828.67 364.70 1051.96 334.24 905.94 452.58 851.70 583.42 1050.61 557.83
00001956 DELETE   750.05 131.57 462.59 649.09 819.36 367.85 1038.35 335.76 896.51 457.88 843.51 591.19 1037.33 563.88
00001957 00000035 751.00 133.50 457.20 643.07 819.32 366.74 1036.87 340.12 894.98 463.49 842.32 594.05 1027.59 571.65
00001958 00000036 755.39 133.94 455.82 647.69 824.39 363.57 1041.55 340.56 900.22 464.39 845.55 593.25 1029.80 574.66
00001959 DELETE   756.84 135.02 458.11 650.29 828.27 364.40 1046.51 341.22 905.85 464.40 849.07 593.93 1037.24 575.36
00001960 00000038 763.42 137.65 458.41 644.49 839.80 365.39 1057.89 346.43 919.71 464.84 858.38 592.17 1046.90 576.76
00001961 00000039 771.39 137.02 454.43 642.98 851.59 367.61 1071.05 349.64 937.49 461.99 869.12 591.83 1062.22 576.40
00001962 00000040 775.66 136.72 454.73 642.45 862.78 362.67 1081.62 349.60 951.96 459.41 878.87 584.51 1076.47 572.44
00001963 00000041 776.25 137.30 455.53 637.27 869.93 355.43 1092.08 345.88 965.70 453.23 886.63 580.97 1082.64 571.60
00001964 00000042 776.67 136.62 454.93 634.98 873.28 353.30 1095.05 342.34 971.28 449.52 890.46 579.16 1085.88 569.11
00001965 00000043 775.13 136.23 456.84 629.70 871.00 352.67 1091.83 342.40 969.25 451.25 890.38 578.80 1081.63 569.29
00001966 00000044 776.67 136.23 455.18 623.82 872.34 351.19 1091.36 341.68 968.09 451.55 892.41 576.88 1077.81 567.94
00001967 00000045 783.03 130.61 454.35 638.19 883.71 345.38 1106.17 339.98 979.48 448.96 901.67 584.70 1081.01 578.20
00001968 00000046 792.76 128.68 455.86 665.15 904.09 334.78 1117.87 332.87 997.62 439.57 912.70 577.56 1091.76 574.57
00001969 00000047 799.28 129.18 453.55 668.27 913.00 328.79 1129.14 330.79 1008.03 434.07 915.33 571.73 1104.36 571.88
00001970 00000048 797.09 127.83 455.36 668.44 913.48 329.18 1131.08 332.57 1011.15 436.18 914.48 569.65 1108.35 570.74
00001971 00000049 796.06 128.39 455.24 667.22 912.93 329.07 1130.57 333.20 1011.12 436.77 914.22 568.99 1108.14 570.63
00001972 00000050 790.63 129.05 458.21 667.83 908.58 330.47 1126.20 333.67 1008.25 438.37 911.35 569.85 1106.73 570.55
00001973 00000051 787.68 131.12 460.38 671.32 905.88 332.66 1124.35 334.85 1007.33 442.65 910.25 572.29 1106.20 572.01
00001974 00000052 785.77 133.63 463.69 670.16 908.24 334.91 1127.10 340.28 1012.56 452.36 913.61 575.18 1107.02 577.53
00001975 00000053 789.18 134.13 467.61 665.45 914.07 340.36 1136.88 345.06 1024.51 468.14 927.55 583.71 1109.10 586.14
00001976 00000054 796.61 147.44 465.84 652.98 930.75 346.77 1153.57 360.83 1044.72 480.70 941.57 589.38 1116.98 599.74
00001977 00000055 808.94 149.39 467.15 657.31 945.18 359.00 1176.47 370.80 1068.17 501.69 953.60 602.28 1144.38 610.33
00001978 00000056 816.76 150.13 472.03 660.84 956.36 361.45 1188.19 376.58 1079.43 506.74 962.44 607.06 1151.72 618.05
00001979 00000057 818.44 148.56 472.33 665.00 958.92 362.89 1189.04 376.78 1081.25 504.45 967.18 608.90 1156.21 618.74
00001980 00000058 814.23 134.44 469.49 665.48 946.73 359.66 1178.85 373.72 1069.49 498.46 952.53 605.73 1152.82 617.18
00001981 00000059 813.68 132.58 467.68 666.05 943.75 354.65 1176.71 368.98 1067.07 495.23 950.48 604.08 1148.79 615.37
00001982 00000060 814.08 140.29 474.93 666.00 951.93 353.33 1184.52 370.65 1074.14 496.87 953.00 598.98 1152.70 611.87
00001983 00000061 815.64 140.79 474.61 665.99 953.23 355.63 1186.96 373.69 1074.98 500.37 955.41 602.47 1151.96 615.91
00001984 00000062 817.46 147.54 476.96 666.36 957.97 358.39 1191.95 378.42 1079.91 505.15 958.17 607.92 1153.24 623.19
00001985 00000063 818.54 144.86 478.31 674.18 960.62 360.09 1192.81 378.11 1082.55 506.05 963.15 609.14 1156.83 622.49
00001986 00000064 818.17 144.12 476.06 675.06 962.79 358.39 1190.50 373.82 1082.61 502.24 971.49 611.94 1153.11 623.53
00001987 00000065 814.10 144.29 475.05 683.03 958.95 356.72 1185.12 367.72 1080.86 498.39 973.19 617.42 1149.89 625.04
00001988 00000066 811.23 142.11 473.47 686.48 950.09 355.66 1177.92 364.56 1071.78 496.05 964.58 616.23 1146.62 622.20
00001989 00000067 804.43 144.64 476.33 679.19 943.20 355.17 1172.62 365.37 1063.69 496.70 954.72 612.85 1139.41 619.92
00001990 00000068 802.19 146.32 477.52 678.95 940.20 356.41 1172.42 370.48 1060.67 498.53 950.72 613.33 1136.47 623.35
00001991 00000069 797.19 151.42 482.42 682.96 939.02 359.85 1171.58 375.17 1059.72 502.60 947.79 618.56 1133.53 629.63
00001992 00000070 795.06 149.67 480.58 684.63 934.14 362.25 1167.95 374.98 1055.88 505.58 944.78 621.81 1132.20 630.79
00001993 00000071 795.10 146.91 477.09 677.23 929.15 359.19 1164.64 373.25 1050.97 503.51 940.84 618.08 1126.92 628.14
00001994 00000072 793.08 144.15 478.51 679.04 926.63 355.98 1161.73 369.68 1048.70 501.78 938.34 614.28 1125.55 624.14
00001995 00000073 792.28 141.99 478.93 685.73 924.97 354.42 1159.49 368.14 1045.74 500.73 937.24 614.87 1124.98 624.93
00001996 00000074 789.72 144.47 483.17 694.76 920.92 356.11 1152.65 368.10 1034.22 504.38 933.41 618.19 1116.76 627.20
00001997 00000075 785.64 148.18 483.45 703.86 911.48 359.25 1143.28 371.91 1017.20 510.74 918.88 625.40 1104.83 635.29
00001998 00000076 783.18 149.05 486.73 708.54 899.16 360.24 1130.69 374.19 997.65 514.83 903.84 627.01 1092.70 638.52
00001999 00000077 781.25 147.49 484.21 704.71 888.28 359.81 1120.37 376.22 978.91 513.16 894.06 622.97 1082.30 636.42
00002000 00000078 778.45 137.72 482.62 701.70 875.86 355.18 1104.07 371.80 957.79 506.16 882.14 621.23 1063.52 635.64
00002001 00000079 770.73 136.43 484.63 694.15 862.54 353.95 1088.26 371.66 935.51 494.51 866.54 613.97 1041.54 629.87
00002002 DELETE   768.09 126.62 480.12 704.94 850.37 348.93 1070.69 364.15 912.22 487.73 856.02 611.29 1026.20 625.21
00002003 00000081 763.32 120.66 475.31 696.95 833.43 344.12 1054.40 356.40 885.83 480.93 835.34 607.28 1018.54 618.02
00002004 00000082 755.32 110.15 478.12 690.71 825.76 337.62 1039.76 346.40 875.71 470.82 832.10 598.31 1009.02 605.33
00002005 00000083 761.18 105.51 473.10 676.28 825.09 335.75 1043.60 340.54 871.75 454.06 825.81 582.77 1003.79 587.44
00002006 DELETE   769.62 111.63 481.29 692.22 851.65 328.96 1062.90 341.04 900.65 449.88 848.14 581.85 1021.95 593.47
00002007 DELETE   775.27 110.74 485.15 695.20 866.02 326.47 1077.89 345.89 917.28 453.89 857.85 580.58 1035.28 597.91
00002008 DELETE   797.91 114.14 482.68 691.04 896.23 320.43 1114.23 354.00 954.86 457.89 880.83 578.43 1066.01 606.73
00002009 00000087 814.83 123.42 479.94 668.97 909.16 320.03 1129.81 357.32 962.94 452.14 887.26 564.25 1073.98 595.96
00002010 00000088 819.47 122.68 475.47 664.53 908.70 319.44 1129.39 352.01 965.38 447.68 888.39 561.87 1075.54 589.89
00002011 00000089 814.06 120.33 476.23 661.31 900.60 319.10 1117.47 348.31 952.45 447.31 885.17 558.71 1068.03 584.22
00002012 00000090 806.71 117.47 480.39 667.67 896.25 319.00 1113.07 348.34 946.58 449.53 881.65 559.52 1067.15 585.02
00002013 00000091 811.72 119.16 476.96 666.21 896.41 324.26 1116.91 351.79 949.71 457.28 883.17 566.13 1068.02 590.12
00002014 00000092 819.66 129.04 477.10 662.03 906.00 336.26 1129.41 365.95 962.56 471.35 891.38 574.73 1079.13 599.86
00002015 DELETE   833.49 130.65 474.55 665.57 926.43 353.38 1152.35 381.88 993.04 483.31 907.07 587.23 1103.46 610.33
00002016 DELETE   836.89 133.93 486.95 674.39 947.80 358.16 1176.85 386.61 1034.74 491.43 939.58 594.63 1132.44 618.70
00002017 DELETE   862.18 147.64 471.30 658.91 973.68 362.89 1200.20 386.25 1064.84 504.07 969.45 599.54 1150.03 619.34
00002018 00000096 865.31 153.29 474.79 665.04 982.32 362.83 1214.00 378.73 1085.09 507.76 986.95 608.81 1171.10 621.56
00002019 00000097 854.75 143.26 471.72 672.64 972.48 360.56 1204.93 371.65 1077.91 500.10 983.15 607.55 1168.08 616.50
00002020 00000098 845.97 141.55 474.77 674.35 963.68 360.21 1195.51 369.75 1069.29 500.32 974.88 606.88 1161.72 614.58
00002021 00000099 828.33 139.36 488.62 679.05 945.51 361.59 1180.97 366.27 1053.91 495.75 956.27 609.69 1156.66 611.51
00002022 00000100 822.43 133.31 475.81 671.94 924.83 358.12 1162.59 367.50 1029.67 495.58 934.41 611.27 1131.86 618.31
00002023 00000101 807.06 144.12 493.28 676.47 922.51 363.95 1156.83 369.41 1026.99 500.93 940.98 617.46 1123.24 620.28
00002024 00000102 800.79 142.32 492.94 703.13 920.81 368.11 1157.07 368.33 1031.43 508.52 941.66 633.76 1127.05 632.44
00002025 00000103 798.72 143.47 492.36 705.31 921.53 373.80 1158.58 370.60 1039.88 516.76 945.69 638.89 1135.51 634.43
00002026 00000104 791.92 146.98 493.84 706.10 921.20 375.64 1158.52 372.22 1042.89 520.03 944.83 641.65 1136.36 636.86
00002027 00000105 782.82 143.18 495.27 709.66 911.96 374.97 1148.87 370.09 1033.21 521.29 940.94 642.95 1127.47 637.36
00002028 00000106 769.72 127.28 502.19 726.80 900.40 373.21 1137.06 373.47 1017.90 515.31 923.62 636.81 1121.66 634.37
00002029 00000107 766.48 129.32 492.57 718.57 887.40 365.87 1124.60 364.99 1000.16 508.03 910.65 625.92 1106.49 623.87
00002030 00000108 761.47 130.05 491.93 711.65 881.44 362.85 1118.11 363.00 991.77 502.11 899.88 616.53 1102.09 615.02
00002031 00000109 761.07 128.94 488.74 711.82 876.57 358.66 1112.96 360.90 984.41 499.33 891.86 611.48 1095.81 611.82
00002032 00000110 759.58 129.55 489.69 713.61 874.07 359.32 1109.88 361.49 980.69 497.46 888.80 612.89 1091.38 613.29
00002033 00000111 755.89 131.33 489.26 714.03 867.74 360.42 1104.90 364.09 972.98 496.79 880.69 615.17 1084.68 617.00
00002034 00000112 754.44 137.33 488.70 715.25 864.41 369.37 1100.77 372.89 966.73 503.60 874.52 621.56 1079.05 623.39
00002035 00000113 754.52 140.98 487.03 708.16 866.34 379.68 1103.15 380.66 973.29 517.05 879.10 635.86 1081.30 634.34
00002036 00000114 745.02 138.33 495.08 716.36 866.89 374.53 1103.22 385.12 979.65 524.65 883.93 635.87 1079.20 643.05
CROP_BBOX: 414 0 1592 1080
