Video ID: 	LJWfOLdkNZ4
H: 	1080
W: 	1920
FPS: 	25.0

FRAME INDEX X0 Y0 W H [Landmarks (5 Points)]

00001899 00000000 1052.92 243.78 414.95 583.26 1102.97 450.42 1310.57 462.93 1159.17 589.83 1115.31 682.21 1288.05 690.67
00001900 DELETE   1052.78 229.19 413.63 584.28 1105.04 439.46 1308.25 451.01 1156.27 569.28 1110.40 670.85 1276.54 679.67
00001901 00000002 1050.49 217.09 414.78 586.03 1102.90 429.09 1305.20 438.11 1153.46 553.73 1108.23 661.49 1274.45 668.90
00001902 00000003 1047.25 208.94 410.88 588.15 1105.45 424.95 1313.02 435.59 1160.52 538.64 1113.20 655.49 1271.74 663.50
00001903 00000004 1047.96 208.11 408.81 587.91 1105.49 425.04 1313.45 434.49 1160.59 539.66 1114.60 656.17 1273.57 663.39
00001904 00000005 1047.08 211.18 409.89 589.49 1105.67 431.34 1314.27 438.63 1160.74 545.60 1117.73 663.53 1276.53 668.73
00001905 00000006 1045.81 212.98 417.43 597.83 1102.43 434.12 1312.68 450.03 1156.56 561.66 1110.29 669.45 1272.53 683.32
00001906 00000007 1043.73 220.45 419.26 600.44 1098.15 442.63 1312.75 459.13 1155.95 572.17 1108.12 680.91 1271.03 695.75
00001907 00000008 1044.64 231.81 411.27 601.86 1102.86 450.89 1307.83 467.06 1157.27 579.85 1111.42 685.04 1277.58 698.83
00001908 00000009 1046.48 238.01 408.75 596.70 1101.17 453.16 1307.63 472.33 1157.88 589.86 1108.62 688.95 1276.88 705.47
00001909 00000010 1049.27 245.40 405.64 589.06 1101.59 453.12 1307.79 473.19 1158.50 589.77 1107.99 688.60 1276.30 705.85
00001910 00000011 1050.01 241.87 405.41 591.79 1102.54 449.57 1308.38 467.66 1157.72 581.52 1109.14 685.88 1274.94 701.46
00001911 00000012 1050.62 229.14 407.30 597.85 1100.36 444.22 1308.78 461.88 1155.93 572.02 1108.17 682.75 1272.37 697.89
00001912 00000013 1051.55 229.95 410.59 591.67 1104.16 447.59 1303.35 458.89 1152.81 565.37 1106.06 676.65 1269.42 686.23
00001913 00000014 1049.60 225.80 411.80 592.09 1103.46 445.78 1303.47 457.39 1153.00 563.89 1104.05 674.25 1267.83 684.16
00001914 00000015 1047.81 225.21 413.57 592.27 1102.61 445.70 1303.28 456.67 1152.42 563.07 1104.01 674.69 1266.77 684.27
00001915 00000016 1047.11 219.02 415.79 600.78 1100.58 445.78 1301.99 457.06 1149.56 564.26 1101.63 676.53 1265.06 686.31
00001916 00000017 1044.77 221.94 414.02 598.47 1098.62 446.69 1300.20 456.92 1147.63 564.59 1099.39 677.61 1264.02 686.78
00001917 00000018 1036.35 215.83 414.00 597.58 1088.13 444.49 1291.97 454.49 1136.34 567.70 1096.27 672.82 1259.43 680.45
00001918 00000019 1032.69 220.02 411.65 597.11 1084.07 445.08 1285.64 454.18 1134.11 568.10 1093.39 674.33 1257.31 681.38
00001919 00000020 1032.68 223.54 409.09 595.82 1083.28 446.60 1286.67 455.58 1134.78 569.91 1092.46 676.06 1259.15 683.42
00001920 00000021 1041.36 220.15 411.44 605.06 1092.47 444.34 1301.71 459.43 1147.50 568.37 1100.00 684.06 1260.15 697.53
00001921 00000022 1045.56 225.13 410.94 600.39 1095.35 443.95 1304.73 459.19 1150.92 568.00 1103.13 683.69 1262.20 697.33
00001922 00000023 1047.90 223.86 409.02 602.42 1097.71 444.62 1306.40 459.09 1152.40 566.88 1105.59 683.41 1264.58 696.42
00001923 00000024 1048.56 232.50 414.19 595.17 1102.48 449.44 1303.74 457.41 1154.11 565.97 1106.30 681.40 1268.40 688.46
00001924 00000025 1050.06 236.65 413.94 591.80 1104.80 451.47 1304.42 459.44 1155.11 567.30 1108.85 681.51 1270.70 688.69
00001925 00000026 1051.19 235.18 414.74 593.58 1107.67 451.71 1307.07 460.92 1157.74 566.91 1111.10 681.31 1273.23 689.38
00001926 00000027 1052.19 236.01 414.74 592.83 1108.78 452.38 1307.92 461.90 1158.57 566.43 1112.10 682.19 1274.40 690.40
00001927 00000028 1052.23 236.29 413.99 593.69 1108.46 452.50 1308.09 462.00 1158.34 566.22 1111.35 682.38 1273.96 690.65
00001928 00000029 1051.08 236.31 412.90 594.69 1106.41 452.54 1306.09 460.43 1156.48 566.66 1110.18 682.89 1272.50 689.89
00001929 00000030 1049.72 233.82 414.74 597.18 1104.60 453.11 1304.83 459.69 1154.99 566.60 1108.61 683.20 1271.10 689.16
00001930 00000031 1049.58 225.23 410.30 607.86 1101.75 449.95 1307.00 461.35 1152.66 566.78 1108.55 685.38 1268.03 695.93
00001931 00000032 1047.47 230.46 410.90 605.00 1100.79 452.01 1305.12 463.53 1150.84 567.74 1106.85 686.47 1265.09 697.11
00001932 00000033 1042.78 234.55 410.99 600.59 1097.79 453.42 1302.37 466.53 1148.40 568.48 1102.27 687.25 1261.67 699.09
00001933 00000034 1038.98 232.52 411.38 602.14 1092.79 453.20 1298.34 467.64 1143.42 568.86 1096.97 687.57 1256.54 700.37
00001934 00000035 1036.76 235.85 412.27 599.09 1091.28 453.32 1297.60 467.94 1142.99 569.49 1095.46 687.33 1255.89 700.17
00001935 00000036 1039.04 236.78 409.53 598.67 1093.46 454.06 1298.75 467.81 1143.81 569.45 1098.08 687.46 1257.97 699.60
00001936 00000037 1041.34 239.42 408.57 595.65 1095.87 454.20 1299.95 467.57 1144.78 569.11 1100.14 687.48 1259.70 699.43
00001937 00000038 1041.65 238.55 407.78 596.24 1097.35 454.93 1300.66 468.07 1145.76 568.76 1101.57 686.77 1260.24 698.55
00001938 00000039 1043.65 240.09 407.25 594.47 1098.35 453.73 1301.50 467.50 1147.10 568.75 1101.97 685.58 1260.77 697.97
00001939 00000040 1044.51 238.13 408.61 595.41 1098.67 452.17 1302.28 466.28 1148.03 567.49 1102.19 684.55 1260.79 697.26
00001940 00000041 1044.41 235.59 408.00 594.88 1098.60 449.08 1303.35 463.07 1148.06 565.60 1103.08 683.60 1262.12 696.20
00001941 00000042 1049.09 239.33 408.17 590.58 1102.85 449.59 1301.52 456.72 1151.18 563.36 1105.37 680.48 1266.58 686.77
00001942 00000043 1049.63 235.79 409.99 591.66 1104.16 448.51 1303.70 455.75 1152.81 562.10 1106.36 678.76 1268.25 684.94
00001943 00000044 1049.34 235.60 406.52 586.88 1097.83 445.09 1302.69 448.56 1150.17 563.03 1105.94 679.33 1267.46 681.77
00001944 00000045 1044.77 218.46 412.24 606.54 1099.74 443.73 1305.89 457.07 1150.69 560.29 1104.93 677.90 1264.88 690.10
00001945 00000046 1049.48 232.20 408.38 589.64 1096.83 443.37 1302.68 447.17 1149.69 561.63 1103.93 676.99 1266.60 679.97
00001946 00000047 1051.59 233.92 406.73 585.61 1099.24 442.33 1304.63 445.71 1153.29 560.02 1105.83 675.76 1267.88 678.29
00001947 00000048 1052.74 232.79 408.65 587.27 1100.29 442.64 1305.56 444.95 1153.89 559.62 1107.29 676.29 1269.30 678.00
00001948 00000049 1052.26 230.81 408.99 588.85 1100.35 442.31 1304.67 445.09 1152.62 559.30 1106.80 675.72 1268.00 677.93
00001949 00000050 1052.13 231.20 406.11 587.46 1099.06 438.12 1302.35 441.71 1149.39 557.36 1106.71 674.67 1266.94 677.46
00001950 00000051 1052.57 230.19 406.46 588.32 1099.49 437.62 1302.20 440.58 1149.39 555.86 1107.90 674.43 1267.01 676.80
00001951 00000052 1053.35 229.25 406.39 587.69 1099.98 436.72 1302.65 439.83 1150.05 555.25 1108.24 672.81 1268.35 675.34
00001952 00000053 1055.41 228.40 406.90 587.38 1101.32 437.25 1304.86 438.61 1152.80 553.21 1110.02 671.91 1272.23 672.97
00001953 00000054 1056.56 228.69 408.60 587.35 1103.06 436.19 1309.12 437.03 1156.33 552.11 1112.19 671.22 1277.77 671.78
00001954 00000055 1055.93 229.05 409.93 587.18 1105.42 434.94 1311.94 436.99 1160.62 552.49 1114.61 669.65 1281.96 671.17
00001955 00000056 1057.41 230.97 406.80 584.10 1107.87 432.61 1313.00 436.12 1162.02 550.20 1115.45 666.58 1283.04 669.46
00001956 00000057 1056.76 227.04 404.23 592.45 1107.05 429.50 1309.21 434.32 1156.67 545.70 1111.67 665.67 1278.55 669.72
00001957 00000058 1053.99 223.16 400.07 597.24 1105.19 425.80 1303.66 432.50 1150.96 542.15 1107.73 664.49 1270.34 670.41
00001958 00000059 1053.28 217.60 400.34 602.62 1107.59 422.10 1304.30 429.71 1151.89 538.08 1107.72 662.56 1265.10 669.87
00001959 00000060 1054.11 221.14 397.86 596.86 1112.27 420.56 1313.21 427.75 1162.37 534.03 1113.76 660.94 1273.67 667.90
00001960 00000061 1056.89 221.63 396.21 592.34 1117.86 417.23 1321.84 424.32 1171.00 530.45 1117.68 656.62 1281.29 663.67
00001961 00000062 1058.29 222.46 402.31 588.52 1118.30 416.34 1325.38 422.87 1173.29 528.04 1119.94 655.42 1284.28 661.98
00001962 00000063 1054.09 214.48 412.72 597.94 1119.45 416.67 1320.90 423.87 1174.01 526.42 1121.51 653.25 1283.46 659.95
00001963 00000064 1059.49 220.65 400.73 586.84 1119.32 418.02 1326.18 424.70 1173.10 523.54 1120.32 651.96 1287.21 658.49
00001964 00000065 1059.53 218.90 402.12 589.41 1120.22 418.35 1330.10 424.43 1177.78 522.36 1122.30 651.85 1290.57 658.05
00001965 00000066 1060.49 216.34 410.95 586.33 1122.73 421.66 1335.22 425.47 1185.83 520.28 1126.36 651.51 1298.86 655.37
00001966 DELETE   1058.69 224.59 421.08 576.02 1127.59 430.09 1345.09 428.56 1200.91 513.71 1135.15 652.61 1313.91 651.01
00001967 DELETE   1059.83 225.74 422.03 575.87 1134.14 432.02 1353.22 425.89 1215.52 511.43 1148.85 653.19 1330.54 647.20
00001968 DELETE   1063.68 230.04 423.42 572.51 1135.43 439.99 1354.61 424.21 1222.45 511.89 1160.02 656.18 1348.40 642.16
00001969 00000070 1063.70 227.17 431.38 579.94 1137.82 438.80 1360.45 417.02 1233.58 517.43 1170.97 659.51 1363.53 640.22
00001970 00000071 1062.72 232.95 431.71 582.77 1137.97 439.75 1357.62 411.80 1237.21 519.93 1180.11 665.33 1368.15 641.12
00001971 00000072 1061.43 230.99 431.18 588.21 1136.74 445.81 1355.05 412.90 1238.97 526.25 1185.27 672.26 1367.68 644.57
00001972 00000073 1059.59 231.95 431.88 588.16 1133.70 450.77 1353.05 416.19 1235.81 531.11 1182.51 675.60 1365.03 647.10
00001973 00000074 1058.96 232.11 429.11 585.67 1133.00 451.40 1350.44 416.24 1232.18 532.95 1180.93 675.40 1363.47 646.29
00001974 00000075 1059.28 237.44 427.71 576.54 1131.76 445.06 1347.93 410.56 1231.75 525.83 1176.90 667.19 1367.22 638.15
00001975 00000076 1059.75 235.67 427.17 562.60 1132.07 440.67 1345.99 401.89 1227.97 513.01 1174.24 653.48 1368.10 620.71
00001976 00000077 1060.18 230.74 429.02 558.20 1131.55 437.20 1346.27 398.12 1228.82 509.63 1172.40 646.59 1369.26 613.72
00001977 00000078 1060.29 235.31 428.61 561.89 1132.49 439.43 1343.91 401.70 1228.64 517.39 1175.43 652.87 1365.20 621.01
00001978 DELETE   1057.23 237.85 432.85 581.40 1128.74 454.47 1342.35 414.63 1228.15 541.50 1181.20 677.42 1363.42 643.75
00001979 DELETE   1050.94 255.77 444.95 588.78 1122.05 467.15 1337.96 427.57 1223.90 571.17 1182.42 697.13 1363.86 661.90
00001980 DELETE   1046.60 279.22 441.98 580.91 1123.97 487.37 1335.17 450.22 1226.11 592.85 1184.18 717.87 1348.93 686.58
00001981 00000082 1045.61 288.87 441.70 574.44 1120.22 489.01 1333.96 456.32 1222.66 601.70 1181.58 728.15 1340.76 700.86
00001982 00000083 1044.84 289.36 444.92 571.31 1120.08 486.18 1335.61 454.24 1223.95 599.07 1180.13 725.02 1340.00 698.35
00001983 00000084 1052.19 274.60 435.92 574.57 1123.56 484.46 1337.61 452.81 1220.08 587.11 1174.06 712.64 1338.10 686.63
00001984 00000085 1056.19 251.75 434.55 596.99 1126.59 471.37 1338.71 444.12 1218.31 573.11 1170.49 699.31 1344.96 675.62
00001985 00000086 1059.18 241.07 433.46 605.00 1128.53 460.52 1341.00 432.74 1221.64 563.98 1172.19 692.27 1352.77 667.75
00001986 00000087 1061.48 237.18 433.41 603.29 1127.36 461.27 1341.93 426.32 1217.67 550.16 1168.54 686.82 1357.51 657.22
00001987 00000088 1061.83 234.06 432.04 606.39 1127.61 460.06 1342.05 426.33 1216.50 546.45 1166.32 684.92 1356.66 656.34
00001988 00000089 1060.56 234.42 436.07 611.37 1126.51 461.09 1338.90 429.05 1213.88 553.57 1166.25 686.86 1356.16 659.18
00001989 00000090 1059.74 234.99 434.24 610.29 1125.64 461.17 1338.28 433.93 1209.26 557.46 1161.49 687.88 1347.67 664.07
00001990 DELETE   1060.34 235.33 431.87 603.61 1121.03 456.72 1330.89 432.67 1194.11 549.47 1152.03 683.22 1335.66 661.67
00001991 DELETE   1062.51 232.13 418.57 594.64 1116.06 443.99 1320.81 427.03 1175.91 538.61 1138.93 672.47 1313.45 658.09
00001992 DELETE   1064.40 223.17 414.89 589.18 1113.63 431.31 1312.62 418.89 1164.16 520.80 1128.65 653.59 1298.99 642.81
00001993 00000094 1060.70 210.83 421.48 593.16 1110.76 426.20 1310.82 415.61 1157.13 508.77 1121.52 652.72 1280.10 644.83
00001994 00000095 1059.44 203.22 420.19 601.69 1107.22 426.81 1304.21 417.41 1151.62 512.19 1114.67 658.39 1264.42 652.35
00001995 00000096 1056.64 203.00 411.62 602.90 1095.98 431.88 1286.28 427.37 1140.09 522.11 1105.38 667.54 1236.86 665.48
00001996 00000097 1051.07 205.08 417.64 618.20 1090.93 444.99 1285.90 442.36 1137.58 544.12 1104.91 683.51 1239.37 682.68
00001997 00000098 1045.73 208.30 423.12 633.80 1090.28 453.12 1286.78 449.85 1132.87 558.08 1104.10 694.10 1247.08 693.09
00001998 00000099 1046.76 211.17 421.16 633.63 1093.26 451.64 1288.26 450.10 1134.34 559.37 1108.61 689.83 1258.76 689.63
00001999 00000100 1047.15 217.83 428.90 618.74 1095.88 445.00 1285.79 439.84 1128.26 551.90 1109.40 676.50 1273.08 671.63
00002000 00000101 1057.20 201.26 416.51 622.06 1094.64 434.43 1283.74 427.79 1129.79 532.42 1111.11 666.91 1263.85 662.88
00002001 00000102 1063.37 184.98 409.37 621.89 1098.65 420.14 1282.72 419.97 1124.80 517.79 1105.53 651.55 1250.41 653.41
00002002 00000103 1060.11 173.58 416.04 623.77 1100.04 415.66 1284.58 417.03 1124.07 506.09 1102.06 641.88 1242.10 645.09
00002003 00000104 1057.83 176.72 424.09 615.04 1105.79 414.97 1287.58 410.02 1129.44 501.43 1105.26 638.01 1245.14 634.22
00002004 00000105 1054.63 174.26 421.71 619.42 1104.71 417.11 1286.26 413.61 1129.74 504.74 1102.77 639.69 1239.51 637.43
00002005 00000106 1053.61 187.72 405.81 608.14 1091.92 413.92 1278.87 420.23 1120.00 507.28 1085.39 645.06 1220.63 652.62
00002006 00000107 1045.97 198.79 409.98 599.88 1087.59 417.56 1272.94 422.90 1115.44 507.71 1081.26 646.56 1213.84 652.68
00002007 00000108 1047.88 206.55 413.55 599.70 1093.30 414.82 1270.93 411.10 1116.71 504.62 1083.71 645.43 1212.30 644.91
00002008 00000109 1049.20 197.80 408.42 592.61 1091.78 409.35 1274.78 413.09 1116.31 495.54 1078.28 637.78 1208.67 642.86
00002009 00000110 1050.28 189.37 410.87 591.28 1091.20 404.13 1274.52 407.00 1114.55 492.51 1079.30 633.39 1210.87 637.85
00002010 00000111 1050.75 183.44 412.63 593.71 1090.52 400.38 1273.16 405.29 1113.54 492.57 1079.66 630.49 1211.16 636.69
00002011 DELETE   1051.64 191.01 419.97 596.04 1093.84 412.69 1276.73 410.91 1114.98 498.13 1084.65 635.33 1219.29 635.29
00002012 00000113 1051.79 194.89 422.29 605.00 1095.64 414.62 1281.36 413.59 1120.19 502.94 1085.98 640.02 1221.85 640.72
00002013 00000114 1051.05 193.75 419.72 597.26 1101.50 414.21 1282.50 412.52 1125.48 499.48 1091.24 635.31 1225.28 634.95
00002014 00000115 1053.61 189.53 420.63 597.78 1107.53 405.04 1291.30 408.83 1135.17 498.88 1094.27 629.27 1228.03 633.48
00002015 00000116 1057.15 188.41 417.76 597.66 1113.02 397.76 1302.34 405.54 1144.72 500.87 1098.36 627.36 1237.21 634.85
00002016 00000117 1062.64 197.43 412.10 598.84 1116.77 395.96 1309.10 402.48 1158.33 496.74 1106.69 632.78 1248.96 640.96
00002017 00000118 1066.26 197.46 409.12 597.17 1122.09 391.67 1320.63 404.34 1171.14 498.53 1112.61 630.51 1261.34 643.23
00002018 00000119 1068.96 195.98 407.61 597.14 1126.03 388.23 1326.72 402.16 1180.17 495.58 1116.18 628.68 1267.00 642.11
00002019 00000120 1068.81 193.75 406.30 600.57 1128.40 387.02 1328.80 398.46 1182.05 489.13 1119.10 627.71 1270.47 639.25
00002020 00000121 1066.38 197.32 409.71 603.16 1129.56 384.84 1329.69 394.68 1181.76 481.58 1120.27 629.59 1270.79 639.90
00002021 00000122 1065.12 201.01 410.83 602.11 1132.90 382.20 1333.75 393.53 1184.74 479.37 1120.74 627.41 1275.55 638.57
00002022 00000123 1066.89 199.90 412.96 596.80 1131.53 384.62 1335.35 395.68 1182.91 481.42 1120.62 627.70 1281.68 638.23
00002023 00000124 1068.96 198.81 416.30 591.84 1130.66 390.27 1336.26 398.54 1182.36 484.11 1121.92 628.45 1286.30 636.31
00002024 00000125 1070.98 198.47 420.97 589.75 1132.11 392.98 1336.83 399.23 1181.66 487.83 1125.45 630.85 1286.63 637.04
CROP_BBOX: 663 0 1880 1080
