Video ID: 	2wzsdEp9C00
H: 	1080
W: 	1920
FPS: 	25.0

FRAME INDEX X0 Y0 W H [Landmarks (5 Points)]

00001536 00000000 1032.71 330.96 351.53 505.11 1168.14 539.26 1324.74 511.79 1291.96 614.33 1200.13 716.77 1326.59 695.80
00001537 DELETE   1031.91 329.98 349.68 506.52 1158.95 540.93 1316.95 516.72 1278.37 620.04 1195.33 717.87 1321.10 699.06
00001538 DELETE   1019.90 338.84 357.85 504.79 1143.72 540.34 1305.87 524.03 1259.23 626.72 1174.93 716.88 1307.10 704.59
00001539 DELETE   1009.00 338.60 359.19 505.06 1131.77 537.01 1295.93 525.10 1243.43 628.96 1158.92 718.89 1290.32 711.03
00001540 00000004 1003.00 328.15 357.43 514.63 1126.31 538.99 1289.22 525.58 1239.17 629.63 1155.47 720.04 1287.54 710.81
00001541 00000005 1003.07 331.84 358.56 512.66 1129.83 537.18 1290.73 525.43 1241.42 627.66 1157.29 717.76 1286.20 710.04
00001542 00000006 1007.21 338.96 358.88 501.55 1138.26 536.66 1298.92 527.50 1250.52 623.95 1162.04 714.88 1290.44 709.52
00001543 00000007 1008.01 342.65 358.37 494.11 1143.54 535.83 1300.98 528.42 1254.84 622.74 1166.77 712.89 1290.82 708.83
00001544 00000008 1000.86 346.50 366.50 496.55 1137.71 532.79 1298.75 525.28 1248.24 622.08 1161.38 711.92 1289.10 707.54
00001545 DELETE   985.86 341.27 368.44 502.08 1118.89 525.51 1285.54 513.45 1233.25 618.27 1145.64 708.32 1281.87 699.68
00001546 DELETE   978.63 336.56 364.29 499.46 1090.30 524.72 1255.64 511.14 1196.05 618.36 1116.86 705.28 1258.30 695.49
00001547 DELETE   957.05 334.18 371.03 497.59 1064.31 516.49 1231.49 505.11 1164.44 616.13 1091.35 704.32 1227.42 695.36
00001548 00000012 941.96 328.52 376.28 501.63 1041.98 509.28 1213.42 502.42 1130.46 605.60 1065.12 701.23 1196.70 695.92
00001549 DELETE   930.64 314.05 374.65 510.60 1017.20 501.90 1186.67 498.49 1098.61 604.68 1040.09 694.10 1170.22 691.73
00001550 00000014 913.66 311.23 373.15 509.62 992.48 497.03 1163.54 497.34 1075.05 602.25 1017.39 689.17 1152.98 688.55
00001551 00000015 906.33 312.22 369.75 508.81 984.15 493.81 1145.82 489.02 1057.38 594.74 1017.58 693.14 1135.39 688.66
00001552 00000016 905.12 304.78 368.75 521.66 978.70 500.20 1146.01 482.99 1059.67 592.83 1014.38 704.57 1141.04 690.56
00001553 00000017 909.14 304.91 369.37 527.47 986.18 506.82 1155.91 484.82 1073.58 592.97 1025.64 704.78 1162.20 686.25
00001554 00000018 905.10 301.91 381.57 528.28 997.31 497.66 1163.35 485.00 1090.72 599.35 1038.20 691.20 1169.64 678.33
00001555 00000019 902.17 293.86 383.96 528.12 1003.04 490.28 1169.71 480.65 1093.89 594.58 1043.55 688.70 1173.89 681.28
00001556 00000020 905.85 302.69 377.64 512.43 990.30 494.42 1159.86 484.15 1083.16 601.43 1029.94 688.50 1159.55 678.79
00001557 00000021 896.16 291.88 376.87 527.94 971.56 494.51 1142.96 479.38 1051.37 591.15 1001.54 695.93 1134.68 683.22
00001558 DELETE   889.69 297.65 372.01 517.56 952.37 503.43 1114.80 484.74 1014.97 587.63 979.57 691.88 1113.05 677.03
00001559 DELETE   877.01 301.26 369.23 510.51 928.74 503.00 1085.57 486.87 981.78 589.14 955.47 685.77 1087.11 674.47
00001560 00000024 868.82 304.32 367.22 503.54 918.23 496.73 1071.96 487.02 970.85 592.35 945.46 682.47 1070.39 675.65
00001561 00000025 866.93 309.98 368.80 502.94 921.72 496.90 1077.09 488.00 978.86 592.66 949.27 684.46 1073.63 678.65
00001562 DELETE   875.76 303.53 372.07 507.26 939.74 500.07 1098.58 485.36 1005.57 591.36 971.07 692.40 1093.70 681.84
00001563 00000027 877.93 281.02 383.32 525.53 961.14 500.54 1119.66 476.67 1043.24 590.20 1007.03 690.71 1127.32 671.84
00001564 00000028 884.93 284.35 385.52 525.47 978.69 489.73 1137.04 457.81 1068.18 572.41 1028.73 681.44 1154.75 655.69
00001565 00000029 884.90 287.05 386.14 514.33 980.38 482.89 1138.10 451.12 1069.35 566.52 1030.04 673.09 1155.16 647.20
00001566 00000030 878.90 284.97 384.99 510.64 966.04 485.45 1120.61 457.59 1047.94 573.29 1007.85 668.13 1135.15 646.04
00001567 00000031 863.02 281.84 393.36 518.18 945.46 487.21 1108.82 467.46 1023.88 577.05 985.95 676.06 1113.99 660.34
00001568 DELETE   851.47 284.64 386.12 515.62 925.99 490.18 1088.06 477.20 992.15 582.03 960.96 683.81 1082.82 673.74
00001569 00000033 848.62 285.18 384.75 511.11 905.64 490.14 1074.71 472.40 966.73 580.15 939.40 683.78 1060.59 669.43
00001570 00000034 841.70 289.92 385.65 505.71 901.59 485.65 1061.57 465.43 957.35 574.07 938.19 677.37 1055.91 660.83
00001571 00000035 841.98 283.35 390.59 520.19 904.45 489.05 1070.33 468.95 963.92 571.80 944.46 675.05 1070.79 657.93
00001572 DELETE   852.77 275.02 391.07 529.90 923.90 484.53 1087.25 461.41 989.70 566.47 963.52 670.21 1103.41 650.92
00001573 00000037 866.78 271.46 388.94 534.22 940.26 476.48 1104.59 453.33 1012.07 563.21 975.95 664.58 1121.84 646.10
00001574 00000038 876.74 269.16 385.49 530.94 948.33 467.72 1112.80 450.53 1016.37 559.24 974.83 657.89 1121.32 645.04
00001575 00000039 879.69 266.03 380.94 527.37 945.13 464.73 1113.63 453.63 1003.36 557.30 964.11 661.12 1103.91 653.99
00001576 00000040 877.27 265.07 375.23 524.83 939.49 461.87 1094.46 456.57 985.92 558.13 960.05 666.87 1076.87 664.83
00001577 00000041 874.28 264.64 368.98 523.70 933.09 466.44 1080.41 462.14 976.88 563.11 953.94 670.98 1063.79 669.26
00001578 00000042 873.81 276.46 374.06 524.47 935.22 477.53 1089.26 472.07 982.98 576.88 956.95 675.92 1077.96 672.63
00001579 DELETE   875.64 277.79 389.09 533.30 946.13 490.23 1110.83 472.75 1013.29 586.71 984.79 684.08 1116.06 670.44
00001580 00000044 891.62 277.16 381.04 547.85 959.87 488.56 1133.66 466.11 1039.78 588.28 1000.52 694.84 1138.98 675.24
00001581 00000045 899.98 289.12 380.29 539.22 973.95 496.00 1151.47 476.04 1058.40 591.51 1010.65 701.41 1153.54 683.81
00001582 00000046 908.18 308.69 376.18 510.71 974.86 488.15 1151.68 489.06 1052.55 600.07 999.07 691.25 1134.41 692.00
00001583 00000047 898.60 306.22 376.86 510.96 960.46 487.24 1127.85 493.34 1018.23 607.37 979.24 693.46 1102.42 700.43
00001584 00000048 897.88 302.03 367.37 509.91 947.84 484.33 1106.88 493.13 992.67 598.57 960.22 690.14 1071.66 696.37
00001585 00000049 889.41 300.77 371.28 509.33 939.75 485.23 1093.49 489.72 982.19 590.57 958.39 686.79 1060.59 689.72
00001586 00000050 882.30 293.58 377.04 515.13 936.06 487.22 1095.34 483.80 987.97 589.93 961.60 687.66 1072.70 684.28
00001587 00000051 881.70 295.34 381.68 514.49 941.34 489.51 1102.50 479.75 1004.12 586.79 978.98 689.19 1085.62 679.98
00001588 00000052 882.67 280.81 383.39 534.47 954.71 499.73 1113.76 485.53 1020.59 587.99 991.50 694.90 1109.40 684.84
00001589 00000053 882.08 276.07 387.29 540.63 963.98 495.14 1125.97 478.73 1040.86 587.63 1004.23 693.09 1125.78 680.89
00001590 00000054 882.95 274.24 384.55 536.13 962.78 487.97 1123.59 466.86 1038.44 582.72 1005.17 688.33 1125.68 672.38
00001591 00000055 878.53 263.26 388.26 541.91 956.97 481.52 1114.18 461.21 1028.94 575.37 997.67 678.73 1117.59 663.25
00001592 00000056 871.14 260.59 391.34 538.45 946.17 473.85 1105.52 454.83 1011.99 565.57 985.07 674.22 1105.66 659.47
00001593 00000057 867.88 257.36 385.57 536.43 934.67 471.86 1092.31 456.38 994.01 562.74 966.54 672.71 1089.20 661.15
00001594 00000058 861.88 266.70 383.52 526.16 926.64 473.04 1080.18 456.24 980.09 563.41 960.20 673.81 1082.34 660.89
00001595 00000059 862.24 269.45 384.48 528.88 926.77 473.56 1080.90 454.64 980.81 563.56 962.59 672.84 1087.80 657.94
00001596 00000060 865.40 265.77 389.20 535.69 931.75 475.09 1089.59 452.16 993.52 562.89 970.30 672.59 1102.43 654.12
00001597 00000061 871.79 269.36 388.49 530.66 938.55 475.14 1097.61 448.46 1003.68 560.05 981.31 669.12 1116.42 647.67
00001598 00000062 874.96 273.45 385.10 524.18 945.46 479.12 1104.12 450.77 1014.72 561.13 987.61 668.07 1122.12 645.42
00001599 00000063 876.80 277.05 383.21 516.96 945.89 481.68 1107.76 455.84 1017.10 564.88 985.65 668.59 1119.89 648.21
00001600 00000064 874.36 278.81 384.85 517.43 945.20 484.91 1104.36 458.31 1015.67 567.73 987.37 672.50 1116.02 651.52
00001601 00000065 874.10 283.96 382.07 510.83 946.45 488.77 1102.43 462.42 1017.25 570.64 988.89 674.70 1111.84 654.09
00001602 00000066 876.29 275.93 382.88 519.09 950.70 486.58 1106.87 459.26 1024.43 567.10 991.73 670.22 1119.77 648.67
00001603 00000067 882.62 277.02 380.84 515.00 958.94 488.29 1112.26 453.97 1034.94 565.01 1004.02 668.18 1133.93 640.59
00001604 00000068 887.12 276.77 381.69 526.66 966.26 486.84 1119.63 449.74 1046.17 566.01 1016.40 672.61 1147.77 642.77
00001605 00000069 888.71 279.41 382.25 530.10 968.69 485.20 1125.04 445.48 1051.09 567.04 1022.57 674.90 1157.20 642.22
00001606 00000070 889.23 280.44 381.21 530.56 966.90 485.88 1123.45 446.77 1047.40 567.24 1020.76 675.11 1157.09 642.80
00001607 00000071 887.48 277.69 382.56 527.45 962.10 489.11 1118.44 449.45 1041.02 569.03 1015.57 674.50 1152.17 641.97
00001608 00000072 885.69 278.09 381.47 518.11 958.90 489.55 1112.00 451.06 1033.26 568.54 1010.60 670.24 1143.52 638.89
00001609 00000073 880.59 270.03 381.29 516.92 953.84 489.58 1106.53 452.15 1028.90 565.88 1005.73 666.35 1137.01 635.67
00001610 00000074 878.47 275.24 379.10 507.02 950.35 490.05 1102.37 453.78 1022.95 564.80 998.93 665.33 1127.90 636.07
00001611 00000075 880.13 275.77 378.80 502.15 951.41 489.96 1105.28 452.49 1025.41 565.54 1002.58 667.30 1129.32 637.38
00001612 00000076 883.41 272.63 380.63 504.72 960.19 492.34 1109.41 457.21 1034.61 566.81 1014.47 665.31 1136.71 637.15
00001613 00000077 886.19 273.77 386.92 505.78 966.74 494.21 1114.88 455.79 1044.06 568.71 1023.03 666.70 1144.69 635.87
00001614 00000078 892.30 269.92 387.51 506.71 971.08 489.15 1122.86 448.87 1049.49 567.01 1028.66 665.21 1152.47 632.95
00001615 00000079 894.88 270.74 386.70 508.33 972.55 486.40 1123.52 446.38 1046.81 567.05 1029.43 665.80 1151.56 633.69
00001616 00000080 894.12 268.73 385.40 507.07 967.94 485.92 1119.61 446.48 1041.22 568.77 1024.42 666.42 1146.27 635.00
00001617 00000081 892.11 271.18 387.76 508.56 965.19 483.49 1116.86 446.29 1035.44 566.25 1017.83 663.72 1141.97 634.13
00001618 00000082 892.00 266.98 389.62 515.09 963.24 478.71 1118.75 444.43 1031.67 561.76 1013.74 663.30 1142.21 635.77
00001619 00000083 893.49 262.60 386.77 518.51 962.15 475.61 1120.02 443.21 1029.73 558.55 1008.50 660.75 1141.30 634.60
00001620 00000084 897.51 255.24 383.95 518.28 961.19 471.46 1121.89 442.64 1026.37 554.83 1001.81 654.64 1138.90 631.29
00001621 00000085 897.27 253.43 385.49 523.03 959.37 470.41 1123.41 441.78 1022.18 554.12 995.99 656.06 1135.89 633.07
00001622 00000086 891.07 257.18 391.38 524.40 953.48 474.37 1115.48 445.48 1014.94 557.30 992.59 661.12 1131.65 637.65
00001623 00000087 882.88 261.47 393.53 531.58 945.90 483.62 1101.37 452.79 1004.58 566.12 989.88 673.21 1119.11 648.01
00001624 00000088 874.21 276.08 390.12 520.32 942.40 491.94 1089.50 466.24 1001.06 582.50 989.69 686.07 1099.63 665.29
00001625 00000089 865.39 281.01 390.36 514.72 935.89 495.54 1084.34 465.88 998.30 582.59 988.75 687.66 1099.54 663.77
00001626 00000090 861.90 278.82 391.14 509.59 931.14 485.62 1075.89 454.63 993.60 572.48 984.68 676.33 1095.99 651.14
00001627 00000091 860.54 265.26 391.08 509.63 925.91 480.47 1072.55 445.31 989.76 562.10 982.39 664.38 1099.47 636.03
00001628 00000092 854.32 261.21 390.89 505.01 920.25 481.25 1065.91 433.14 984.21 549.69 979.71 661.04 1099.82 623.08
00001629 00000093 843.28 249.78 399.46 514.54 912.94 481.42 1057.64 425.48 972.30 542.15 978.17 653.60 1094.11 607.10
00001630 00000094 829.30 256.15 408.80 514.19 908.99 487.80 1055.24 431.08 974.74 543.66 977.95 656.37 1095.75 609.19
00001631 00000095 825.29 253.76 408.65 516.52 905.65 482.95 1053.92 427.75 972.67 541.27 975.93 657.39 1090.22 611.91
00001632 00000096 826.58 245.21 404.58 511.73 900.78 468.79 1051.25 417.83 967.35 531.78 965.63 645.38 1081.75 602.94
00001633 00000097 829.91 229.76 405.38 526.11 905.86 462.13 1056.64 409.52 975.02 521.34 972.03 639.42 1092.12 595.79
00001634 00000098 833.20 220.74 409.09 534.03 913.14 458.99 1066.97 404.11 987.91 514.56 980.23 637.10 1104.19 592.09
00001635 00000099 829.60 215.05 413.11 538.53 914.61 455.66 1072.25 395.15 1000.98 510.52 990.54 637.08 1118.27 586.99
00001636 00000100 831.25 217.02 413.38 532.04 916.67 453.14 1074.41 393.12 1003.93 509.22 993.44 632.82 1121.71 582.51
00001637 00000101 831.65 215.53 413.11 534.72 915.35 452.95 1072.25 393.16 999.21 507.32 989.18 632.14 1118.68 581.95
00001638 00000102 832.30 217.63 412.97 536.24 914.77 453.05 1070.06 397.42 992.35 510.23 983.13 631.05 1113.89 584.43
00001639 00000103 836.98 216.08 404.49 532.25 914.62 456.26 1062.97 405.74 981.63 510.75 975.68 629.54 1095.49 587.88
00001640 00000104 841.06 223.67 396.34 520.85 901.92 467.37 1047.35 408.79 960.98 510.16 960.15 635.40 1066.35 586.98
00001641 00000105 836.84 229.17 396.05 513.43 893.42 466.98 1036.34 410.05 949.21 511.94 950.38 634.87 1054.45 587.72
00001642 00000106 835.45 231.33 397.64 517.02 889.42 467.96 1035.65 408.85 947.42 516.83 951.16 641.25 1053.98 592.50
00001643 00000107 839.56 233.32 397.77 526.08 894.03 470.50 1042.02 408.01 952.08 517.75 956.51 646.67 1064.30 595.47
00001644 00000108 836.97 238.33 403.14 525.90 907.13 464.76 1056.61 411.44 968.81 526.61 970.26 649.48 1086.68 605.64
00001645 00000109 841.72 240.87 408.60 521.08 910.82 466.94 1062.31 410.00 974.01 530.42 975.39 648.83 1097.28 601.56
00001646 00000110 845.90 239.83 407.30 518.12 912.70 467.07 1064.27 409.40 975.34 527.79 976.29 645.32 1099.95 597.45
00001647 00000111 849.31 238.27 404.35 519.45 914.55 467.93 1065.40 409.44 976.76 527.91 977.32 644.60 1101.82 596.10
00001648 00000112 857.59 252.60 391.89 519.30 922.96 475.37 1069.87 420.19 987.23 537.86 980.16 654.69 1112.80 610.46
00001649 00000113 855.11 258.96 399.10 527.92 925.66 480.60 1073.92 432.37 992.89 553.13 983.80 661.12 1117.04 621.74
00001650 00000114 857.90 266.10 399.84 529.65 927.94 491.67 1081.86 441.58 1001.39 566.04 992.82 675.70 1128.42 634.01
00001651 00000115 854.88 273.30 402.49 531.92 929.04 501.35 1084.76 453.96 1006.76 576.22 993.99 686.53 1123.57 647.36
00001652 00000116 850.96 283.66 405.45 529.85 927.25 510.58 1083.01 467.37 1000.39 587.19 991.23 698.16 1111.71 662.73
00001653 00000117 853.12 286.76 399.60 533.99 927.61 511.61 1078.42 477.39 993.10 597.59 987.96 705.46 1100.00 677.62
00001654 00000118 851.56 285.81 400.58 548.17 928.34 511.38 1080.82 477.94 997.42 599.46 989.02 709.86 1104.06 682.77
00001655 00000119 859.56 283.53 398.56 553.81 931.94 511.54 1089.31 469.53 1011.46 600.62 997.47 717.00 1118.52 683.22
CROP_BBOX: 554 0 1598 1070
