Video ID: 	0MmrQz8KlTg
H: 	1080
W: 	1920
FPS: 	23.976023976023978

FRAME INDEX X0 Y0 W H [Landmarks (5 Points)]

00002130 00000000 652.90 224.66 389.57 552.15 827.85 464.32 1000.23 453.25 965.13 562.18 840.76 647.73 983.43 639.04
00002131 DELETE   655.02 231.93 387.92 549.61 829.96 467.42 1000.39 454.75 966.90 565.60 839.57 649.31 984.47 639.74
00002132 DELETE   655.33 234.38 388.71 556.36 834.84 468.19 1000.36 458.71 970.13 567.40 841.41 653.76 981.12 647.02
00002133 00000003 655.39 235.28 388.47 558.53 835.15 468.39 1000.79 456.97 972.21 567.21 840.37 653.94 980.86 645.94
00002134 00000004 653.74 231.38 392.39 559.97 833.60 463.52 1001.80 453.10 970.84 566.24 837.77 650.67 981.32 643.53
00002135 00000005 656.96 228.64 389.07 559.88 830.61 461.12 999.59 450.22 968.15 563.94 834.20 647.12 981.05 639.73
00002136 00000006 655.42 225.33 388.78 562.96 830.13 458.65 998.58 448.12 967.77 561.22 832.78 644.81 979.87 637.79
00002137 00000007 657.21 219.28 386.78 573.91 829.49 453.00 996.95 443.75 968.21 559.37 831.83 645.55 978.63 639.48
00002138 00000008 661.34 225.33 383.87 579.86 826.81 449.43 992.06 442.10 965.32 556.18 829.45 648.63 975.86 644.26
00002139 00000009 653.11 221.88 391.31 597.05 826.67 445.94 994.65 443.24 967.91 554.93 826.38 654.06 972.24 652.89
00002140 00000010 647.79 222.71 396.77 599.53 824.77 446.49 993.46 441.52 970.36 554.80 827.13 656.75 973.27 653.93
00002141 00000011 647.07 224.97 396.65 596.30 825.11 445.91 992.93 442.84 969.71 555.78 827.20 655.16 974.26 654.03
00002142 00000012 646.65 224.36 396.77 579.77 824.78 445.05 993.61 440.54 968.17 553.91 830.41 650.77 973.05 648.18
00002143 00000013 647.50 225.24 398.35 569.12 824.95 445.03 994.97 437.65 964.90 551.64 835.24 646.64 977.96 640.98
00002144 00000014 647.26 218.00 395.98 565.91 826.46 442.03 993.36 435.74 963.04 546.48 844.90 642.93 979.31 637.15
00002145 00000015 648.57 215.81 394.95 560.85 826.77 442.45 995.42 433.75 963.34 544.34 849.89 642.96 982.21 634.71
00002146 00000016 649.97 218.06 392.78 556.69 826.33 443.00 996.28 433.18 962.24 544.65 848.38 642.99 981.89 634.10
00002147 00000017 649.93 221.58 392.03 551.44 825.05 442.37 995.47 432.48 960.73 544.43 848.39 641.79 980.81 632.67
00002148 00000018 649.07 215.82 393.54 556.08 823.38 442.01 993.71 431.21 959.73 545.13 844.37 640.05 979.65 630.53
00002149 00000019 648.30 213.27 394.63 555.42 820.28 440.71 993.97 429.31 956.96 542.09 843.31 638.31 980.23 627.78
00002150 00000020 647.08 210.41 395.01 559.02 821.75 439.39 991.97 429.69 956.83 542.05 842.73 637.32 978.74 628.46
00002151 00000021 644.74 207.62 397.52 569.09 824.61 439.66 992.51 430.45 961.41 542.35 842.94 638.53 978.40 630.24
00002152 00000022 647.73 209.04 396.41 571.54 830.61 443.49 995.64 431.25 968.32 544.69 839.56 639.07 976.66 629.57
00002153 00000023 646.99 213.35 397.44 565.08 830.86 442.31 996.53 429.76 969.12 542.07 839.52 636.48 977.84 626.58
00002154 00000024 648.84 214.24 393.79 554.14 830.06 436.56 998.82 424.49 967.46 536.49 845.03 633.43 979.46 623.41
00002155 00000025 645.75 207.44 396.07 551.15 826.23 432.25 999.24 419.93 965.00 534.34 848.40 628.90 983.70 618.22
00002156 00000026 644.79 207.43 398.51 548.53 826.09 427.81 1000.11 417.71 964.79 531.82 848.55 626.56 983.84 617.49
00002157 00000027 643.99 206.41 398.61 550.01 824.32 426.53 998.57 416.58 963.11 530.57 851.04 627.23 983.61 617.59
00002158 00000028 640.92 201.79 402.32 557.67 823.58 425.27 997.47 415.36 962.72 530.86 849.12 627.25 983.15 617.77
00002159 00000029 641.87 201.51 401.44 556.49 822.48 423.96 996.90 416.45 960.61 532.22 848.19 625.82 983.50 618.37
00002160 00000030 641.35 201.75 401.42 559.14 823.00 424.17 995.40 416.88 960.15 532.28 847.56 626.69 982.34 619.54
00002161 00000031 641.95 201.29 400.04 558.56 821.62 426.16 992.91 416.98 957.92 532.11 847.84 627.66 980.99 618.98
00002162 00000032 640.96 196.64 400.34 563.79 820.38 426.70 991.27 416.98 956.51 532.16 847.81 628.15 980.75 618.80
00002163 00000033 641.40 200.72 398.76 562.40 817.68 427.81 990.33 417.31 954.07 531.76 845.52 629.33 979.49 619.35
00002164 00000034 636.87 198.75 403.49 578.88 816.73 426.05 987.14 420.27 953.24 534.76 840.70 632.61 975.77 626.33
00002165 00000035 632.71 200.51 405.90 582.56 813.30 427.98 984.97 422.23 952.98 536.47 833.32 633.23 972.72 627.47
00002166 00000036 631.58 201.33 406.35 578.97 810.87 426.47 983.52 421.63 949.43 535.03 831.16 631.01 970.77 626.09
00002167 00000037 631.84 201.30 405.79 569.88 808.27 425.85 983.39 420.42 945.65 533.80 831.27 628.96 971.33 623.44
00002168 00000038 632.11 201.69 405.12 565.85 807.18 426.68 982.80 421.28 943.89 534.28 832.25 628.31 971.59 622.69
00002169 00000039 630.32 200.80 405.74 568.47 805.32 427.78 981.93 423.01 942.90 535.11 830.73 628.92 970.46 623.73
00002170 00000040 629.07 205.23 404.81 565.33 803.25 427.97 979.89 423.11 941.02 535.52 832.10 631.68 969.76 626.12
00002171 00000041 630.30 209.25 402.24 559.49 801.52 427.07 979.07 421.16 939.23 533.74 833.71 631.77 970.50 625.23
00002172 00000042 631.57 203.89 400.86 562.18 802.16 426.15 979.18 418.63 939.81 530.66 837.32 630.67 973.10 622.45
00002173 00000043 633.62 201.95 399.53 563.17 804.94 425.20 982.35 417.31 942.63 530.36 838.34 629.43 975.61 621.06
00002174 00000044 633.75 208.46 400.15 565.03 810.43 424.83 985.28 418.28 948.18 528.68 839.79 631.11 975.08 623.89
00002175 00000045 634.97 196.22 401.23 570.76 813.19 422.98 987.08 415.95 950.51 525.50 840.06 627.70 975.42 620.32
00002176 00000046 637.15 189.53 402.74 564.49 814.39 420.86 992.46 415.51 953.58 525.45 839.96 622.36 979.35 616.63
00002177 00000047 641.87 185.08 402.78 567.16 819.19 418.97 994.68 411.39 958.74 525.62 843.93 621.93 981.22 615.06
00002178 00000048 650.81 181.81 389.64 564.93 827.18 422.24 1002.54 415.55 966.55 523.14 853.27 622.50 982.68 616.72
00002179 00000049 647.28 185.38 394.41 555.83 825.41 419.42 1005.80 413.90 967.51 521.96 850.12 619.69 982.71 614.90
00002180 00000050 650.38 183.21 392.04 563.17 827.95 418.12 1008.31 411.28 971.22 522.67 854.94 622.65 987.63 616.53
00002181 00000051 647.29 190.02 397.27 562.09 826.52 415.06 998.38 403.73 967.21 522.14 857.77 626.45 987.62 616.24
00002182 00000052 651.55 181.65 391.70 572.46 834.10 415.85 1006.97 409.56 976.84 517.84 863.80 625.31 990.49 619.11
00002183 00000053 652.94 178.45 390.24 568.27 835.56 414.71 1010.22 407.91 979.15 515.62 865.19 621.17 992.82 614.82
00002184 00000054 652.12 176.35 391.91 567.28 836.17 414.40 1011.53 406.38 980.91 514.47 864.64 617.53 994.22 610.47
00002185 00000055 650.88 175.25 394.68 570.52 835.75 413.41 1012.83 406.57 982.47 512.77 861.64 614.24 997.39 608.43
00002186 00000056 650.00 176.04 395.44 575.66 836.25 410.82 1011.59 407.15 980.96 511.12 857.25 613.42 993.60 610.36
00002187 00000057 649.66 175.99 395.42 577.59 835.49 410.31 1011.84 406.67 981.06 511.74 854.49 614.32 991.73 611.40
00002188 00000058 649.35 176.91 396.36 575.81 835.80 409.00 1011.99 406.25 980.75 511.44 853.78 612.72 990.92 610.66
00002189 00000059 649.80 171.88 396.77 579.58 837.54 407.67 1012.79 405.85 982.32 509.31 854.43 610.15 992.40 609.05
00002190 00000060 651.56 170.93 395.90 577.16 839.53 407.14 1015.39 404.12 986.23 508.09 856.00 608.37 994.64 606.60
00002191 00000061 653.39 172.27 395.25 572.99 841.64 406.16 1016.12 403.54 987.12 506.11 858.07 606.50 995.10 605.12
00002192 00000062 655.58 175.21 393.65 576.69 844.63 404.34 1017.37 404.54 988.48 504.45 859.64 607.79 996.31 608.44
00002193 00000063 656.67 167.90 393.76 591.25 848.10 398.89 1020.08 404.46 989.97 503.13 860.28 611.35 993.50 616.15
00002194 00000064 656.88 168.01 394.66 597.12 849.02 397.93 1020.20 404.95 991.45 504.37 859.41 613.82 992.78 619.82
00002195 00000065 657.93 171.10 393.19 589.69 849.32 400.21 1020.94 404.45 991.46 505.64 858.48 610.74 993.98 614.63
00002196 00000066 656.72 169.91 393.66 579.97 846.22 402.50 1020.19 404.05 990.71 504.26 860.31 605.89 997.41 607.54
00002197 00000067 655.66 167.80 394.88 573.88 843.56 404.71 1020.09 403.91 989.56 504.79 861.64 603.83 1000.14 603.54
00002198 00000068 656.05 170.40 393.62 568.36 842.52 406.20 1019.70 403.66 989.12 505.58 862.91 604.25 1001.03 602.44
00002199 00000069 655.07 171.73 393.74 570.04 840.19 404.83 1019.29 403.44 986.65 505.93 862.34 608.13 999.39 607.02
00002200 00000070 652.43 171.67 393.07 573.23 840.66 405.15 1015.93 404.28 985.90 507.47 862.38 610.45 995.45 609.81
00002201 00000071 652.30 175.36 391.06 568.21 839.66 406.13 1014.61 404.15 984.47 508.47 863.13 611.47 993.70 609.84
00002202 00000072 649.76 169.44 393.60 569.89 837.11 407.31 1013.31 403.18 982.55 510.25 863.44 611.77 993.03 608.31
00002203 00000073 647.24 169.92 394.34 571.82 834.01 410.57 1009.52 404.18 979.88 511.21 861.55 613.50 991.81 607.89
00002204 00000074 643.55 171.99 394.22 573.58 829.08 412.84 1004.53 405.72 975.32 512.22 857.27 614.32 988.98 607.87
00002205 00000075 641.29 176.22 391.78 574.84 823.31 414.87 996.06 408.24 968.33 512.88 850.74 615.51 981.56 609.56
00002206 00000076 630.31 178.53 404.34 575.23 814.16 410.72 986.39 403.16 960.94 517.26 839.79 617.96 974.26 611.41
00002207 00000077 627.33 181.53 405.55 571.10 810.93 410.06 984.79 401.88 957.67 516.88 836.32 617.25 972.27 610.24
00002208 00000078 625.45 181.38 405.36 570.07 808.24 410.17 981.99 401.99 954.24 515.92 835.30 616.98 970.49 609.93
00002209 00000079 624.74 180.97 404.57 568.69 807.06 410.72 981.24 402.69 952.36 515.83 835.09 616.32 969.87 609.23
00002210 00000080 624.79 186.72 404.22 562.54 805.75 411.35 979.57 402.79 950.41 515.76 834.07 615.57 969.25 608.04
00002211 00000081 624.03 186.27 404.64 561.43 805.14 411.10 979.12 403.09 949.62 515.61 833.72 615.28 968.15 608.20
00002212 00000082 627.44 178.53 394.09 567.72 802.97 420.05 975.97 410.84 945.50 511.45 836.03 614.30 967.21 606.50
00002213 00000083 626.01 175.15 395.35 570.65 801.15 420.90 974.92 411.49 943.60 511.86 835.21 615.02 966.08 606.99
00002214 00000084 625.52 178.47 395.01 566.21 799.66 420.50 974.79 411.01 941.87 511.97 834.63 614.42 965.77 606.25
00002215 00000085 625.36 173.65 395.15 569.55 800.35 419.58 975.22 410.16 942.84 511.37 836.16 613.49 966.60 605.23
00002216 00000086 624.82 176.64 394.95 565.23 799.47 418.88 974.57 409.20 940.93 510.83 835.82 612.21 966.94 603.70
00002217 00000087 624.22 175.51 395.14 564.53 799.51 418.24 974.38 408.44 940.51 510.40 836.44 610.83 966.84 602.06
00002218 00000088 623.32 171.51 396.22 570.09 800.23 417.19 973.69 408.09 940.59 509.94 835.59 610.41 966.27 602.20
00002219 00000089 622.69 171.82 396.91 570.22 800.07 417.32 973.73 408.01 940.69 509.98 835.33 610.16 966.79 601.76
00002220 00000090 622.63 170.66 396.32 576.23 800.81 417.07 973.41 406.60 940.83 510.18 837.00 613.04 967.17 603.52
00002221 00000091 623.82 177.78 399.21 582.15 803.37 410.74 973.17 402.21 942.66 511.46 839.82 621.81 964.99 613.49
00002222 00000092 621.99 181.44 399.35 585.89 802.54 411.59 970.55 407.21 941.06 511.54 834.88 622.01 961.20 617.38
00002223 00000093 620.71 187.75 400.70 579.46 804.46 414.41 971.79 413.32 941.89 514.70 829.27 620.01 958.21 618.72
00002224 00000094 619.06 182.67 401.09 577.78 801.10 414.99 968.39 412.00 938.53 514.28 828.40 617.60 957.83 614.87
00002225 00000095 616.69 179.43 395.53 567.36 798.20 426.11 966.04 417.07 935.48 513.83 826.98 615.06 954.45 607.34
00002226 00000096 616.06 178.26 395.92 562.65 798.35 426.02 966.37 416.08 936.04 512.46 828.86 613.27 954.01 604.91
00002227 00000097 613.10 178.00 398.29 568.00 796.42 425.51 963.86 415.83 934.55 513.49 825.51 614.57 952.26 606.59
00002228 00000098 610.41 176.90 400.17 573.11 792.97 425.55 962.81 414.96 932.53 515.66 823.15 617.76 951.78 609.09
00002229 00000099 610.64 181.38 399.94 572.98 790.87 423.58 961.31 414.45 930.42 516.95 820.41 617.47 952.29 609.93
00002230 00000100 612.92 180.50 397.10 572.21 791.06 423.57 959.17 413.56 929.42 516.86 822.25 617.06 952.77 608.77
00002231 00000101 615.10 187.87 402.09 568.49 794.74 414.39 962.19 408.91 931.45 515.27 824.09 616.16 954.77 611.78
00002232 00000102 615.54 189.06 403.26 569.45 795.56 414.65 963.70 409.26 933.07 515.40 826.09 617.82 956.09 613.34
00002233 00000103 617.13 187.63 403.54 570.73 795.82 415.43 965.36 410.24 933.39 515.29 826.49 617.89 957.85 613.47
00002234 00000104 619.27 187.23 403.40 573.19 797.66 415.09 967.70 409.03 935.37 514.87 827.68 618.92 959.89 613.69
00002235 00000105 620.71 185.33 403.43 569.15 799.47 414.69 972.17 409.33 938.38 513.88 829.43 615.59 964.59 610.64
00002236 00000106 621.92 189.98 405.64 561.77 801.66 415.66 976.63 407.40 942.79 515.18 833.70 615.24 969.82 607.44
00002237 00000107 626.16 191.93 403.08 561.29 806.24 418.11 978.45 408.23 946.06 515.76 841.05 620.31 972.04 610.69
00002238 00000108 627.58 183.14 402.30 575.09 809.59 420.24 979.48 409.39 950.10 516.78 845.95 624.65 973.99 614.04
00002239 00000109 629.89 183.87 400.90 575.66 809.22 421.91 981.68 410.53 951.40 520.75 843.92 626.58 975.04 615.90
00002240 00000110 628.80 184.41 402.95 572.87 810.02 423.22 982.87 411.09 953.99 522.54 841.59 624.99 976.04 614.11
00002241 00000111 629.19 185.11 401.83 574.11 810.22 422.96 982.21 411.05 953.72 521.64 841.74 624.95 975.71 614.33
00002242 00000112 631.53 185.29 399.47 580.72 815.42 427.30 982.35 417.75 955.40 522.34 843.77 628.33 973.34 619.63
00002243 00000113 630.20 189.29 401.59 575.61 813.59 425.49 984.02 413.36 957.25 522.25 840.44 627.11 975.21 616.67
00002244 00000114 631.57 192.59 400.87 564.67 808.21 422.84 979.95 409.33 950.43 520.64 837.06 622.81 973.84 611.23
00002245 00000115 628.48 186.93 405.03 563.41 806.53 419.60 980.23 405.27 951.32 518.43 838.73 620.13 975.84 607.49
00002246 00000116 632.79 182.04 397.10 562.38 806.11 420.89 982.18 407.73 948.76 512.41 840.75 613.91 975.40 602.76
00002247 00000117 631.60 168.18 398.21 578.26 808.54 418.05 980.66 407.44 950.38 510.29 841.42 612.88 974.07 603.70
00002248 00000118 630.16 167.79 398.22 587.82 808.19 417.14 978.65 407.36 950.06 510.26 839.65 615.70 972.95 607.09
00002249 00000119 625.07 172.02 406.71 589.99 807.86 412.75 978.65 402.28 952.15 516.07 835.00 620.83 970.28 611.62
00002250 00000120 624.20 174.16 407.63 583.35 806.36 412.32 978.40 403.70 948.48 515.65 834.24 617.86 969.81 609.92
00002251 00000121 628.66 168.69 397.47 581.94 805.00 417.21 978.68 408.93 945.15 510.90 837.11 613.19 971.44 605.70
00002252 00000122 628.12 169.50 397.05 581.99 803.67 417.76 977.06 408.75 943.68 510.57 837.58 614.79 970.53 606.59
00002253 00000123 624.93 178.01 403.88 579.01 802.58 413.21 975.93 404.21 942.70 514.46 836.59 620.21 967.56 611.41
00002254 00000124 625.55 185.99 403.17 573.28 803.03 414.55 976.20 407.31 943.35 515.95 831.82 619.81 966.06 613.00
00002255 00000125 624.51 189.41 403.47 568.03 803.20 416.67 976.34 411.02 943.16 515.80 830.57 618.30 965.77 612.99
00002256 00000126 624.91 189.33 402.66 562.08 803.28 416.28 977.20 410.97 943.15 515.63 832.03 616.80 966.77 611.64
00002257 00000127 624.46 189.28 402.50 561.09 803.39 416.07 977.44 411.11 942.67 515.63 833.49 616.69 967.34 611.62
00002258 00000128 625.12 192.16 402.24 561.36 801.98 417.52 976.78 411.86 941.91 517.06 830.82 618.10 966.81 612.77
00002259 00000129 624.42 192.83 403.11 563.58 803.72 421.57 976.45 416.05 942.75 519.69 829.19 618.44 965.95 613.55
00002260 00000130 625.36 191.85 402.62 565.30 805.71 423.09 976.66 415.77 943.21 521.34 829.52 619.95 965.13 613.70
00002261 00000131 624.82 192.30 403.33 563.66 805.52 423.54 977.74 416.37 943.67 521.91 831.19 620.05 967.17 613.69
00002262 00000132 623.69 194.13 403.99 562.21 803.06 422.71 976.67 414.46 941.83 520.84 833.49 621.49 968.11 613.80
00002263 00000133 624.21 193.59 403.40 562.15 802.66 423.28 977.78 413.06 942.90 521.15 837.55 624.01 971.28 614.17
00002264 00000134 623.82 192.28 402.83 564.20 803.45 426.68 978.70 414.43 945.37 523.26 840.65 626.96 973.63 615.38
00002265 00000135 625.78 188.00 400.38 569.14 806.83 428.95 979.80 416.03 948.42 524.29 844.91 629.97 975.59 617.73
00002266 00000136 626.93 189.10 399.83 572.46 808.59 429.75 980.57 415.76 949.80 524.39 847.49 632.82 976.20 619.47
00002267 00000137 624.91 192.27 401.18 567.10 809.91 432.72 982.08 420.92 949.35 528.07 842.56 631.88 971.51 621.10
00002268 00000138 624.45 198.18 403.24 560.91 811.32 437.74 980.17 422.75 950.64 531.88 837.32 632.63 966.06 620.30
00002269 DELETE   623.56 198.95 399.00 564.10 808.92 432.51 973.08 422.11 940.39 530.13 841.77 636.51 956.00 626.94
00002270 00000140 621.82 201.04 403.47 560.56 802.45 428.07 968.00 421.18 932.14 523.93 838.82 634.52 952.71 626.90
00002271 00000141 618.42 204.98 401.51 553.78 799.90 430.81 969.34 418.65 934.67 523.34 843.53 631.76 962.87 620.12
00002272 00000142 619.15 200.91 402.22 559.71 793.88 432.55 962.54 414.64 925.57 532.89 832.97 632.91 956.73 617.09
00002273 00000143 624.83 188.63 387.22 564.15 791.09 436.14 959.88 421.42 926.09 532.88 840.60 633.75 960.94 620.75
00002274 00000144 620.87 188.47 395.11 583.66 788.22 436.27 957.75 420.75 922.59 538.76 837.48 639.58 962.60 625.92
00002275 00000145 624.84 189.88 396.58 587.45 789.68 436.37 966.90 415.19 930.68 536.77 837.22 644.04 969.41 624.76
00002276 00000146 627.68 190.25 400.20 573.35 793.49 431.15 975.12 410.26 937.36 532.37 838.57 635.30 977.30 616.36
00002277 00000147 628.69 191.18 403.25 566.29 799.32 429.00 978.25 404.74 943.22 525.45 842.93 632.09 979.67 610.52
00002278 00000148 633.27 196.22 401.68 557.62 802.52 426.78 980.18 400.58 946.40 522.69 844.64 628.45 983.16 605.44
00002279 00000149 635.16 186.45 401.95 564.48 806.79 426.94 983.45 399.39 953.70 522.76 846.94 627.01 987.01 603.16
00002280 00000150 636.45 187.46 401.27 562.54 808.12 426.43 984.59 398.98 954.81 524.05 846.70 626.74 986.29 603.19
00002281 00000151 633.10 191.65 402.56 558.70 804.29 425.23 982.58 399.46 949.96 523.73 843.26 626.12 982.99 603.63
00002282 00000152 628.22 190.25 403.31 559.90 798.84 422.67 977.58 402.89 941.61 523.36 837.08 621.89 977.68 604.37
00002283 00000153 624.58 189.82 400.60 563.68 791.27 421.54 967.02 404.92 929.52 522.77 830.98 621.46 968.20 606.75
00002284 00000154 613.81 187.56 407.22 581.28 785.75 422.04 958.19 407.37 924.46 520.26 822.39 622.05 962.30 609.19
00002285 00000155 607.70 193.08 406.92 592.84 780.30 423.91 948.29 411.63 916.44 522.88 814.97 626.49 954.04 614.97
00002286 00000156 601.94 193.74 407.15 597.03 775.07 425.08 944.14 410.45 913.28 526.08 811.17 629.55 952.32 616.32
00002287 00000157 603.37 191.63 405.03 592.05 775.38 423.75 942.81 408.53 911.91 520.69 815.58 627.06 952.97 613.10
00002288 00000158 606.69 182.33 395.72 587.20 772.56 428.29 938.63 403.77 910.66 523.15 815.06 625.40 951.24 605.34
00002289 00000159 608.28 179.84 398.76 581.37 774.57 426.50 943.21 402.08 912.76 520.19 816.62 619.42 954.74 599.38
00002290 00000160 608.11 178.07 400.31 581.04 775.19 426.68 944.41 401.73 914.85 519.62 816.30 618.67 954.89 598.22
00002291 00000161 610.95 178.79 397.67 576.34 776.66 426.47 945.86 402.07 915.95 517.48 820.38 617.88 956.39 597.79
00002292 00000162 612.95 180.12 393.64 568.48 778.69 425.09 943.63 400.09 915.73 514.68 827.90 618.68 953.14 598.15
00002293 00000163 612.99 179.46 393.60 571.03 778.74 423.03 941.59 398.12 915.42 512.34 828.66 619.05 952.62 598.50
00002294 00000164 613.90 177.19 392.65 573.44 779.58 419.64 941.61 395.77 916.31 508.06 827.79 616.56 952.50 596.88
00002295 00000165 613.59 179.23 391.65 572.32 782.36 420.96 941.46 398.04 918.14 505.19 826.52 613.74 951.39 594.95
00002296 00000166 609.50 178.34 394.61 572.35 782.93 425.37 940.88 401.24 919.84 502.39 823.51 611.64 950.08 591.98
00002297 00000167 608.26 175.28 393.92 574.37 782.18 423.71 939.47 401.42 919.97 499.98 821.40 608.46 948.03 590.19
00002298 00000168 603.03 179.14 396.76 569.10 774.22 417.01 936.36 394.43 915.69 496.54 817.04 603.34 949.74 584.97
00002299 00000169 600.92 171.85 399.15 573.79 766.34 408.41 931.52 388.01 908.15 492.64 810.22 596.76 947.99 579.98
00002300 00000170 600.16 171.59 399.13 567.43 763.52 404.51 931.86 383.57 905.63 490.41 806.20 592.87 946.38 575.70
