Video ID: 	2w8Yc554je0
H: 	1080
W: 	1920
FPS: 	23.976023976023978

FRAME INDEX X0 Y0 W H [Landmarks (5 Points)]

00019417 00000000 627.91 105.58 318.29 515.66 818.97 355.72 917.97 334.46 925.52 432.85 827.83 517.51 906.55 503.99
00019418 00000001 627.29 108.08 318.29 513.17 818.42 356.83 918.56 335.60 926.36 433.87 828.41 518.59 907.44 505.05
00019419 00000002 627.71 107.80 318.46 515.91 819.10 355.84 917.95 336.30 925.71 434.43 826.10 518.98 904.20 506.64
00019420 00000003 628.92 113.28 318.06 514.76 817.77 355.33 919.13 336.89 926.06 433.87 819.00 518.39 901.47 507.33
00019421 00000004 631.10 111.69 316.83 511.89 818.66 356.94 919.83 336.74 928.00 433.38 821.08 516.15 903.45 503.72
00019422 00000005 630.30 110.65 318.25 510.62 818.93 358.84 921.21 337.54 926.84 434.13 825.04 516.84 907.09 503.60
00019423 00000006 631.06 100.04 314.88 526.52 815.43 362.57 923.24 335.31 931.47 436.33 827.10 520.86 912.42 504.42
00019424 00000007 632.49 106.73 315.87 516.50 816.25 361.04 925.71 333.67 931.92 433.26 829.84 519.35 915.97 502.51
00019425 00000008 634.27 110.02 316.83 517.19 818.63 358.81 928.96 332.31 935.71 431.65 827.81 519.42 917.20 503.28
00019426 00000009 640.05 112.84 314.38 521.42 822.98 355.32 931.97 330.56 940.83 429.06 822.49 517.59 915.38 503.16
00019427 00000010 643.43 115.80 315.68 514.50 829.78 353.61 935.93 327.63 945.25 425.56 839.95 517.34 925.90 501.44
00019428 00000011 651.86 105.95 311.81 514.51 838.99 348.63 941.65 323.32 951.21 420.45 855.22 513.69 935.03 497.61
00019429 00000012 655.99 104.03 311.99 513.86 843.30 341.96 944.93 319.02 955.88 414.54 859.38 508.29 938.17 493.59
00019430 00000013 659.75 100.20 311.39 518.52 846.38 339.91 946.35 317.36 959.83 412.14 858.11 503.63 937.52 489.43
00019431 00000014 664.20 103.04 311.80 516.83 848.29 341.33 948.55 318.27 963.49 415.34 850.60 502.37 932.69 488.38
00019432 00000015 666.94 116.26 312.74 513.36 846.35 344.19 950.74 324.29 959.14 423.31 844.38 508.28 929.87 496.50
00019433 DELETE   662.85 123.17 314.17 513.08 838.43 345.24 949.23 331.94 949.56 429.46 828.83 508.16 926.41 502.09
00019434 DELETE   652.81 128.36 317.80 499.66 822.55 342.15 940.19 332.21 932.12 429.65 815.26 502.58 919.13 498.38
00019435 00000018 652.72 119.44 314.56 499.95 808.63 331.46 933.24 330.43 915.84 423.30 803.01 493.60 913.21 495.74
00019436 00000019 653.25 110.71 314.22 499.93 799.89 324.80 928.57 327.07 901.88 416.55 793.43 482.94 910.83 487.74
00019437 00000020 654.82 118.82 312.97 492.03 795.33 324.55 924.80 327.38 895.63 419.80 789.70 482.79 907.36 487.80
00019438 00000021 655.50 118.73 315.68 499.31 797.70 327.27 927.15 330.31 898.38 425.02 788.39 488.27 906.01 493.90
00019439 00000022 657.00 123.96 316.35 498.61 805.49 331.02 933.39 332.34 910.43 425.46 794.22 491.32 910.41 496.35
00019440 00000023 658.58 121.35 315.90 506.09 818.58 333.31 941.72 329.27 925.99 427.06 811.74 499.58 919.78 499.89
00019441 00000024 657.03 123.69 320.50 502.76 829.43 335.28 946.46 326.25 937.17 422.26 830.38 501.81 929.56 497.01
00019442 00000025 658.73 125.22 323.00 494.66 839.50 339.68 951.13 322.60 948.70 421.13 845.98 504.10 936.37 493.27
00019443 00000026 663.61 124.29 315.76 494.50 844.65 345.81 950.78 324.68 955.23 423.83 853.84 507.69 937.50 494.14
00019444 00000027 660.93 123.25 314.24 500.18 843.65 353.18 949.49 328.32 956.15 428.90 854.40 514.43 937.11 498.38
00019445 00000028 654.35 110.54 313.02 516.21 839.41 360.28 943.80 331.01 952.34 431.70 852.15 518.98 934.05 499.95
00019446 00000029 645.90 111.76 312.69 516.77 827.91 363.35 937.31 331.61 943.61 435.12 844.52 522.67 931.16 501.97
00019447 00000030 636.91 127.13 313.98 503.33 815.63 361.93 932.47 333.76 932.70 438.50 826.93 520.56 921.91 502.47
00019448 00000031 630.29 123.16 318.99 497.79 812.93 359.16 924.39 338.53 920.25 438.41 816.48 514.13 907.40 500.56
00019449 00000032 628.64 117.56 316.59 503.41 810.39 358.16 919.84 337.57 917.14 436.42 814.40 512.59 904.81 499.27
00019450 00000033 631.39 121.48 314.40 499.28 812.23 355.68 919.59 333.90 918.71 432.32 818.93 509.98 907.98 495.61
00019451 00000034 633.55 117.94 314.31 502.71 814.63 356.27 921.80 332.23 920.94 430.55 825.22 511.22 913.35 495.09
00019452 00000035 634.12 117.51 314.38 505.10 815.20 360.47 924.41 333.37 924.07 434.06 828.25 515.12 916.95 496.91
00019453 00000036 633.87 108.98 311.99 525.22 813.23 367.06 925.98 338.66 928.79 442.99 831.74 528.39 919.11 510.54
00019454 00000037 636.50 110.69 311.33 533.25 813.99 374.00 928.04 343.66 930.18 451.21 830.38 535.44 920.33 516.52
00019455 00000038 637.54 112.29 310.95 531.40 813.32 373.10 929.14 344.73 929.21 449.90 830.17 535.15 921.44 517.38
00019456 00000039 638.90 114.62 309.77 521.60 811.62 365.30 929.85 341.95 927.84 441.64 825.53 524.70 921.51 510.38
00019457 00000040 638.40 115.27 310.11 512.21 810.94 357.78 928.06 331.85 926.05 432.02 823.75 515.19 920.09 498.81
00019458 00000041 640.08 105.95 309.42 515.96 815.21 350.07 929.20 327.51 929.81 425.61 822.07 508.32 917.33 494.73
00019459 00000042 639.77 108.58 310.80 511.73 817.81 348.94 929.60 327.39 931.42 424.48 824.33 506.93 917.25 493.89
00019460 00000043 640.14 116.14 310.74 509.05 818.34 351.24 930.11 329.05 932.00 426.66 825.74 510.55 918.45 496.91
00019461 00000044 638.10 117.54 314.07 512.21 819.08 357.56 930.73 334.23 932.14 433.76 827.69 516.88 919.17 502.31
00019462 00000045 636.51 117.82 317.82 517.16 820.20 362.17 931.31 340.54 931.98 439.73 830.73 523.26 919.46 509.78
00019463 00000046 637.15 117.95 317.61 520.94 820.94 365.21 933.38 341.63 933.45 444.84 831.92 527.69 921.04 512.76
00019464 00000047 637.96 117.57 318.96 524.64 822.58 368.06 935.20 343.66 935.03 450.22 833.49 530.87 922.04 515.22
00019465 00000048 640.65 121.77 318.46 523.13 823.93 368.98 935.62 346.52 935.96 450.83 834.13 532.55 922.74 518.21
00019466 00000049 642.28 120.21 319.60 526.81 826.23 371.31 936.89 348.05 938.19 452.94 836.95 536.72 923.62 521.77
00019467 00000050 644.41 123.34 318.97 525.50 828.49 372.85 939.22 349.42 940.88 455.01 839.81 538.44 926.45 523.33
00019468 00000051 644.86 123.47 321.46 525.46 829.84 374.09 942.58 348.28 943.04 457.14 842.51 539.35 930.20 522.34
00019469 00000052 645.85 124.78 322.13 527.28 830.51 374.00 942.88 349.36 943.25 457.78 840.53 540.04 928.25 523.82
00019470 00000053 645.90 118.88 321.51 536.51 832.12 373.74 941.01 350.76 944.06 459.00 835.62 542.10 921.18 527.96
00019471 00000054 646.68 121.32 319.89 536.95 829.83 371.73 941.16 352.16 943.00 458.30 825.82 540.58 918.64 529.55
00019472 00000055 647.13 122.11 320.32 532.08 830.53 372.65 942.19 352.17 944.24 458.20 827.55 539.61 920.03 527.91
00019473 00000056 646.56 120.68 321.39 530.65 833.72 374.72 942.39 352.55 946.91 458.54 833.98 539.64 921.27 526.36
00019474 00000057 649.03 125.60 320.88 522.18 835.04 375.70 943.70 353.78 947.14 458.28 836.72 539.14 923.12 526.01
00019475 00000058 649.76 125.42 321.52 519.59 836.33 376.39 944.43 352.83 948.30 457.74 839.70 538.41 925.04 524.00
00019476 00000059 650.31 127.20 321.86 517.43 836.81 376.54 946.06 352.46 948.86 457.92 840.69 537.62 927.19 522.70
00019477 00000060 652.77 122.78 320.97 521.29 837.96 376.39 947.01 352.10 949.50 457.50 842.15 537.57 928.39 522.39
00019478 00000061 654.94 127.06 319.36 516.45 839.20 374.70 948.35 352.46 950.67 457.33 841.32 536.25 928.44 522.55
00019479 00000062 655.60 128.93 319.18 515.03 840.40 374.61 949.34 352.53 951.86 457.69 841.03 536.23 927.77 522.80
00019480 00000063 656.98 125.57 318.60 519.60 842.01 375.22 949.81 352.81 952.81 457.03 841.97 536.41 927.73 522.78
00019481 00000064 658.18 127.80 317.78 517.90 843.46 375.45 951.11 353.60 954.87 457.31 841.84 536.07 927.92 522.91
00019482 00000065 659.98 128.66 315.42 517.00 843.26 376.00 950.86 355.35 954.97 457.70 841.25 536.46 927.76 524.21
00019483 00000066 659.24 127.51 316.49 518.34 843.56 376.08 951.10 355.59 954.51 458.06 841.39 536.58 928.03 524.48
00019484 00000067 658.41 127.41 317.25 518.91 842.72 375.97 950.63 354.04 954.11 457.94 840.95 536.89 927.73 523.78
00019485 00000068 657.01 125.21 318.32 521.72 842.14 375.82 950.35 353.55 953.79 457.77 841.15 537.83 928.01 524.54
00019486 00000069 657.31 126.21 317.91 521.03 842.30 375.61 950.27 353.45 954.43 457.76 840.78 537.79 927.73 524.59
00019487 00000070 657.55 127.47 317.57 520.24 842.62 376.45 950.45 354.27 955.04 458.58 839.81 537.86 927.55 524.74
00019488 00000071 658.42 130.11 316.64 518.15 842.09 376.90 949.51 354.72 954.60 458.86 838.79 537.67 926.73 524.57
00019489 00000072 655.87 127.48 317.59 520.99 840.76 377.33 948.56 355.07 953.49 459.75 838.00 538.30 926.51 525.19
00019490 00000073 655.16 123.78 317.31 525.11 840.23 377.94 948.18 355.92 952.17 459.98 838.02 539.29 926.17 526.41
00019491 00000074 652.08 116.07 312.24 527.03 825.33 377.38 935.42 363.28 951.99 466.16 832.62 536.24 929.11 526.69
00019492 00000075 648.01 126.37 316.83 528.93 832.30 386.07 944.55 363.69 943.25 465.01 827.35 543.22 921.70 530.66
00019493 00000076 645.82 134.32 314.94 520.87 822.78 389.56 936.12 372.87 933.74 465.79 817.81 542.14 917.08 533.72
00019494 00000077 644.47 141.11 310.83 516.22 817.28 384.95 929.83 372.96 926.14 467.57 808.59 540.33 910.23 534.69
00019495 00000078 641.91 140.50 309.04 520.20 812.32 386.84 925.32 375.93 921.43 469.42 800.84 542.02 904.46 538.20
00019496 00000079 637.07 131.78 309.13 532.69 812.44 385.78 927.75 367.44 922.02 471.55 806.34 544.75 905.79 535.87
00019497 00000080 638.22 129.94 309.65 530.44 812.04 381.59 929.16 358.40 926.64 462.20 809.53 540.67 912.69 528.06
00019498 00000081 642.39 118.02 307.12 531.49 815.28 386.05 929.65 353.72 932.94 457.10 819.89 536.22 920.24 517.01
00019499 00000082 644.17 112.27 309.41 533.75 825.23 392.97 933.88 351.63 944.74 457.64 839.40 540.41 930.67 514.51
00019500 00000083 644.86 112.85 310.00 535.53 831.20 397.03 933.75 354.69 948.98 459.73 844.03 544.88 927.45 518.75
00019501 00000084 643.25 109.85 313.83 539.26 829.63 394.70 935.31 353.51 948.41 461.24 842.17 546.09 927.39 520.64
00019502 00000085 641.91 108.49 313.91 545.75 826.60 387.61 933.72 351.66 945.19 459.24 835.08 544.68 923.65 522.81
00019503 00000086 645.32 109.78 311.12 545.19 824.48 382.99 934.51 348.63 945.57 456.88 828.85 540.90 922.10 519.99
00019504 00000087 643.51 120.35 314.87 526.78 826.95 384.48 936.26 349.77 945.03 456.82 835.31 539.49 925.30 517.80
00019505 00000088 644.40 116.62 316.21 534.67 829.42 385.57 936.11 352.63 945.07 457.31 839.71 544.03 924.78 523.51
00019506 00000089 643.58 117.71 317.14 534.80 830.63 387.22 936.48 355.78 944.36 459.54 843.63 548.07 926.13 528.58
00019507 00000090 642.25 127.56 317.62 527.44 827.56 387.09 936.89 357.59 941.31 461.31 841.55 547.95 926.98 529.30
00019508 00000091 640.34 132.82 319.63 522.73 824.64 385.54 936.84 357.53 938.37 463.00 837.73 546.93 925.76 529.11
00019509 00000092 641.39 126.79 320.49 525.29 826.64 383.37 938.14 355.41 940.94 460.26 840.06 544.84 927.81 527.03
00019510 00000093 645.10 117.81 319.19 530.32 832.74 380.25 940.63 351.20 945.29 456.27 848.70 544.01 931.84 525.18
00019511 00000094 646.80 110.81 319.69 534.13 837.17 379.34 942.33 348.67 948.99 453.80 852.57 541.60 933.79 521.57
00019512 00000095 645.75 116.48 320.53 530.66 834.97 380.31 941.96 350.31 946.88 456.37 850.90 543.04 932.92 523.35
00019513 00000096 645.69 119.59 320.18 527.95 832.61 381.02 941.44 351.49 944.96 457.29 846.78 542.95 931.36 523.80
00019514 00000097 645.45 119.04 321.62 527.16 834.93 380.31 942.70 350.89 946.57 457.02 849.18 542.42 932.15 523.29
00019515 00000098 647.18 113.87 319.80 530.73 836.70 380.58 943.09 349.82 949.25 455.48 851.15 541.18 933.32 521.11
00019516 00000099 647.09 111.44 319.92 532.60 836.99 379.67 942.81 349.77 949.15 454.55 852.31 541.42 933.73 522.02
00019517 00000100 646.90 111.00 320.46 530.66 836.36 377.49 943.03 348.07 948.60 452.47 852.42 539.04 934.71 519.70
00019518 00000101 647.11 103.33 320.72 537.69 837.21 375.34 943.32 346.70 949.23 450.29 854.69 538.66 935.56 519.77
00019519 00000102 649.05 112.14 317.54 531.78 822.85 383.26 934.92 362.58 938.73 449.59 845.59 536.02 931.98 520.74
00019520 00000103 646.51 105.65 319.32 537.55 836.11 375.27 941.68 347.87 949.14 449.95 856.41 541.58 935.49 523.74
00019521 00000104 646.79 107.09 316.87 536.90 835.94 378.07 939.45 348.98 948.91 449.66 856.08 542.24 934.45 523.50
00019522 00000105 647.25 108.74 315.54 532.58 836.43 376.73 939.70 346.52 949.99 448.39 859.20 540.34 936.98 520.48
00019523 00000106 651.09 107.84 311.53 527.91 836.63 373.64 938.88 341.92 951.51 441.06 863.18 535.86 939.08 514.93
00019524 00000107 653.85 107.64 307.40 523.90 836.86 373.46 937.70 336.24 954.98 434.67 865.27 532.38 940.47 508.32
00019525 00000108 651.02 115.91 306.78 513.82 829.48 377.31 932.02 336.35 949.36 435.39 862.41 532.97 939.03 506.20
00019526 00000109 641.07 104.44 313.00 534.32 824.00 385.88 928.18 343.73 945.14 447.65 852.07 540.83 932.29 514.08
00019527 00000110 639.03 105.95 311.55 540.19 822.76 390.66 925.42 348.96 944.24 455.26 842.89 545.41 924.04 519.81
00019528 00000111 636.46 106.43 312.83 538.80 821.43 389.60 923.47 347.84 943.22 454.82 838.91 543.61 920.59 518.44
00019529 00000112 634.58 107.77 312.78 536.67 818.89 386.06 921.70 346.41 940.62 453.37 834.80 540.65 918.38 516.80
00019530 00000113 635.43 109.52 309.92 532.85 817.12 385.18 920.29 345.54 937.82 452.18 835.35 538.90 918.49 514.86
00019531 00000114 634.11 108.01 311.96 535.35 817.98 383.67 920.37 345.82 938.37 451.80 834.39 539.47 916.54 516.77
00019532 00000115 633.83 110.37 311.96 535.04 817.93 383.67 920.44 346.35 938.28 452.38 834.11 540.77 915.99 518.38
00019533 00000116 633.90 107.89 312.09 537.32 819.04 383.63 921.01 346.34 937.93 452.24 839.85 543.08 919.32 520.55
00019534 00000117 635.79 106.22 312.33 537.37 821.08 384.16 923.34 345.84 940.14 451.77 845.62 544.43 924.22 520.97
00019535 00000118 636.39 104.95 314.38 540.68 822.32 384.56 925.08 346.76 941.16 451.93 844.66 543.46 924.47 520.09
00019536 00000119 636.31 109.95 313.50 540.99 821.57 382.03 923.29 348.58 940.78 451.23 834.20 541.79 915.55 522.30
00019537 00000120 635.04 116.21 314.10 534.89 819.66 382.93 924.91 350.26 938.99 456.33 826.47 540.78 914.35 522.04
00019538 00000121 635.28 112.79 309.94 540.06 818.70 390.33 924.88 357.83 934.26 465.79 823.39 544.98 912.41 526.70
00019539 00000122 635.99 143.17 310.24 519.25 814.52 393.72 918.31 371.18 922.06 476.58 803.61 545.56 895.00 531.76
00019540 00000123 639.25 142.47 310.17 535.44 815.39 390.47 921.81 376.14 926.61 477.24 795.39 550.96 893.80 546.04
00019541 00000124 639.98 127.82 306.47 548.70 806.27 376.46 925.92 362.06 922.96 472.09 793.73 554.81 901.18 549.07
00019542 00000125 639.86 127.82 302.79 542.36 803.90 367.33 925.94 356.84 922.60 462.57 793.38 546.85 905.61 543.90
00019543 00000126 638.08 122.06 301.45 534.54 801.68 366.25 928.74 352.94 923.27 456.82 798.89 541.27 910.79 536.22
00019544 00000127 635.66 114.88 312.20 537.61 814.51 376.16 927.44 352.40 931.30 458.42 811.21 534.78 908.90 521.83
00019545 00000128 636.58 108.67 313.69 543.71 817.46 379.53 929.02 351.22 933.28 459.18 823.54 538.21 915.56 521.45
00019546 00000129 636.21 111.73 317.33 538.63 819.66 378.41 931.93 350.00 936.65 456.39 831.50 538.97 923.24 521.57
00019547 00000130 639.80 112.83 314.23 533.13 821.29 378.25 931.31 348.09 938.13 451.49 835.05 535.76 924.51 516.82
00019548 00000131 640.04 110.56 314.01 533.31 822.98 379.85 931.35 347.77 939.55 452.16 834.67 535.86 922.98 515.86
00019549 00000132 638.43 109.72 315.80 538.16 822.91 384.92 931.91 350.83 939.80 459.63 829.40 538.90 919.58 518.10
00019550 00000133 639.48 112.77 313.13 537.50 820.92 383.86 931.32 352.89 938.44 461.60 818.76 537.26 912.88 519.30
00019551 00000134 641.39 113.99 311.71 532.38 821.31 381.38 931.75 349.71 940.27 458.00 818.24 532.98 913.72 514.34
00019552 00000135 641.25 111.70 312.58 527.58 822.96 380.87 930.67 346.19 940.44 450.28 828.28 529.35 918.89 507.77
00019553 00000136 641.03 106.66 312.85 532.11 823.03 381.63 929.60 344.58 940.85 449.97 833.46 531.66 921.18 508.33
00019554 00000137 640.12 108.44 312.35 531.29 821.39 380.90 928.03 345.21 939.74 450.39 833.49 532.58 920.21 510.25
00019555 00000138 640.13 110.27 311.56 527.25 819.58 380.11 927.39 343.88 938.38 449.25 833.18 530.55 920.72 507.50
00019556 00000139 641.20 106.92 310.48 527.63 818.73 378.33 926.84 340.74 938.21 446.22 832.69 526.68 921.64 502.74
00019557 00000140 641.29 107.49 310.47 529.30 818.77 377.02 927.02 340.93 938.97 445.43 829.16 526.49 919.20 503.93
00019558 00000141 642.63 112.28 309.42 532.59 820.69 374.99 927.77 343.14 940.76 444.42 824.00 529.08 915.27 510.04
00019559 00000142 645.92 106.42 309.55 533.51 825.98 375.89 931.07 342.35 944.19 443.91 833.12 529.23 920.06 508.72
00019560 00000143 649.14 103.98 310.11 530.46 832.02 374.98 934.66 339.74 948.40 440.38 843.79 527.59 926.71 505.48
00019561 00000144 649.81 103.39 310.51 528.40 833.03 373.81 936.43 338.28 949.47 439.44 846.23 526.05 929.43 503.49
00019562 00000145 649.22 103.77 311.09 525.94 833.65 372.29 936.39 337.93 949.20 438.75 847.62 525.86 929.30 503.91
00019563 00000146 648.56 107.91 310.91 521.82 832.60 370.83 935.09 337.51 947.60 436.60 846.60 525.07 928.43 503.95
00019564 00000147 646.12 108.36 313.36 526.63 832.13 369.15 933.80 337.66 947.52 436.21 844.48 527.50 925.87 507.88
00019565 00000148 646.90 107.92 312.75 525.63 832.10 371.01 935.12 337.70 948.41 437.64 846.77 527.94 928.66 506.76
00019566 00000149 646.13 108.78 312.52 523.80 832.18 373.28 935.03 339.64 947.99 439.27 848.40 529.25 929.83 507.80
00019567 00000150 645.17 101.13 310.49 538.64 830.83 378.17 933.12 344.36 946.40 443.31 845.72 534.58 926.62 513.50
00019568 00000151 641.86 102.58 313.25 540.02 825.73 377.76 932.78 346.16 941.14 447.44 837.03 535.00 923.25 515.50
00019569 00000152 640.27 109.48 314.89 536.16 822.61 376.70 932.45 347.52 936.46 450.80 833.53 534.96 922.50 516.70
00019570 00000153 642.01 101.45 315.08 545.02 825.63 381.85 934.99 351.28 938.75 453.44 834.84 537.36 923.38 518.55
00019571 00000154 645.54 101.30 315.85 546.38 832.35 383.13 939.31 351.57 944.92 454.09 842.06 539.29 927.33 519.55
00019572 00000155 647.78 112.50 317.85 533.62 826.15 390.00 936.56 367.95 938.80 460.55 838.28 535.16 927.01 519.27
00019573 00000156 649.02 113.82 317.80 533.59 825.25 387.77 935.76 366.71 937.16 460.36 835.31 534.85 924.81 519.93
00019574 00000157 649.20 102.72 316.01 542.77 834.71 378.76 941.33 350.14 946.63 454.89 838.95 536.27 924.01 518.40
00019575 00000158 650.12 100.66 315.68 542.17 834.89 379.59 941.80 349.52 946.71 454.55 841.79 535.59 926.85 516.56
00019576 00000159 649.99 101.77 316.68 539.78 836.05 379.97 942.55 348.77 947.92 454.19 843.21 535.12 927.74 515.30
00019577 00000160 651.97 100.46 315.82 540.94 838.16 378.80 942.88 347.96 949.33 452.19 845.78 534.58 928.22 514.78
00019578 00000161 652.46 103.41 316.65 533.84 838.82 376.35 943.09 343.94 949.81 449.25 848.59 532.61 930.35 511.36
00019579 00000162 655.45 101.31 315.19 533.39 841.00 374.26 944.29 342.01 951.66 446.93 853.07 531.02 932.99 509.71
00019580 00000163 658.41 99.85 312.73 535.06 843.24 372.55 945.57 342.26 953.38 445.59 854.58 529.94 934.18 510.02
00019581 00000164 658.63 103.69 309.56 525.69 845.93 369.46 947.75 341.05 955.07 439.83 856.23 528.50 934.98 511.98
00019582 00000165 657.68 101.07 312.33 538.03 842.26 366.15 943.86 342.51 952.69 440.46 847.43 528.89 927.63 514.20
00019583 00000166 655.94 102.85 313.20 537.96 840.17 366.71 942.88 342.52 951.69 441.09 843.16 528.43 925.44 513.58
00019584 00000167 650.37 107.67 318.07 534.83 826.43 374.70 933.99 353.31 941.20 445.80 839.97 526.52 928.29 511.87
00019585 00000168 651.97 103.19 316.15 539.13 837.74 369.90 942.36 343.95 951.06 443.34 843.92 531.26 927.64 515.11
00019586 00000169 652.21 99.99 315.25 538.09 838.59 370.92 942.22 341.89 951.50 442.71 848.52 530.28 930.36 511.66
00019587 00000170 654.10 100.73 313.87 533.41 840.03 370.71 943.10 340.15 952.86 442.16 852.52 529.00 933.21 509.12
