Video ID: 	2mENn4qUOqo
H: 	1080
W: 	1920
FPS: 	25.0

FRAME INDEX X0 Y0 W H [Landmarks (5 Points)]

00000349 00000000 817.49 155.12 482.85 723.92 874.53 421.25 1070.07 442.80 898.91 561.95 867.17 689.06 1021.33 710.10
00000350 00000001 817.03 163.20 482.05 725.94 875.26 419.55 1067.64 439.08 896.17 559.99 870.34 690.34 1022.39 709.22
00000351 00000002 823.62 164.64 477.97 724.45 878.17 417.29 1068.53 436.30 895.56 555.88 874.87 689.83 1025.03 707.97
00000352 00000003 828.56 166.34 476.91 715.77 879.12 415.43 1069.25 436.19 894.32 553.35 874.27 686.30 1022.98 705.80
00000353 00000004 832.48 155.77 474.81 712.50 883.26 413.44 1068.03 433.95 895.89 549.26 879.51 677.94 1022.83 697.17
00000354 00000005 836.09 161.24 475.69 699.99 886.62 412.14 1071.60 434.37 898.74 546.72 881.32 670.05 1026.30 690.43
00000355 00000006 843.41 151.28 470.92 704.88 893.91 405.67 1077.63 428.10 904.67 538.83 888.25 663.98 1028.43 684.81
00000356 00000007 848.72 143.44 469.91 709.28 900.11 398.27 1082.00 419.69 909.52 531.25 893.49 659.58 1029.10 679.93
00000357 00000008 844.72 145.02 482.21 701.39 909.22 392.52 1094.77 414.17 910.86 524.86 897.42 655.18 1040.02 675.22
00000358 00000009 846.74 125.39 482.05 714.93 910.63 381.94 1099.08 404.43 913.93 516.21 901.03 645.27 1043.39 666.44
00000359 00000010 848.74 132.48 479.87 699.98 911.39 377.28 1099.80 400.78 916.97 511.12 902.93 637.92 1046.33 659.73
00000360 00000011 852.01 124.50 475.30 703.42 912.91 373.79 1102.47 398.05 921.02 510.24 905.15 633.56 1050.76 655.96
00000361 00000012 852.70 130.39 474.06 697.48 915.16 376.24 1104.95 399.03 925.93 509.97 908.28 633.42 1055.86 654.30
00000362 00000013 855.88 127.81 471.90 700.41 917.51 380.44 1104.63 400.88 930.61 507.37 914.65 633.59 1061.86 651.81
00000363 00000014 856.67 121.98 472.27 698.50 920.65 376.03 1107.79 397.50 933.45 500.12 914.12 625.92 1061.55 645.20
00000364 00000015 860.12 122.62 469.06 688.87 925.05 370.67 1110.49 392.91 938.51 493.74 915.08 618.66 1062.85 638.57
00000365 00000016 861.19 117.14 471.53 685.37 929.85 363.16 1118.77 388.44 944.53 485.23 915.04 609.69 1063.42 632.50
00000366 00000017 862.51 121.54 472.54 668.53 938.53 367.56 1131.05 390.10 961.65 482.17 924.03 606.60 1068.77 627.44
00000367 DELETE   870.73 122.19 472.71 662.04 946.21 366.70 1142.31 388.73 980.57 485.75 935.68 605.34 1085.35 625.88
00000368 00000019 883.90 121.72 469.58 662.08 956.03 368.41 1154.81 387.26 998.33 486.85 948.88 607.70 1101.48 625.96
00000369 00000020 886.62 122.43 473.27 680.83 964.57 370.51 1162.83 387.95 1007.27 486.70 955.87 612.76 1113.31 629.66
00000370 00000021 890.93 128.73 475.72 691.46 970.27 372.61 1169.34 387.07 1016.79 490.63 966.04 621.56 1128.52 635.54
00000371 00000022 894.09 128.49 473.97 701.28 975.47 374.50 1176.21 388.43 1024.07 495.10 973.31 627.71 1136.76 641.10
00000372 00000023 895.31 130.87 477.15 698.73 980.72 380.58 1184.21 393.21 1032.91 499.71 981.01 632.18 1143.14 644.29
00000373 00000024 895.61 132.83 481.39 691.53 982.95 385.82 1190.05 398.90 1039.92 505.80 984.35 636.94 1143.11 649.52
00000374 00000025 899.20 129.20 479.66 692.01 987.49 390.40 1195.09 402.03 1052.02 510.25 990.93 638.41 1146.97 650.12
00000375 00000026 901.43 130.94 481.44 697.21 990.55 390.10 1198.88 402.36 1054.76 510.43 992.89 639.17 1153.66 651.08
00000376 00000027 902.02 139.59 486.25 692.25 993.76 397.06 1203.69 404.51 1056.70 514.15 997.94 639.49 1152.51 648.01
00000377 00000028 905.35 134.77 489.19 699.01 999.48 396.94 1208.66 407.73 1059.39 515.92 999.91 637.81 1154.17 649.01
00000378 00000029 909.52 136.82 487.66 690.12 1007.88 393.05 1215.59 415.83 1065.21 519.86 998.18 634.18 1160.81 655.03
00000379 00000030 915.19 143.78 485.01 683.10 1009.65 394.68 1215.59 418.68 1064.81 522.35 999.79 633.67 1162.59 655.74
00000380 00000031 917.23 146.20 481.92 679.69 1008.40 395.74 1212.11 421.09 1059.58 525.33 999.48 634.66 1159.50 657.76
00000381 00000032 918.14 146.78 480.55 671.78 1004.44 397.63 1207.87 424.95 1052.63 526.27 994.20 633.38 1153.55 657.80
00000382 00000033 919.82 146.95 479.06 672.68 1001.74 400.19 1202.82 424.52 1045.91 524.47 991.89 638.59 1147.56 660.56
00000383 00000034 920.14 151.33 477.02 678.26 997.05 401.97 1197.12 424.81 1035.70 527.52 989.25 646.67 1147.08 667.34
00000384 00000035 919.92 147.06 478.00 693.95 993.86 397.89 1190.48 418.12 1024.66 522.77 987.69 646.66 1146.55 664.99
00000385 00000036 923.86 137.69 473.08 699.39 994.52 387.12 1185.82 409.83 1010.53 518.84 984.54 638.65 1140.34 658.98
00000386 00000037 928.92 131.61 465.75 696.56 993.09 389.02 1178.79 411.67 1006.99 507.33 985.03 633.49 1134.69 653.41
00000387 00000038 927.20 136.58 467.91 692.16 993.70 380.69 1179.73 403.53 1001.23 504.38 982.65 628.88 1131.03 649.70
00000388 00000039 928.99 139.71 466.48 689.28 993.28 381.84 1178.03 404.00 998.26 503.76 981.73 629.12 1130.03 649.38
00000389 00000040 927.71 138.73 467.95 691.86 992.30 381.53 1177.28 404.46 997.60 505.68 980.03 631.09 1127.91 652.05
00000390 00000041 924.84 143.98 469.57 690.06 990.66 383.57 1176.05 407.85 995.00 507.35 977.76 632.66 1125.70 654.53
00000391 00000042 917.43 152.34 475.18 690.22 987.32 389.80 1173.63 414.06 993.67 513.54 973.69 637.87 1121.31 659.66
00000392 00000043 913.14 161.40 473.87 690.99 981.85 397.90 1165.47 419.29 986.87 522.29 968.58 649.94 1113.88 669.28
00000393 00000044 911.63 171.43 461.03 685.44 968.54 400.34 1151.61 420.07 983.43 525.36 962.70 656.15 1104.54 674.50
00000394 00000045 901.43 168.02 463.40 689.70 961.45 403.13 1143.91 421.86 977.39 527.38 956.38 658.47 1098.75 675.91
00000395 00000046 894.37 169.87 465.09 688.88 954.86 403.70 1137.91 421.22 970.41 528.74 949.82 659.26 1093.24 675.69
00000396 00000047 887.88 167.03 466.76 691.74 950.81 401.59 1135.32 419.06 966.46 526.30 945.24 659.29 1087.75 675.89
00000397 00000048 881.53 160.12 467.55 692.36 945.30 397.17 1130.73 414.67 962.34 523.57 939.30 654.01 1081.47 670.92
00000398 00000049 878.98 157.46 463.64 683.01 939.29 395.34 1126.39 409.38 957.93 519.72 935.71 651.10 1076.75 665.12
00000399 00000050 872.47 138.62 466.60 697.82 933.84 387.91 1124.66 404.28 952.57 514.23 928.18 644.99 1070.72 661.08
00000400 00000051 869.71 128.59 470.41 704.67 931.42 383.50 1121.45 400.15 947.86 509.22 925.88 638.34 1069.65 654.95
00000401 00000052 871.93 129.49 464.95 701.08 930.77 389.65 1117.77 406.34 947.93 510.77 924.91 640.34 1069.03 656.48
00000402 00000053 871.55 122.07 462.34 694.13 927.56 385.71 1113.82 408.93 944.38 508.40 918.03 630.55 1062.84 651.84
00000403 00000054 870.89 121.85 463.32 692.12 929.86 382.42 1113.34 405.45 942.19 502.31 919.70 625.54 1062.46 646.76
00000404 00000055 872.83 127.22 463.38 699.67 933.65 381.43 1113.30 400.71 941.78 498.26 924.93 632.33 1059.90 650.60
00000405 00000056 870.68 122.30 464.38 704.76 931.44 383.50 1111.99 402.24 937.78 496.74 920.63 633.14 1057.12 650.93
00000406 00000057 866.59 126.05 465.49 689.76 923.86 382.31 1105.19 403.53 930.06 498.36 914.15 627.94 1053.95 647.24
00000407 00000058 862.64 122.92 465.14 686.50 918.22 372.07 1103.42 398.63 923.23 498.01 903.46 622.63 1044.21 647.25
00000408 00000059 857.15 129.94 467.01 686.32 916.27 374.01 1098.65 397.00 915.91 498.02 899.72 626.30 1038.78 647.62
00000409 00000060 852.97 139.85 473.02 683.51 915.02 374.40 1092.77 396.48 906.96 498.44 897.10 628.12 1033.63 648.44
00000410 00000061 848.37 138.20 474.49 684.40 912.13 374.14 1088.56 397.49 901.05 497.19 892.31 625.23 1029.32 646.32
00000411 00000062 844.95 130.58 476.68 692.37 905.69 375.12 1086.29 397.84 896.48 496.36 886.68 625.20 1030.19 645.98
00000412 00000063 840.16 132.42 480.58 697.52 901.72 379.26 1082.02 398.10 891.00 498.63 884.18 633.93 1025.06 651.57
00000413 00000064 832.40 148.92 485.81 697.36 899.22 386.74 1077.36 401.53 884.92 500.20 882.65 644.12 1020.19 657.75
00000414 00000065 832.80 142.26 483.16 707.42 893.29 394.47 1069.36 407.78 876.68 508.19 877.96 654.07 1015.74 666.37
00000415 00000066 834.37 142.59 477.63 712.90 885.88 403.67 1065.40 413.29 883.55 514.01 878.11 661.55 1015.49 672.19
00000416 00000067 836.67 153.00 477.24 711.65 886.21 408.44 1065.53 420.42 882.88 522.25 879.21 669.70 1020.58 681.39
00000417 00000068 839.45 156.94 476.75 716.63 886.07 408.44 1065.80 422.90 880.22 524.19 879.31 675.23 1022.64 688.43
00000418 00000069 838.56 157.60 475.82 720.99 888.57 408.66 1069.13 426.28 885.95 527.23 880.55 674.37 1023.67 690.36
00000419 00000070 841.40 163.77 472.21 709.55 890.66 410.47 1069.72 428.84 890.36 529.10 882.90 674.40 1021.02 691.32
00000420 00000071 847.13 163.38 467.86 700.07 891.95 414.05 1069.96 431.66 894.25 531.81 886.15 673.00 1022.37 689.32
00000421 00000072 849.58 161.26 465.03 698.45 893.44 417.69 1071.30 436.51 898.34 537.03 886.89 673.61 1022.24 691.37
00000422 00000073 851.62 160.28 463.10 702.75 895.59 418.94 1071.69 438.55 900.33 541.89 888.31 676.44 1023.53 694.83
00000423 00000074 854.36 168.12 460.46 697.74 900.61 421.79 1073.12 440.83 903.65 542.07 894.05 676.89 1026.34 694.50
00000424 00000075 855.12 167.30 460.71 704.06 902.97 420.58 1076.01 440.53 906.05 541.96 896.71 679.03 1028.25 697.36
00000425 00000076 855.80 162.88 461.97 707.78 902.95 419.26 1076.99 439.09 906.89 540.73 896.31 679.63 1027.04 698.10
00000426 00000077 855.78 161.12 462.27 700.20 899.09 420.58 1073.78 438.06 903.48 540.36 891.05 678.85 1020.26 695.83
00000427 00000078 852.46 157.28 465.64 703.41 895.87 417.24 1072.50 437.33 901.56 540.11 888.87 675.97 1020.26 694.98
00000428 00000079 849.23 159.40 468.03 709.75 898.26 415.24 1072.37 432.32 897.92 532.36 891.37 677.17 1019.74 693.40
00000429 00000080 844.45 162.19 470.18 706.44 893.70 412.68 1069.88 430.40 894.92 532.17 889.25 674.40 1021.71 691.03
00000430 00000081 840.72 161.81 472.46 700.66 888.72 415.32 1064.82 432.02 889.63 533.93 885.00 672.95 1017.84 688.70
00000431 00000082 838.01 165.23 471.77 697.05 882.77 418.43 1061.17 431.55 887.27 536.77 881.96 674.81 1016.65 687.79
00000432 00000083 831.39 158.78 473.94 699.15 875.52 421.35 1055.65 435.17 879.34 539.88 872.74 675.52 1012.02 689.09
00000433 00000084 823.45 158.13 475.72 699.19 868.90 419.77 1047.50 436.68 872.24 541.51 863.81 672.56 1004.88 688.58
00000434 00000085 822.11 174.43 471.93 689.05 868.12 420.30 1042.84 437.84 869.06 545.67 864.26 674.98 1004.46 690.99
00000435 00000086 818.60 173.28 477.83 705.86 868.85 420.36 1039.65 437.86 863.74 547.80 863.45 680.29 1001.53 696.11
00000436 00000087 818.29 174.91 479.82 708.76 866.88 423.39 1037.86 439.36 859.28 550.74 860.64 686.35 1000.31 700.66
00000437 00000088 814.56 175.83 481.53 702.66 863.31 427.26 1035.31 440.45 855.27 550.79 858.98 686.09 1000.26 698.06
00000438 00000089 812.39 175.78 484.00 705.99 861.00 427.86 1032.71 440.11 852.66 550.90 858.39 687.88 999.83 698.94
00000439 00000090 809.46 168.64 483.83 718.62 859.34 424.73 1033.25 438.08 853.50 551.51 857.03 687.46 1001.67 699.57
00000440 00000091 805.40 169.61 484.68 715.97 856.52 425.74 1032.16 436.41 853.77 550.56 856.57 687.40 1001.38 697.32
00000441 00000092 805.01 169.23 481.43 707.08 853.75 423.40 1030.03 436.37 852.01 549.38 854.74 682.53 999.62 694.25
00000442 00000093 807.39 165.30 478.48 698.06 853.13 423.26 1028.69 434.54 852.36 549.06 855.83 681.60 992.71 692.42
00000443 00000094 808.33 160.44 473.63 692.59 849.75 421.14 1027.46 429.96 852.96 548.48 853.12 679.18 990.71 688.19
00000444 00000095 802.49 159.56 475.58 689.57 846.64 419.30 1025.47 427.88 851.18 547.56 851.12 675.80 989.70 684.81
00000445 00000096 797.02 157.07 477.24 691.88 844.03 420.56 1020.31 424.97 846.99 544.03 850.22 676.68 987.24 682.06
00000446 00000097 794.84 160.31 477.01 697.04 842.96 420.45 1013.18 422.71 839.67 545.78 852.20 680.89 985.19 683.83
00000447 00000098 794.01 161.62 478.08 693.21 840.39 421.63 1008.67 420.77 835.32 545.17 851.11 681.08 982.03 681.47
00000448 00000099 793.91 156.85 476.06 690.72 839.41 420.78 1008.69 417.98 833.57 537.69 848.98 673.43 983.81 672.61
00000449 00000100 791.88 149.58 474.91 692.26 835.85 414.76 1008.20 409.55 832.89 530.46 848.47 665.81 986.85 663.05
00000450 00000101 790.91 148.72 473.52 700.05 835.22 405.99 1002.52 404.82 823.89 525.44 846.63 661.40 984.52 661.23
00000451 00000102 787.39 154.50 471.09 693.78 829.95 408.48 993.34 403.42 816.44 525.56 843.12 665.02 978.45 661.17
00000452 00000103 785.72 161.93 470.23 678.52 826.15 414.58 988.51 405.71 812.27 529.14 838.64 667.95 971.79 661.12
00000453 00000104 782.68 162.02 465.98 670.24 823.63 412.63 985.04 404.82 811.65 528.88 834.59 667.18 965.24 661.54
00000454 00000105 778.54 161.57 466.15 671.99 822.40 409.45 982.80 400.99 808.98 525.06 831.23 666.61 958.64 660.33
00000455 00000106 774.51 158.45 464.33 673.86 819.44 407.88 979.50 402.66 807.11 523.55 827.48 660.93 955.11 657.38
00000456 00000107 771.51 148.82 465.07 688.71 814.01 408.50 974.30 402.01 802.87 523.79 826.03 662.35 955.62 657.76
00000457 00000108 765.85 148.22 469.05 705.98 803.93 413.78 969.39 399.64 800.94 523.68 826.13 669.75 952.65 659.49
00000458 00000109 759.53 147.82 468.30 701.85 796.30 412.05 962.66 401.28 790.64 523.89 812.69 667.21 942.82 659.82
00000459 00000110 755.64 151.47 467.75 692.97 789.48 417.26 957.98 404.85 787.42 526.86 804.33 668.56 933.45 660.27
00000460 00000111 749.78 153.24 473.86 700.12 787.35 419.34 953.95 408.58 784.96 533.53 803.31 675.06 935.99 667.68
00000461 00000112 741.07 157.31 478.20 710.72 783.56 421.46 949.24 410.91 780.60 537.40 804.23 680.01 942.88 672.07
00000462 00000113 729.46 159.82 480.73 703.63 774.57 427.64 942.92 415.19 771.96 540.17 796.16 682.09 932.14 672.81
00000463 00000114 726.42 159.55 476.82 696.96 770.61 432.05 931.71 418.13 763.36 545.91 791.20 686.71 919.62 675.83
00000464 00000115 722.60 169.53 471.60 677.30 764.36 431.21 924.07 419.69 757.87 551.35 784.58 687.43 908.23 678.05
00000465 00000116 718.08 170.57 478.56 684.09 762.72 430.66 921.79 418.54 755.22 551.87 784.90 690.23 909.98 679.91
00000466 00000117 713.72 164.53 483.83 699.03 761.96 432.10 923.33 418.20 753.22 552.71 780.36 695.05 906.62 683.52
00000467 00000118 712.55 162.74 479.48 690.27 756.71 429.66 922.59 413.95 751.04 550.56 775.48 693.49 902.45 680.85
00000468 00000119 711.59 159.17 477.31 688.10 754.96 427.28 918.36 412.01 749.08 550.12 776.56 690.68 902.56 678.33
00000469 00000120 710.95 163.76 474.93 681.84 754.07 426.92 916.41 411.25 749.83 551.24 777.34 690.08 900.63 677.35
00000470 00000121 709.21 161.51 473.39 683.47 753.41 426.66 913.69 409.75 747.12 549.35 777.31 688.59 900.92 674.69
00000471 00000122 707.75 156.62 478.74 688.02 748.44 422.87 910.81 405.54 742.03 547.07 774.43 687.26 900.42 673.20
00000472 00000123 706.20 150.66 479.22 698.04 748.15 420.41 908.32 402.07 740.73 545.02 775.15 686.48 902.16 671.42
00000473 00000124 706.25 152.91 483.53 698.91 750.10 422.81 906.67 402.34 741.62 546.60 781.99 688.04 905.51 670.88
00000474 00000125 705.59 147.79 489.35 707.96 752.96 421.72 907.25 400.30 742.95 545.37 786.94 687.79 908.91 669.71
00000475 00000126 710.98 149.35 487.52 711.57 758.03 419.23 911.89 397.32 748.22 545.50 795.61 686.33 917.22 667.69
00000476 00000127 719.80 145.16 485.66 711.18 761.81 419.53 919.41 396.22 754.09 544.41 798.64 686.28 921.01 667.35
00000477 00000128 726.71 133.28 485.20 713.14 766.30 415.43 934.31 392.50 768.33 540.73 799.23 680.85 926.59 663.67
00000478 DELETE   742.05 132.22 482.23 708.60 777.97 411.59 947.00 388.77 784.22 533.65 812.46 674.29 938.53 657.63
CROP_BBOX: 453 0 1661 1080
