Video ID: 	JC3HUW1sdYo
H: 	1080
W: 	1920
FPS: 	25.0

FRAME INDEX X0 Y0 W H [Landmarks (5 Points)]

00002964 00000000 598.48 113.49 365.33 526.75 728.19 321.77 893.88 304.09 847.39 427.13 771.18 517.66 900.45 503.45
00002965 00000001 600.81 115.80 362.01 522.39 731.03 321.69 898.78 302.89 852.77 426.33 774.91 518.88 904.23 503.94
00002966 00000002 602.53 117.45 360.80 517.68 731.92 324.72 900.16 301.03 853.93 427.30 776.20 517.24 909.03 498.63
00002967 00000003 602.73 116.75 359.48 518.05 732.56 322.86 899.44 299.30 855.33 425.64 777.98 517.96 907.38 499.54
00002968 00000004 602.72 116.19 359.04 518.32 734.01 320.96 899.54 297.96 856.20 424.11 780.81 518.69 905.91 500.59
00002969 00000005 599.57 116.79 361.14 522.94 733.20 319.91 897.68 299.17 855.05 422.62 780.40 521.44 902.29 504.92
00002970 00000006 599.30 115.29 360.94 525.57 733.28 318.11 897.72 298.15 856.44 420.91 780.05 520.79 902.05 504.85
00002971 00000007 599.77 112.88 361.52 524.63 732.36 319.09 897.19 296.27 856.45 419.84 780.41 518.48 905.16 500.24
00002972 DELETE   600.03 109.75 360.71 523.68 733.23 318.90 896.76 293.71 857.14 417.77 781.76 516.13 906.08 496.06
00002973 00000009 602.24 108.44 358.46 521.10 733.69 319.34 899.66 294.05 858.21 417.84 781.57 514.22 908.91 494.26
00002974 00000010 601.82 111.54 359.23 518.84 734.30 320.22 900.05 294.61 858.78 419.07 779.74 513.72 909.44 493.68
00002975 00000011 601.38 114.04 361.00 521.68 736.33 319.95 897.85 297.02 857.72 419.41 781.01 515.19 906.65 497.15
00002976 DELETE   602.74 114.42 360.48 525.83 737.81 321.00 897.31 298.27 857.37 419.84 783.57 519.24 905.85 501.37
00002977 00000013 603.85 116.99 360.57 526.02 738.29 321.05 898.84 299.44 857.46 421.66 782.76 519.82 907.19 502.79
00002978 00000014 604.89 117.25 358.96 521.09 738.02 322.13 899.59 298.45 857.53 421.27 785.01 520.04 908.71 501.35
00002979 00000015 606.35 116.45 356.23 516.08 738.84 323.35 901.70 297.74 860.06 421.54 786.38 518.97 910.61 498.74
00002980 00000016 607.10 114.83 356.43 516.30 738.79 323.74 903.22 297.88 860.98 422.74 786.38 518.92 913.01 498.44
00002981 00000017 606.99 116.03 357.45 517.24 738.84 325.67 903.14 298.16 861.22 424.11 786.13 519.10 914.93 497.33
00002982 00000018 605.91 118.64 359.58 519.71 738.17 326.65 903.43 299.59 860.94 425.79 783.89 519.75 914.71 498.60
00002983 00000019 607.01 118.51 358.41 520.39 737.94 327.25 903.62 301.30 860.12 424.73 784.51 521.75 914.50 501.39
00002984 00000020 607.60 117.53 357.46 520.54 737.54 330.04 903.16 302.41 859.92 424.40 785.47 523.42 914.83 501.63
00002985 00000021 606.99 118.50 358.59 521.31 737.95 329.65 902.77 302.65 860.28 424.72 784.57 522.50 915.22 501.24
00002986 00000022 607.04 119.94 358.97 519.89 737.42 329.06 902.92 303.84 859.59 425.01 782.51 521.16 914.88 501.39
00002987 00000023 606.24 120.18 359.76 520.11 736.02 328.30 901.88 304.55 857.84 426.34 781.04 521.77 912.62 503.12
00002988 00000024 605.02 121.17 360.85 517.90 733.62 329.61 901.36 305.45 855.54 427.96 778.52 520.76 912.23 501.79
00002989 00000025 604.62 119.36 359.98 516.71 731.02 328.83 901.13 304.62 853.76 427.61 776.60 519.85 911.64 500.90
00002990 00000026 604.26 116.19 360.57 519.53 730.96 328.80 900.51 304.57 853.05 426.86 776.18 519.21 911.21 500.30
00002991 00000027 603.78 115.82 360.26 517.43 730.10 328.35 900.36 304.05 852.52 426.18 775.75 518.98 909.95 500.06
00002992 00000028 603.40 116.26 360.38 518.76 730.61 327.87 898.48 303.70 851.82 424.48 776.41 518.14 909.03 499.23
00002993 00000029 602.53 115.70 360.64 523.58 730.62 324.07 897.82 303.36 851.96 423.54 775.96 519.14 906.13 502.85
00002994 00000030 601.82 115.02 361.98 527.64 730.87 321.88 896.31 302.68 851.61 421.52 776.66 520.23 904.56 504.93
00002995 00000031 601.93 113.33 361.76 529.45 730.95 320.74 895.58 300.74 852.12 419.21 777.55 520.00 904.01 504.11
00002996 00000032 602.26 110.86 361.09 528.13 731.08 321.27 895.45 299.18 852.60 416.81 779.31 519.44 904.57 501.95
00002997 00000033 601.66 111.40 361.54 527.29 730.71 320.78 894.25 298.01 851.93 415.08 779.42 518.80 904.15 500.63
00002998 00000034 601.26 108.68 360.95 527.64 730.63 321.11 893.60 296.49 852.59 414.05 780.38 518.07 904.24 498.33
00002999 00000035 601.76 107.05 359.42 528.20 731.69 320.55 894.28 295.58 854.22 412.75 780.53 517.36 903.77 497.53
00003000 00000036 601.53 103.14 357.88 531.06 731.20 320.56 894.16 294.25 854.74 412.33 782.08 518.22 904.16 497.35
00003001 00000037 601.32 102.36 356.48 528.18 729.44 322.70 893.18 296.05 854.04 413.31 779.59 517.15 904.07 495.90
00003002 00000038 599.96 102.33 356.49 527.64 730.39 322.84 892.17 295.81 854.97 412.59 776.56 513.15 903.19 491.59
00003003 00000039 598.10 101.60 356.41 525.74 728.83 323.10 890.14 295.41 853.29 411.85 772.54 509.32 901.14 487.62
00003004 00000040 596.21 101.38 356.84 527.48 727.84 322.50 888.33 296.05 851.92 411.55 770.05 507.63 899.77 486.67
00003005 00000041 596.51 99.41 353.49 529.53 725.31 322.44 884.70 295.79 848.85 410.05 772.54 510.78 897.43 489.25
00003006 00000042 594.27 97.70 352.92 533.92 723.66 319.19 880.64 293.86 845.34 408.30 775.44 514.14 892.21 493.57
00003007 00000043 594.66 95.97 349.42 537.09 721.67 315.90 876.97 293.42 841.63 405.15 776.14 515.77 888.03 497.67
00003008 00000044 593.92 95.85 347.46 532.56 719.27 315.35 876.06 291.31 841.68 402.78 775.56 512.48 889.27 492.96
00003009 00000045 593.44 95.58 345.78 525.40 717.13 317.16 874.07 288.15 841.02 401.37 774.40 509.24 890.23 485.75
00003010 00000046 592.52 95.15 345.14 525.47 713.85 315.82 872.72 287.44 838.34 400.44 769.90 507.55 889.21 484.46
00003011 00000047 588.92 94.97 348.89 536.67 714.71 309.17 871.22 285.47 836.66 399.98 768.95 508.95 884.90 489.27
00003012 00000048 588.28 93.32 349.74 538.62 712.94 307.52 868.85 282.12 836.33 398.33 770.39 510.19 885.19 489.03
00003013 00000049 588.53 93.63 347.60 528.33 708.81 311.79 866.70 278.87 836.13 395.68 770.40 508.11 889.04 481.01
00003014 00000050 589.13 92.94 343.57 525.17 709.12 313.38 864.93 277.90 835.44 394.76 771.91 506.76 888.16 477.60
00003015 00000051 589.03 95.52 343.21 523.81 707.17 315.48 862.79 281.12 831.70 398.17 770.09 508.43 886.85 480.44
00003016 00000052 586.78 101.08 344.49 520.90 706.78 318.88 861.93 285.71 831.63 406.88 773.22 515.03 883.98 488.17
00003017 00000053 583.24 107.05 347.01 519.58 710.94 322.95 862.59 290.74 833.26 416.01 777.64 522.26 880.64 496.39
00003018 00000054 582.19 116.66 348.17 521.59 710.83 329.52 863.42 297.05 832.75 427.60 777.98 531.91 881.10 505.62
00003019 00000055 581.98 120.47 345.93 524.26 711.09 335.44 862.69 303.71 833.22 434.91 778.84 539.67 880.08 513.97
00003020 00000056 582.31 121.87 345.30 524.26 709.23 336.92 862.19 304.88 832.20 436.83 778.69 542.39 880.62 516.35
00003021 00000057 581.10 120.04 347.91 523.96 709.09 333.60 863.72 302.94 831.67 434.84 776.26 537.28 881.27 512.22
00003022 00000058 581.74 118.38 350.46 515.92 710.59 331.73 866.17 299.81 832.48 432.73 777.73 531.60 883.38 505.43
00003023 00000059 582.04 120.36 352.56 513.08 711.49 333.68 866.81 301.93 831.37 432.66 775.85 528.74 883.49 502.72
00003024 00000060 581.62 122.39 355.61 512.68 711.88 337.93 867.98 305.45 832.95 437.33 774.74 530.75 884.92 504.05
00003025 00000061 583.15 128.31 353.01 511.33 714.01 340.24 870.60 308.58 836.52 440.82 775.38 534.70 886.45 508.75
00003026 00000062 584.18 127.66 350.71 516.56 714.31 340.30 871.14 309.64 838.03 442.11 777.06 538.86 887.45 513.71
00003027 00000063 585.31 126.24 351.49 519.90 713.56 340.28 873.83 310.39 838.92 441.47 773.70 537.46 890.23 513.15
00003028 00000064 586.69 126.37 350.88 517.73 713.08 341.33 874.59 311.61 839.06 441.61 770.15 535.16 889.38 511.23
00003029 00000065 585.84 127.30 352.40 516.72 713.10 342.10 874.63 312.60 838.48 441.95 769.09 533.06 890.46 509.17
00003030 00000066 584.52 129.57 353.65 517.73 714.30 344.37 876.44 313.90 840.57 446.24 768.61 537.04 889.73 512.46
00003031 00000067 588.69 137.16 350.50 513.64 716.68 348.78 881.41 315.41 845.57 454.22 775.58 544.01 896.50 516.57
00003032 00000068 586.74 141.05 350.88 517.52 721.91 350.44 884.10 320.17 849.11 461.94 778.93 551.75 891.81 526.36
00003033 00000069 589.27 152.51 356.50 516.67 722.50 358.70 887.89 323.00 857.24 461.25 777.25 562.80 896.92 532.56
00003034 00000070 590.32 156.36 356.80 513.41 723.08 360.62 890.42 324.38 857.66 463.87 777.39 563.67 899.07 532.96
00003035 00000071 589.36 158.48 357.03 510.17 722.21 361.03 890.64 325.32 857.26 464.73 774.31 561.38 900.29 531.70
00003036 DELETE   590.44 157.65 356.83 509.57 722.68 360.92 890.23 323.44 858.34 464.58 772.75 559.33 900.03 528.64
00003037 00000073 590.94 159.25 358.83 507.95 723.63 362.83 890.43 323.55 858.75 463.83 774.58 558.42 903.14 526.14
00003038 00000074 590.95 164.56 359.51 504.35 725.05 363.05 892.15 327.42 856.15 465.68 777.50 561.40 901.25 531.53
00003039 00000075 592.48 160.62 358.45 509.12 726.99 365.56 896.81 330.23 858.55 469.65 782.51 567.26 904.21 537.17
00003040 00000076 596.85 160.27 356.05 509.37 729.92 366.02 900.64 332.01 860.17 474.75 782.89 570.13 903.56 541.54
00003041 00000077 597.59 159.66 356.72 507.98 731.09 367.69 901.83 331.29 861.59 476.19 783.46 569.96 904.76 539.57
00003042 00000078 595.98 159.26 357.72 509.19 729.84 366.33 900.94 329.74 861.96 474.53 782.29 568.30 906.21 537.84
00003043 00000079 595.85 158.38 358.35 510.26 729.25 365.71 900.25 329.30 861.73 472.36 782.56 566.64 907.46 536.05
00003044 00000080 595.85 158.98 358.23 511.41 728.74 365.64 900.07 330.76 860.61 472.43 782.05 567.54 906.40 538.16
00003045 00000081 597.14 158.16 356.92 511.08 729.67 366.56 901.44 331.87 861.15 473.85 782.43 568.39 906.81 539.27
00003046 00000082 596.71 158.71 356.41 508.43 731.56 368.63 900.97 332.45 861.67 473.77 782.50 567.97 905.77 537.75
00003047 00000083 598.65 158.07 353.36 503.78 732.56 370.45 900.32 335.01 861.07 474.29 782.81 566.26 904.28 536.87
00003048 00000084 598.01 170.68 356.67 481.45 736.05 369.96 890.87 340.49 852.74 471.48 778.24 555.34 894.19 534.02
00003049 00000085 599.72 159.66 353.14 500.59 734.76 376.23 899.34 341.40 860.80 470.48 783.25 564.61 902.88 536.14
00003050 00000086 597.68 161.05 354.10 502.02 730.80 370.90 897.42 338.99 856.65 470.18 781.43 560.51 901.96 533.56
00003051 00000087 596.96 161.61 354.68 500.39 727.02 364.61 896.57 334.13 853.92 469.09 779.84 558.19 901.44 532.37
00003052 00000088 594.50 153.65 356.96 504.04 723.31 361.65 892.04 330.43 848.53 466.97 776.99 555.42 897.09 529.40
00003053 00000089 592.34 150.54 356.31 504.41 719.85 353.36 889.94 327.45 843.84 459.93 772.54 548.79 894.29 527.46
00003054 00000090 593.93 141.83 353.71 511.93 718.66 351.36 887.32 328.91 840.29 452.01 767.68 544.16 890.48 526.38
00003055 00000091 591.73 134.33 354.29 515.17 717.31 347.20 883.68 325.34 838.61 443.31 765.17 537.41 889.05 520.11
00003056 00000092 592.14 129.96 354.67 511.37 718.43 342.92 883.93 323.04 838.32 432.93 767.49 530.92 891.13 515.01
00003057 00000093 593.73 121.03 355.12 513.91 721.47 335.31 883.89 314.90 840.78 426.04 768.50 522.99 890.21 506.96
00003058 00000094 595.01 112.70 355.30 518.52 723.79 327.79 885.56 305.46 843.88 422.55 771.07 518.66 891.30 501.18
00003059 00000095 595.60 108.47 355.38 521.73 725.59 324.84 885.91 302.07 845.62 419.21 772.24 516.39 891.85 498.51
00003060 00000096 597.15 105.02 354.70 522.84 725.88 324.26 888.11 299.63 847.42 415.86 773.91 515.06 895.10 495.73
00003061 00000097 598.25 104.41 354.15 523.35 725.96 322.40 889.25 298.45 848.27 413.99 774.53 514.88 896.14 496.06
00003062 00000098 598.69 103.90 353.04 524.74 726.93 322.37 889.29 298.43 848.76 413.65 775.41 515.42 896.72 496.60
00003063 00000099 599.08 104.42 352.92 524.81 728.50 323.53 890.64 299.16 850.52 414.40 776.30 515.94 898.02 496.78
00003064 00000100 598.90 104.99 355.14 525.89 728.96 324.30 891.04 299.76 850.86 415.45 777.04 516.56 899.12 497.15
00003065 00000101 597.51 105.12 356.41 526.75 729.07 324.31 889.86 299.67 851.16 415.70 777.38 517.80 898.07 498.26
00003066 00000102 597.77 106.55 355.83 525.92 728.55 323.49 889.98 300.29 850.85 416.82 776.95 518.35 897.54 499.88
00003067 00000103 597.63 108.54 354.86 523.39 728.26 324.11 889.28 301.06 850.17 418.04 777.38 519.37 897.05 500.96
00003068 00000104 596.72 108.92 354.82 523.62 727.83 325.12 887.99 301.89 849.09 418.89 777.44 520.17 896.06 501.50
00003069 00000105 596.27 110.80 354.28 522.48 727.43 326.60 886.85 303.01 847.74 419.94 776.76 521.21 894.25 502.42
00003070 00000106 595.15 112.29 355.16 521.60 726.56 327.15 886.74 304.30 847.14 421.60 775.18 521.99 892.98 503.91
00003071 00000107 595.60 112.78 354.29 521.61 726.06 327.96 887.05 305.68 846.72 423.30 775.01 523.05 893.86 505.39
00003072 00000108 596.62 112.41 353.18 523.18 725.62 330.77 888.17 307.45 848.16 425.68 775.67 525.84 895.92 507.25
00003073 00000109 597.17 114.59 352.67 521.74 725.54 335.12 889.96 311.68 850.19 425.72 775.45 527.99 898.49 509.44
00003074 00000110 596.51 117.22 353.14 520.75 727.09 338.85 891.35 314.11 851.39 431.98 777.97 533.29 898.57 513.63
00003075 00000111 598.30 123.82 352.87 514.79 728.34 342.12 893.06 316.30 851.56 437.52 782.88 539.16 900.98 518.28
00003076 00000112 600.15 125.40 352.47 509.56 730.74 342.60 895.52 316.16 853.03 437.14 785.35 537.13 902.90 515.69
00003077 00000113 599.31 123.69 353.32 512.44 730.55 341.29 894.69 314.14 853.50 434.20 785.35 536.31 902.83 514.33
00003078 00000114 598.87 122.43 352.39 515.22 730.63 340.13 892.06 312.00 852.83 431.66 784.31 534.51 901.10 511.81
00003079 00000115 598.36 122.15 351.30 514.87 729.49 340.02 889.29 311.95 850.84 431.02 783.25 534.15 898.03 511.57
00003080 00000116 598.72 121.16 351.13 514.97 728.88 340.83 889.49 312.65 850.62 430.98 783.28 534.26 899.17 511.59
00003081 00000117 598.51 121.55 351.59 515.78 728.99 341.49 889.46 313.03 850.68 431.52 782.65 534.60 899.04 511.68
00003082 00000118 597.93 122.67 350.80 514.55 728.62 340.96 888.21 312.80 849.63 432.07 781.44 533.52 897.21 510.94
00003083 00000119 597.18 122.74 351.52 513.85 727.86 338.79 889.26 311.41 850.61 432.06 779.66 531.08 898.32 509.20
00003084 00000120 597.54 121.10 350.13 512.79 726.58 338.61 888.21 311.72 849.36 431.45 779.16 529.61 897.11 508.23
CROP_BBOX: 338 0 1191 806
