Video ID: 	gEUXRtVUzGU
H: 	1080
W: 	1920
FPS: 	25.0

FRAME INDEX X0 Y0 W H [Landmarks (5 Points)]

00001476 00000000 912.51 131.78 474.12 659.43 991.18 344.83 1232.12 367.83 1082.41 537.12 1014.62 632.08 1178.05 653.08
00001477 00000001 909.89 136.08 481.87 663.88 1000.39 348.56 1228.56 365.31 1088.56 529.96 1023.59 635.95 1178.55 651.80
00001478 00000002 906.66 127.00 484.03 686.42 1000.75 347.41 1228.95 363.35 1088.50 529.64 1025.08 642.99 1179.56 657.98
00001479 00000003 907.96 127.34 482.28 688.66 1000.96 346.98 1229.71 364.33 1089.38 532.56 1023.18 641.25 1180.20 657.50
00001480 00000004 908.41 135.13 482.68 683.03 999.16 345.63 1230.90 363.74 1088.29 534.60 1020.19 634.68 1187.32 651.24
00001481 00000005 907.65 141.77 477.41 671.52 995.97 340.84 1232.88 360.88 1092.07 537.48 1010.72 624.23 1197.80 641.41
00001482 00000006 905.64 148.46 478.66 658.55 996.41 338.14 1236.21 361.06 1092.62 538.66 1006.13 614.01 1202.05 633.41
00001483 00000007 905.33 138.59 478.58 669.19 998.11 333.97 1240.04 359.74 1094.93 539.91 1006.54 614.22 1201.22 636.37
00001484 00000008 907.13 144.15 476.10 653.83 1000.21 331.21 1241.67 358.71 1095.76 537.24 1006.56 608.43 1200.50 632.13
00001485 00000009 909.86 147.92 475.62 639.54 1004.45 328.20 1240.93 358.26 1098.21 534.09 1003.84 593.56 1198.08 618.21
00001486 00000010 906.37 144.10 477.59 642.67 999.77 327.64 1234.82 357.34 1092.13 532.74 1001.96 597.39 1189.98 621.78
00001487 00000011 907.52 134.83 463.73 652.12 996.23 326.02 1228.82 350.14 1079.62 525.54 995.39 613.02 1170.91 632.54
00001488 00000012 902.45 142.88 475.37 645.67 996.72 323.24 1227.51 354.29 1086.69 522.28 999.45 606.54 1173.45 632.09
00001489 00000013 899.94 134.19 475.79 656.34 996.99 321.61 1228.46 351.19 1088.21 521.08 1000.30 603.41 1176.96 627.48
00001490 00000014 899.63 130.21 476.41 663.66 998.42 321.70 1229.95 349.45 1091.51 521.30 1002.80 600.31 1186.01 622.75
00001491 00000015 897.67 139.04 479.74 666.29 1001.49 324.93 1231.46 351.34 1094.60 524.32 1004.54 600.84 1189.74 622.12
00001492 00000016 897.26 140.24 478.22 660.32 997.12 329.37 1228.07 355.22 1090.01 528.59 998.99 598.30 1190.64 619.13
00001493 00000017 892.21 137.65 478.65 667.99 990.85 329.83 1221.02 357.23 1080.62 531.93 993.75 599.31 1181.93 621.47
00001494 00000018 880.91 139.82 478.61 665.20 975.18 334.55 1212.85 357.53 1066.86 530.18 981.38 606.16 1172.30 626.43
00001495 00000019 882.19 141.30 474.09 661.66 971.12 337.21 1208.24 359.74 1064.22 531.83 979.46 612.76 1163.36 633.09
00001496 DELETE   885.80 146.64 474.99 674.68 970.08 340.32 1203.96 363.77 1057.24 535.12 983.84 635.10 1151.28 656.47
00001497 00000021 887.71 141.50 473.77 691.63 971.26 346.99 1204.03 373.61 1053.63 541.98 981.05 643.67 1145.31 668.32
00001498 00000022 885.50 145.64 474.15 694.88 968.20 353.56 1207.31 385.82 1052.14 555.42 972.42 651.62 1145.18 681.14
00001499 00000023 880.84 164.28 477.21 680.30 966.41 363.57 1208.94 399.56 1049.60 568.89 965.26 655.58 1141.47 688.42
00001500 00000024 870.50 171.91 478.72 671.55 961.76 368.11 1197.86 401.21 1046.26 573.18 964.37 655.21 1135.03 684.85
00001501 00000025 865.72 195.67 480.51 646.47 955.98 388.29 1193.46 419.18 1044.76 589.79 957.96 658.59 1140.24 686.83
00001502 00000026 861.72 193.84 482.91 645.98 952.34 387.86 1194.57 420.62 1045.08 595.38 952.09 657.18 1141.68 687.07
00001503 00000027 861.30 191.55 484.91 645.71 954.40 384.50 1196.32 421.63 1044.72 596.92 950.95 653.59 1141.01 686.93
00001504 00000028 864.57 187.09 483.45 653.42 958.50 385.60 1200.16 424.90 1044.73 598.73 952.84 655.08 1143.91 690.20
00001505 00000029 867.92 190.37 483.92 653.26 962.17 387.16 1204.05 428.45 1046.52 601.46 954.83 657.23 1144.53 693.77
00001506 00000030 869.22 190.84 484.37 653.85 964.25 388.48 1205.36 431.08 1047.73 602.41 955.68 658.02 1144.86 695.59
00001507 00000031 872.17 200.85 485.85 645.80 965.98 387.11 1210.38 432.95 1049.44 603.72 956.23 658.71 1147.36 698.64
00001508 00000032 872.67 196.47 486.49 651.41 967.02 386.21 1212.07 432.91 1049.62 603.35 955.83 656.97 1149.60 697.74
00001509 00000033 871.41 196.09 486.85 652.03 967.12 386.56 1211.57 433.45 1049.82 603.19 955.31 657.01 1148.65 698.00
00001510 00000034 870.04 197.91 487.19 649.30 965.50 386.45 1209.72 432.88 1048.14 602.90 954.55 657.31 1147.16 697.80
00001511 00000035 868.58 192.80 486.09 652.58 964.42 385.05 1207.25 430.50 1046.55 602.04 953.88 655.53 1146.00 695.33
00001512 00000036 866.86 192.80 484.46 651.48 960.77 383.29 1205.19 428.07 1043.98 601.64 950.75 655.71 1143.20 694.97
00001513 00000037 866.22 192.61 483.31 650.63 958.12 381.76 1201.62 426.11 1040.65 601.04 949.21 654.50 1141.29 693.50
00001514 00000038 864.50 183.09 482.38 659.14 954.74 379.61 1197.16 423.34 1035.72 597.11 946.96 653.71 1137.68 692.33
00001515 00000039 861.98 185.42 483.09 655.62 953.09 377.77 1196.27 422.64 1035.15 595.04 943.84 651.22 1136.91 690.78
00001516 00000040 861.77 182.62 483.65 657.10 954.36 375.58 1196.32 421.14 1035.54 591.23 943.52 648.75 1135.24 688.91
00001517 00000041 862.31 184.21 482.82 652.99 955.88 372.38 1196.98 418.79 1036.01 588.49 943.22 645.42 1134.11 686.21
00001518 00000042 861.83 187.65 483.67 647.18 955.83 367.29 1198.94 416.56 1036.99 583.16 939.61 642.90 1131.38 685.85
00001519 00000043 858.22 185.04 484.31 646.17 955.29 362.70 1198.60 414.92 1038.08 578.04 936.64 637.55 1128.23 682.86
00001520 00000044 857.64 177.90 483.48 651.68 956.54 360.87 1198.26 414.10 1037.37 575.70 936.16 635.49 1125.49 681.86
00001521 00000045 859.91 174.99 482.89 652.39 961.72 359.52 1204.54 415.24 1043.36 577.34 937.85 634.38 1127.83 682.85
00001522 00000046 868.28 179.79 477.94 647.52 969.77 361.38 1211.56 419.36 1049.55 577.28 943.83 633.72 1133.18 683.98
00001523 00000047 871.39 177.50 478.07 660.10 976.15 361.64 1218.82 421.36 1055.89 576.48 948.25 639.19 1137.47 691.02
00001524 00000048 873.54 172.76 477.17 666.06 979.19 365.42 1222.14 426.53 1059.57 579.92 947.27 639.95 1139.72 693.20
00001525 00000049 873.63 176.10 476.19 666.21 981.93 370.68 1225.81 434.36 1062.74 589.03 947.44 642.42 1142.28 697.77
00001526 00000050 872.70 182.92 477.31 664.54 981.67 375.20 1226.58 439.30 1064.17 595.21 947.33 646.06 1142.13 701.70
00001527 00000051 870.51 187.24 477.79 662.58 980.96 378.70 1225.69 442.03 1064.68 596.64 945.22 649.60 1140.85 704.70
00001528 00000052 867.58 188.30 477.14 663.11 980.58 381.46 1223.36 444.41 1064.34 599.96 944.16 651.49 1137.99 706.50
00001529 00000053 863.17 188.46 478.62 662.45 976.60 382.01 1219.81 442.61 1062.29 599.18 942.68 653.45 1136.48 706.34
00001530 00000054 859.26 188.28 477.15 657.16 972.87 384.30 1212.17 439.59 1060.45 595.05 942.97 651.64 1133.45 700.23
00001531 00000055 852.64 182.37 478.93 659.14 972.62 390.59 1204.15 444.71 1058.17 588.65 940.62 645.99 1129.14 693.62
00001532 00000056 851.59 186.42 480.88 651.86 966.96 384.35 1205.61 437.47 1056.91 590.66 937.27 646.50 1128.48 693.26
00001533 00000057 851.57 175.41 480.30 660.37 962.93 377.54 1204.90 431.09 1053.64 588.62 935.98 645.74 1126.69 692.71
00001534 00000058 853.84 176.38 479.88 657.72 966.90 372.23 1207.58 427.05 1055.42 585.44 939.12 641.80 1129.05 689.59
00001535 00000059 856.45 178.47 479.49 658.07 969.41 370.26 1211.25 423.80 1058.72 583.98 943.16 643.11 1133.14 690.05
00001536 00000060 858.84 177.98 478.40 655.14 978.60 378.23 1210.36 431.72 1063.79 580.67 950.03 639.25 1136.31 686.14
00001537 00000061 865.72 178.28 476.25 654.11 983.18 379.65 1214.79 431.09 1068.99 580.36 957.35 641.54 1141.47 686.64
00001538 00000062 869.87 175.10 472.75 657.41 981.57 374.29 1217.79 427.51 1068.64 582.60 955.70 642.11 1142.83 688.76
00001539 00000063 869.25 170.51 474.52 664.38 978.90 371.89 1219.79 423.04 1069.90 584.53 955.75 644.77 1145.28 689.70
00001540 00000064 870.60 174.53 476.48 659.87 981.33 370.59 1222.87 421.93 1073.13 582.65 958.80 644.85 1147.80 689.74
00001541 00000065 870.70 175.92 477.20 658.69 980.79 370.10 1223.88 421.18 1073.83 583.09 958.58 645.64 1148.59 690.32
00001542 00000066 869.49 174.37 478.55 662.21 979.63 369.85 1223.19 421.46 1072.35 582.93 957.15 645.89 1147.42 691.01
00001543 00000067 868.58 174.76 479.96 663.83 979.09 370.87 1222.58 422.48 1071.43 582.98 956.39 647.45 1146.44 692.60
00001544 00000068 867.27 176.45 480.18 665.08 979.04 372.32 1222.06 424.62 1071.35 585.16 955.71 647.85 1145.55 693.59
00001545 00000069 861.77 178.01 482.30 667.18 974.87 375.18 1221.02 427.16 1070.50 591.16 950.41 650.81 1144.33 696.33
00001546 00000070 859.35 172.65 482.94 673.90 971.92 376.75 1218.87 429.07 1066.32 593.55 947.61 651.92 1141.27 697.73
00001547 00000071 857.72 179.23 482.40 668.89 971.83 377.83 1217.73 431.55 1065.36 595.16 945.77 651.87 1139.67 698.95
00001548 00000072 857.17 179.49 481.46 669.14 970.12 378.47 1214.29 432.06 1062.31 595.47 944.09 651.19 1137.92 698.24
00001549 00000073 856.27 179.64 481.18 668.44 967.78 378.42 1211.62 430.98 1059.83 594.11 942.56 651.13 1135.94 697.30
00001550 00000074 855.06 185.29 480.80 662.83 965.46 379.98 1210.44 431.30 1058.98 593.96 941.19 652.60 1135.28 697.71
00001551 00000075 854.06 178.41 481.16 670.43 964.02 380.94 1209.58 431.54 1058.24 593.98 940.50 653.88 1133.97 698.42
00001552 00000076 853.61 175.57 480.29 675.04 962.92 381.77 1209.54 432.26 1057.79 594.91 939.61 655.30 1133.98 699.84
00001553 00000077 852.95 176.45 481.02 674.31 962.91 382.48 1209.58 432.44 1057.93 596.12 939.39 655.52 1134.16 699.57
00001554 00000078 853.18 177.63 480.94 672.90 963.36 382.56 1209.79 432.70 1058.18 596.22 939.61 654.94 1134.86 699.14
00001555 00000079 852.88 177.49 481.99 670.44 963.25 381.79 1210.34 432.17 1058.54 596.30 939.40 654.11 1134.34 698.43
00001556 00000080 852.01 181.47 482.46 664.25 962.95 380.65 1209.95 431.34 1058.19 594.86 939.44 653.04 1133.74 697.50
00001557 00000081 852.08 184.98 482.62 659.60 962.66 380.33 1209.47 430.50 1058.61 595.54 939.77 652.20 1134.07 696.09
00001558 00000082 850.70 182.32 483.18 661.31 960.93 379.69 1208.27 429.27 1057.76 595.07 939.19 651.63 1133.73 695.10
00001559 00000083 849.96 183.66 484.52 658.94 960.47 379.52 1208.46 429.03 1057.64 596.50 938.98 651.23 1133.88 694.55
00001560 00000084 850.40 183.30 483.91 658.84 960.29 379.61 1209.13 428.41 1058.25 597.11 939.23 651.88 1134.89 694.66
00001561 00000085 852.24 186.59 484.01 654.80 963.64 379.35 1210.80 428.98 1060.00 595.39 941.46 650.97 1136.06 694.34
00001562 00000086 854.42 182.29 483.82 658.77 964.92 379.12 1212.54 428.64 1061.98 595.53 943.55 652.03 1135.82 695.35
00001563 00000087 856.21 177.79 481.11 664.10 964.04 379.37 1211.28 427.79 1060.43 593.62 944.27 654.99 1133.48 697.52
00001564 00000088 856.56 178.59 481.75 662.91 964.63 378.85 1211.58 426.45 1061.19 591.98 946.02 655.54 1133.80 697.36
00001565 00000089 857.61 180.98 483.38 661.87 967.43 377.51 1215.13 426.92 1063.78 591.76 947.80 656.19 1135.17 699.45
00001566 00000090 858.74 177.55 484.32 670.68 970.59 376.31 1215.39 424.35 1064.04 587.28 953.34 658.02 1135.54 700.10
00001567 00000091 860.00 172.91 482.58 673.42 971.05 372.92 1215.14 419.74 1064.64 581.50 955.21 655.72 1135.04 696.94
00001568 00000092 861.65 180.27 482.02 662.34 972.90 365.76 1216.92 415.22 1066.80 576.39 955.26 650.38 1135.45 693.68
00001569 00000093 860.96 162.45 480.34 673.60 969.57 358.42 1207.91 406.54 1056.44 561.72 950.97 641.44 1128.55 683.85
00001570 00000094 859.59 158.91 478.48 672.07 966.32 353.51 1204.24 401.92 1052.36 555.31 948.80 635.88 1126.90 678.38
00001571 00000095 855.50 163.89 481.21 664.11 963.64 349.41 1202.20 397.37 1050.92 552.92 946.90 632.21 1127.19 674.22
00001572 00000096 852.67 161.73 483.60 664.99 961.34 347.80 1200.07 394.05 1049.60 549.71 946.18 631.19 1128.43 671.90
00001573 00000097 851.31 157.50 483.44 665.38 957.66 346.31 1196.72 389.58 1047.74 546.42 945.94 629.16 1130.51 667.38
00001574 00000098 849.77 150.76 482.13 667.33 954.16 344.46 1190.40 385.09 1042.67 541.24 945.23 623.62 1128.39 659.75
00001575 00000099 846.44 141.50 481.97 674.00 952.54 340.70 1186.60 379.31 1041.29 533.73 943.19 617.65 1128.05 652.09
00001576 00000100 845.28 139.79 482.18 669.24 949.53 339.37 1183.37 375.05 1040.28 531.01 942.67 612.93 1128.66 644.69
00001577 00000101 843.96 143.92 482.12 657.00 950.41 337.66 1182.38 369.28 1041.61 526.07 942.96 599.48 1135.59 627.47
00001578 00000102 843.16 144.09 483.39 650.40 954.12 335.76 1184.16 366.38 1043.28 522.74 943.98 583.93 1142.53 610.82
00001579 00000103 840.84 140.08 487.32 650.41 954.70 331.85 1185.87 364.21 1043.32 520.35 941.73 574.21 1150.45 602.02
00001580 00000104 838.14 137.93 488.35 638.20 948.31 326.69 1186.66 361.67 1045.13 521.77 935.29 567.64 1152.87 597.75
00001581 DELETE   838.72 141.77 488.77 646.09 949.51 316.87 1181.41 350.78 1043.81 510.54 940.71 562.00 1159.71 589.51
00001582 00000106 845.44 122.03 482.37 676.60 954.45 303.40 1188.56 334.51 1048.89 496.47 948.84 568.38 1159.28 593.12
00001583 00000107 846.04 95.85 483.85 707.12 939.51 294.18 1182.78 316.25 1035.90 483.02 949.72 587.21 1150.17 606.28
00001584 00000108 838.48 84.73 486.59 689.96 934.08 290.50 1171.16 307.93 1028.93 463.93 942.47 568.90 1139.41 585.08
00001585 00000109 838.03 78.97 485.60 688.27 931.52 288.28 1170.39 303.00 1029.97 462.33 940.48 562.43 1143.68 576.18
00001586 00000110 835.95 85.84 482.58 690.17 929.85 288.76 1168.80 300.29 1031.59 464.90 933.75 558.79 1147.96 570.08
CROP_BBOX: 486 0 1650 1076
