Video ID: 	2FttRDvV0c4
H: 	1080
W: 	1920
FPS: 	25.0

FRAME INDEX X0 Y0 W H [Landmarks (5 Points)]

00001236 00000000 494.83 143.24 401.78 621.19 589.46 410.84 761.07 395.06 676.51 499.08 630.76 621.50 767.17 607.98
00001237 00000001 491.36 145.77 404.00 615.57 583.28 409.30 757.39 390.98 671.34 496.66 627.46 619.94 765.81 604.08
00001238 00000002 494.30 145.54 400.00 607.77 581.55 405.16 758.31 385.20 667.56 491.28 625.52 617.18 766.69 599.98
00001239 00000003 496.99 145.43 395.68 606.71 582.50 404.26 756.87 383.64 665.38 485.67 625.81 616.26 763.65 599.13
00001240 DELETE   494.35 149.89 397.68 597.22 576.77 402.12 751.52 379.22 656.72 479.69 618.44 607.57 762.44 588.32
00001241 DELETE   488.76 153.43 397.17 581.06 569.02 400.56 742.05 380.52 646.28 475.86 606.77 599.34 753.76 582.56
00001242 00000006 483.82 152.55 394.88 578.38 556.92 395.94 726.99 373.96 626.58 469.83 594.37 601.30 735.27 582.66
00001243 00000007 477.21 143.81 399.90 599.63 542.95 390.26 706.81 362.70 602.34 464.12 585.53 606.62 715.43 583.53
00001244 00000008 475.24 135.72 413.37 612.00 531.57 392.33 697.41 358.17 580.31 464.70 579.46 604.76 706.05 576.75
00001245 00000009 472.07 131.45 416.94 614.17 525.24 395.20 685.55 354.38 569.13 463.16 574.84 605.57 699.13 572.12
00001246 00000010 471.24 133.66 417.86 612.60 521.69 395.34 680.13 353.98 562.28 464.86 570.78 606.32 693.49 572.42
00001247 00000011 473.80 132.67 417.11 620.98 522.29 395.91 678.57 353.64 559.15 468.61 572.93 611.67 692.01 577.17
00001248 00000012 477.05 133.79 414.09 629.20 522.72 401.40 677.88 355.14 556.52 470.66 575.34 619.78 694.03 581.87
00001249 00000013 483.29 135.45 410.57 632.70 523.87 404.32 676.79 356.83 553.48 474.41 574.98 622.43 695.06 583.55
00001250 00000014 487.69 132.00 408.47 631.68 523.03 404.72 677.29 358.19 553.72 482.20 575.77 627.23 693.07 589.29
00001251 00000015 486.05 125.36 414.05 633.41 524.60 410.87 680.02 360.28 565.97 486.14 574.87 625.83 702.69 584.68
00001252 00000016 490.28 135.44 416.08 621.92 529.88 402.16 688.23 364.65 567.53 488.23 575.07 615.83 706.89 584.91
00001253 00000017 498.46 125.53 417.36 628.14 539.30 410.56 685.65 368.73 569.26 494.56 589.83 616.25 708.48 581.64
00001254 00000018 506.42 126.93 418.18 628.53 547.38 407.43 695.01 373.36 576.68 498.40 594.44 616.81 709.58 588.44
00001255 00000019 514.84 136.05 414.10 624.20 556.32 404.87 705.32 378.66 582.47 501.46 598.95 618.59 713.03 596.63
00001256 00000020 520.79 129.77 411.91 640.51 557.65 407.40 717.50 381.64 592.44 505.13 596.38 627.36 721.19 605.10
00001257 00000021 526.43 129.64 420.50 650.24 565.99 418.52 726.23 386.79 596.42 504.72 606.83 635.33 731.79 608.97
00001258 00000022 537.38 130.78 412.48 652.67 575.55 418.32 727.84 393.16 601.43 506.52 611.46 633.69 730.33 611.24
00001259 00000023 546.15 130.77 414.45 657.66 583.58 418.71 736.14 396.64 605.13 509.41 613.88 636.41 736.14 616.70
00001260 00000024 550.29 130.82 413.92 656.04 590.32 414.79 742.04 396.75 612.53 512.52 621.27 637.15 742.25 620.86
00001261 00000025 552.55 131.13 412.77 651.59 592.45 413.75 747.82 396.51 617.30 514.18 625.15 639.32 747.33 623.78
00001262 00000026 557.51 135.60 410.81 652.49 596.92 414.76 752.33 396.82 621.89 514.77 628.64 642.78 754.10 626.80
00001263 00000027 561.39 134.93 410.43 654.14 599.63 412.69 756.91 395.95 625.56 515.75 630.22 643.00 759.13 628.13
00001264 00000028 566.16 132.95 406.33 655.52 603.87 413.17 759.01 396.92 629.02 515.47 632.90 642.72 763.02 628.18
00001265 00000029 568.89 133.39 408.32 656.46 607.12 412.86 762.38 398.06 631.32 516.43 635.22 641.78 767.12 628.26
00001266 00000030 569.06 134.28 409.03 654.51 609.33 412.10 763.87 398.69 632.91 517.07 637.19 639.97 768.77 627.44
00001267 00000031 569.44 132.84 409.34 655.50 610.27 412.09 764.87 399.71 633.72 517.88 637.67 639.86 769.16 628.15
00001268 00000032 569.56 135.70 409.07 652.92 610.45 412.82 764.71 401.19 633.56 518.44 637.69 640.18 768.64 629.09
00001269 00000033 568.58 136.72 407.47 652.09 607.74 412.95 762.09 400.89 630.44 518.77 633.88 641.81 764.16 630.59
00001270 00000034 564.92 136.77 406.70 666.00 604.68 414.07 760.44 398.90 628.52 518.22 630.79 649.10 760.03 635.78
00001271 00000035 558.71 140.62 411.07 679.12 603.81 412.27 759.73 398.06 628.74 517.24 630.47 654.00 759.50 641.79
00001272 00000036 555.20 140.58 409.46 682.37 601.03 413.60 754.65 400.83 623.51 518.19 624.57 654.64 752.70 643.52
00001273 00000037 546.86 134.34 408.11 662.50 589.27 415.88 747.28 408.35 614.01 526.92 614.02 642.85 743.46 635.05
00001274 00000038 538.87 141.02 402.80 644.25 577.97 421.64 734.90 417.50 607.20 536.41 608.76 643.50 730.61 638.31
00001275 00000039 531.22 144.28 400.87 657.69 569.56 435.29 725.09 423.70 600.15 541.98 603.04 654.10 724.73 643.03
00001276 00000040 528.19 148.09 396.62 662.42 562.78 447.93 713.01 436.87 592.99 558.67 600.62 670.10 715.13 660.38
00001277 00000041 507.68 167.41 405.85 661.65 553.24 458.43 712.07 455.77 585.18 581.42 585.72 686.12 711.52 683.59
00001278 00000042 493.35 177.99 406.14 663.49 542.68 476.82 700.35 474.49 579.58 601.58 582.79 706.82 698.46 704.71
00001279 00000043 476.78 196.28 409.83 659.81 528.94 503.06 683.15 495.31 573.55 628.79 577.30 731.99 692.28 724.79
00001280 00000044 452.44 216.17 416.39 670.94 516.58 534.28 675.05 524.42 575.78 671.14 579.74 762.46 695.06 753.95
00001281 00000045 435.58 231.37 419.93 682.96 496.41 550.13 659.40 539.39 558.26 703.49 569.79 780.49 693.02 770.55
00001282 00000046 405.37 244.16 439.80 678.23 475.75 555.18 643.12 539.36 542.54 695.56 555.90 786.10 692.32 769.35
00001283 00000047 404.41 242.75 432.76 682.99 468.06 556.97 632.99 544.76 525.01 702.12 543.13 785.87 677.44 772.88
00001284 00000048 398.55 239.22 423.26 679.86 463.07 557.53 624.91 544.26 521.08 696.50 534.86 780.92 663.63 767.81
00001285 00000049 398.46 223.90 416.24 687.71 460.32 549.86 621.90 536.37 518.16 681.17 522.05 769.88 656.76 757.08
00001286 00000050 395.92 209.85 419.98 694.22 455.67 536.49 621.78 519.71 515.07 667.51 514.39 760.63 653.25 746.03
00001287 00000051 398.74 199.09 420.22 696.76 455.80 520.34 618.29 500.14 511.64 641.59 509.33 744.98 648.13 727.55
00001288 00000052 398.05 187.22 429.47 693.10 457.85 501.34 616.97 479.07 506.06 622.05 512.98 726.53 645.45 707.45
00001289 00000053 398.39 175.53 425.65 688.56 461.41 488.59 629.82 468.36 519.30 605.84 513.40 710.64 651.70 693.08
00001290 00000054 399.32 166.04 423.96 680.38 461.64 476.94 633.50 456.61 521.52 593.73 511.15 698.07 653.85 680.76
00001291 00000055 400.03 165.08 421.12 675.98 463.13 468.97 636.98 448.24 526.30 584.42 510.80 692.12 655.20 675.03
00001292 00000056 401.98 159.94 418.46 680.46 466.48 467.74 641.45 446.66 533.18 582.40 513.93 690.45 660.48 672.80
00001293 00000057 400.87 165.78 420.01 680.18 469.05 472.93 645.69 450.31 539.07 585.38 517.08 691.87 667.14 672.59
00001294 00000058 400.42 174.22 423.44 677.44 469.85 481.39 649.59 456.92 544.19 592.80 519.89 697.26 675.88 676.04
00001295 00000059 393.31 190.08 428.50 666.22 469.00 497.57 652.85 468.91 553.00 606.19 522.61 703.56 685.73 678.72
00001296 00000060 385.03 205.55 436.41 655.74 472.91 516.90 654.17 486.57 561.96 624.37 531.09 715.97 687.73 689.28
00001297 00000061 377.70 211.91 434.11 651.54 469.51 532.22 658.27 500.44 576.99 652.05 536.71 733.25 700.88 706.24
00001298 00000062 377.76 222.66 432.77 654.94 470.56 549.35 656.31 511.62 580.50 669.81 541.94 747.24 703.37 715.46
00001299 00000063 375.98 224.04 433.27 656.73 469.59 548.15 655.15 510.23 579.82 668.94 540.70 745.95 703.73 714.12
00001300 00000064 377.99 213.81 430.84 655.92 471.32 537.20 657.71 502.14 580.72 654.80 539.07 733.59 703.43 704.08
00001301 00000065 379.27 207.21 436.32 651.24 477.59 521.24 661.65 489.12 584.72 636.40 544.12 721.33 706.30 693.94
00001302 00000066 390.53 196.71 427.27 647.68 485.17 508.12 667.61 476.19 589.05 616.11 548.31 711.39 709.02 684.09
00001303 00000067 396.09 196.61 427.34 635.43 495.50 498.89 680.50 467.82 601.85 599.92 557.19 700.52 718.06 673.66
00001304 00000068 410.16 193.23 419.71 635.99 508.04 489.26 691.60 463.37 613.89 590.79 565.65 693.98 723.79 670.57
00001305 00000069 418.50 190.31 420.00 632.81 516.39 482.09 700.72 456.72 621.81 580.43 574.36 688.66 729.19 665.75
00001306 00000070 426.35 190.86 413.25 627.08 523.64 478.94 708.96 450.82 630.12 571.96 581.82 689.18 732.53 664.45
00001307 00000071 427.36 193.15 411.00 654.20 525.90 478.27 704.58 450.12 625.92 569.44 581.17 694.20 728.99 669.73
00001308 00000072 424.80 202.90 410.26 639.14 524.23 484.26 697.74 458.09 621.01 576.06 579.83 695.12 722.40 671.93
00001309 00000073 419.65 209.29 416.77 645.66 516.50 496.04 690.64 466.68 612.85 588.83 574.18 705.12 721.27 679.30
00001310 00000074 417.60 212.96 421.37 656.12 512.42 509.62 687.64 473.94 609.41 603.32 576.54 719.45 722.93 688.39
00001311 00000075 418.19 220.77 422.10 654.54 512.06 517.29 686.55 483.08 607.06 615.72 575.90 726.54 721.86 696.82
00001312 00000076 425.20 228.01 411.31 633.69 512.22 524.08 683.60 493.32 600.20 625.72 573.49 727.49 713.17 700.76
00001313 00000077 429.41 227.16 407.73 631.68 511.03 522.10 681.76 497.09 592.75 628.38 570.81 728.79 705.75 707.04
00001314 00000078 435.64 224.92 405.49 636.58 513.55 522.71 682.03 499.28 589.89 629.86 569.20 728.72 704.36 708.36
00001315 00000079 438.05 224.41 404.18 645.13 515.22 523.64 683.47 499.62 590.59 630.43 567.98 728.09 707.25 707.21
00001316 00000080 438.08 224.30 405.39 647.54 511.98 522.84 681.99 499.49 586.32 629.66 563.77 727.69 707.03 707.22
00001317 00000081 435.11 227.32 405.59 654.29 510.07 522.90 680.80 499.37 585.59 629.22 561.65 729.60 708.63 708.96
00001318 00000082 436.43 227.87 401.73 660.61 511.42 521.47 686.28 501.95 588.76 632.06 558.23 733.91 708.14 716.79
00001319 00000083 440.33 228.21 398.89 666.22 518.44 518.49 696.66 502.12 599.47 630.89 558.48 735.53 712.09 721.41
00001320 00000084 436.30 227.19 403.15 658.19 519.97 515.44 699.35 500.67 603.30 624.94 557.67 728.16 712.31 715.23
00001321 00000085 429.38 227.44 406.06 651.67 513.48 510.27 694.64 499.76 595.05 620.84 551.23 727.32 702.15 717.81
00001322 00000086 414.73 231.71 408.03 641.89 502.55 511.65 680.10 501.74 584.37 622.44 545.52 728.28 688.02 719.20
00001323 00000087 406.84 237.44 407.17 649.66 492.66 522.12 668.50 508.67 578.63 633.27 535.21 736.85 681.13 725.31
00001324 00000088 390.06 237.97 417.35 666.43 480.46 534.57 659.34 516.95 572.33 645.48 528.70 754.13 671.77 740.29
00001325 00000089 374.96 243.48 415.51 671.98 469.52 544.52 653.44 527.20 566.14 651.61 518.34 762.78 659.50 749.55
00001326 00000090 351.69 262.94 422.90 658.25 456.02 556.88 640.02 537.74 553.47 666.90 506.35 776.83 652.86 758.51
00001327 00000091 341.31 263.26 428.00 668.81 443.32 563.67 628.73 543.41 544.34 677.98 497.80 785.12 649.79 766.29
00001328 00000092 333.77 270.74 426.77 669.69 435.22 572.28 623.15 550.30 539.66 689.96 488.99 793.21 646.53 773.70
00001329 00000093 321.79 276.57 435.04 673.36 431.44 583.21 623.12 559.73 543.47 703.43 483.95 799.86 646.75 779.36
00001330 00000094 316.94 280.88 435.83 678.90 429.76 596.57 621.65 569.65 545.19 715.51 481.92 808.06 648.07 785.12
00001331 00000095 312.69 288.03 436.40 677.07 426.57 604.97 620.88 576.00 546.15 722.69 478.92 815.22 647.21 790.90
00001332 00000096 313.96 297.83 435.30 676.04 426.92 608.90 620.88 578.95 547.64 727.55 479.60 821.10 648.65 796.04
00001333 00000097 317.48 303.54 435.93 676.33 431.28 612.12 623.86 582.69 550.98 731.38 483.69 824.64 651.56 799.95
00001334 00000098 319.48 302.70 439.16 678.11 438.27 609.85 630.79 582.67 557.49 733.13 493.33 827.34 653.85 804.67
00001335 00000099 331.65 300.40 433.82 684.33 453.91 606.80 647.87 584.29 571.51 723.27 504.02 829.85 662.53 810.01
00001336 00000100 344.65 295.64 433.47 692.56 469.67 604.37 659.59 580.96 587.35 719.96 521.46 832.51 674.74 811.90
00001337 00000101 370.79 282.55 425.54 693.18 485.25 597.12 677.86 578.32 602.57 712.04 531.68 816.55 693.23 801.43
00001338 00000102 381.64 279.95 428.76 685.89 495.83 588.35 688.04 568.32 611.54 703.24 541.70 806.35 706.28 789.18
00001339 00000103 391.50 272.32 429.68 693.79 509.30 578.42 699.62 560.19 624.65 696.99 549.96 798.51 717.96 782.09
00001340 00000104 404.51 265.20 425.20 684.43 518.75 569.23 707.20 552.70 628.52 683.29 561.80 789.80 722.37 774.55
00001341 00000105 417.95 265.24 419.18 668.50 530.98 563.70 718.82 546.82 640.08 670.60 571.77 780.26 729.84 764.69
00001342 00000106 431.76 262.06 418.17 658.74 543.91 559.56 735.27 543.31 653.84 669.93 584.53 777.35 741.82 762.22
00001343 00000107 455.43 257.61 410.65 658.46 558.56 553.97 748.31 542.33 662.67 657.68 599.62 764.01 753.84 754.20
00001344 00000108 466.44 255.28 406.45 656.38 570.15 545.14 757.92 535.13 676.83 650.78 610.25 759.53 762.06 751.10
00001345 00000109 468.80 254.28 410.65 645.38 570.63 537.61 762.27 526.70 678.24 644.10 610.61 751.50 768.85 742.25
00001346 00000110 465.58 247.35 413.43 652.99 567.68 536.29 753.63 520.64 672.00 639.75 607.79 747.02 766.70 733.81
00001347 00000111 463.32 244.16 415.00 655.42 559.72 532.66 742.39 517.66 657.93 637.24 598.87 742.14 758.50 729.61
00001348 00000112 462.35 239.29 418.32 661.22 552.39 531.69 736.66 516.14 646.35 637.30 590.01 741.03 752.93 728.06
00001349 00000113 463.28 233.50 418.65 665.89 550.75 527.37 735.46 514.64 640.01 634.94 585.08 738.09 747.71 727.56
00001350 00000114 472.36 232.33 414.74 652.03 553.33 522.65 740.84 512.90 637.45 634.44 586.01 732.94 750.87 724.20
00001351 00000115 483.55 230.74 408.74 645.70 560.47 520.81 745.13 514.50 640.65 635.48 593.93 730.59 754.21 723.83
00001352 00000116 493.08 229.63 407.44 639.08 569.39 520.76 758.80 514.14 652.97 640.40 606.38 733.60 766.06 726.31
00001353 00000117 505.57 229.33 406.45 646.13 580.28 528.73 774.07 521.41 662.71 648.66 612.67 737.94 777.76 730.28
00001354 00000118 515.35 234.25 403.97 652.92 591.25 534.66 777.64 528.80 669.04 658.55 620.53 744.49 780.46 738.33
00001355 00000119 525.42 228.29 409.03 662.80 597.91 537.32 788.20 536.82 681.24 662.52 625.10 745.23 789.42 744.44
00001356 00000120 527.61 232.52 409.83 658.82 598.80 538.20 787.86 539.03 679.04 665.79 626.78 747.93 788.14 748.44
00001357 00000121 526.66 236.42 410.39 653.15 593.53 540.79 784.37 541.80 672.80 667.85 622.97 749.32 784.54 750.15
00001358 00000122 525.24 234.58 409.50 653.45 585.73 540.72 777.27 539.71 664.73 667.43 616.27 748.95 780.07 748.18
00001359 00000123 524.36 231.70 407.33 654.80 577.57 542.27 764.93 536.93 652.27 663.70 611.54 750.25 771.89 745.83
00001360 00000124 518.14 232.90 410.30 656.62 570.78 542.20 755.05 533.28 643.33 664.04 605.82 751.04 765.66 743.85
00001361 00000125 513.42 236.44 411.19 663.41 566.77 543.80 744.81 534.48 634.06 668.85 601.05 758.25 753.85 750.80
00001362 00000126 504.62 240.25 414.20 662.47 557.80 546.50 734.76 535.82 621.49 667.48 591.46 759.65 744.30 751.14
00001363 00000127 493.46 249.99 415.58 660.17 548.50 547.75 725.68 539.15 607.37 666.57 584.63 758.08 741.27 749.36
00001364 00000128 487.82 249.80 414.09 666.73 546.01 545.57 720.22 537.29 603.02 666.20 585.12 763.96 732.51 755.92
00001365 00000129 484.57 244.75 415.26 678.57 542.57 545.57 714.99 535.28 599.04 664.88 583.32 768.55 727.10 758.97
00001366 00000130 483.53 240.14 411.27 669.09 541.28 539.82 713.65 530.91 600.67 658.92 581.31 760.94 722.67 752.55
00001367 00000131 480.25 227.92 410.23 673.92 539.62 526.00 716.36 517.77 602.85 647.07 576.80 750.49 724.44 743.16
00001368 00000132 475.61 218.15 416.90 682.07 542.23 510.28 720.16 497.50 607.51 622.31 577.02 733.85 734.32 722.13
00001369 00000133 476.19 205.87 423.88 673.28 541.06 497.21 723.90 482.83 609.43 605.39 575.95 721.66 719.61 710.17
00001370 00000134 471.79 207.20 418.64 660.60 541.77 480.50 720.16 468.71 604.71 582.80 566.90 707.81 714.35 697.74
00001371 00000135 464.76 200.87 418.72 665.31 534.13 476.03 711.75 462.22 597.06 570.84 556.79 702.00 700.30 690.42
00001372 00000136 460.34 197.58 420.83 660.18 525.14 475.51 704.88 461.76 587.32 570.76 547.49 699.49 689.52 687.95
00001373 00000137 457.96 200.88 422.11 651.30 518.81 478.03 702.57 461.78 584.90 577.61 547.07 702.65 691.94 688.70
00001374 00000138 457.95 198.52 425.58 660.06 518.17 478.53 701.53 459.91 583.64 579.90 550.07 704.94 698.82 688.40
00001375 00000139 459.75 195.59 433.38 673.44 518.81 486.47 700.54 459.36 573.41 581.03 553.44 710.55 703.02 688.53
00001376 00000140 453.54 192.68 436.41 680.57 514.48 488.13 697.81 456.42 569.07 582.02 550.72 711.43 708.48 685.36
00001377 00000141 445.56 187.56 430.66 682.41 509.22 479.93 694.18 456.66 576.35 576.72 545.63 703.91 700.72 685.41
00001378 00000142 435.26 179.21 429.72 680.40 501.56 477.32 681.28 450.64 568.35 573.45 541.74 698.45 691.90 676.50
00001379 00000143 426.08 178.62 440.29 676.45 489.65 478.36 663.34 442.66 543.46 565.07 535.07 693.95 689.46 662.99
00001380 00000144 416.04 191.71 439.33 656.96 478.88 482.49 645.83 429.34 538.35 563.40 545.63 691.89 701.90 644.91
00001381 00000145 419.28 177.08 439.55 672.96 488.00 484.82 647.88 425.89 554.29 562.11 558.09 686.75 701.94 636.49
00001382 00000146 431.29 177.61 443.61 665.39 508.14 488.02 654.64 426.45 570.64 567.99 587.83 684.51 727.18 630.58
00001383 00000147 449.71 165.33 448.07 662.58 525.78 480.35 672.72 418.05 591.86 565.92 606.81 676.29 742.96 621.74
00001384 00000148 471.67 149.29 443.54 675.66 538.71 452.22 697.61 402.47 603.73 549.74 614.51 663.69 762.01 620.61
00001385 00000149 489.51 137.62 439.05 672.12 556.60 441.70 721.82 400.63 622.96 547.38 626.81 652.37 776.97 615.42
00001386 00000150 509.62 130.70 439.70 675.65 570.96 441.59 740.79 396.74 632.83 542.97 627.66 647.27 790.40 608.00
00001387 00000151 529.97 124.60 435.30 673.61 589.95 434.82 757.48 393.23 649.06 532.48 643.90 639.75 802.00 603.80
00001388 00000152 547.84 124.04 429.79 672.99 608.09 424.15 773.78 395.60 664.49 531.42 654.25 628.49 812.42 602.81
00001389 00000153 557.56 126.95 418.48 667.27 622.64 418.85 787.32 397.24 681.17 528.25 663.82 625.51 827.14 603.32
00001390 00000154 563.16 126.57 421.12 664.28 633.18 417.58 801.52 402.30 691.46 527.10 666.74 618.69 834.68 601.25
00001391 00000155 571.65 127.98 418.67 658.19 641.06 414.58 810.03 404.82 697.00 527.05 671.72 615.66 837.69 603.25
00001392 00000156 577.86 130.05 414.85 652.53 646.84 416.92 818.28 409.33 704.61 528.73 672.70 613.65 840.02 603.69
00001393 00000157 578.93 132.59 412.80 651.92 647.84 420.77 820.73 415.49 706.15 530.91 670.27 613.96 839.77 606.03
00001394 00000158 581.78 134.73 411.12 655.97 648.91 423.33 821.43 418.12 706.03 534.62 670.63 616.63 840.95 608.76
00001395 00000159 589.65 130.22 411.82 666.05 652.12 421.32 832.56 419.09 719.78 538.34 674.14 618.95 845.84 617.10
00001396 00000160 590.01 131.10 418.31 663.02 650.78 421.12 832.86 411.67 708.27 541.87 671.65 622.94 847.69 614.04
00001397 00000161 597.87 125.28 415.09 667.86 654.73 416.69 834.01 409.40 708.11 539.71 675.05 619.10 847.76 612.36
00001398 00000162 605.06 122.12 412.28 663.66 658.91 414.00 839.85 409.35 715.59 539.26 679.89 617.17 849.56 613.21
00001399 00000163 608.87 118.67 413.76 667.98 671.17 411.19 842.42 411.13 727.17 532.45 696.10 612.36 855.10 611.30
CROP_BBOX: 57 0 1280 1080
