Video ID: 	5n8bPDVc5oA
H: 	1080
W: 	1920
FPS: 	29.97002997002997

FRAME INDEX X0 Y0 W H [Landmarks (5 Points)]

00004778 00000000 767.02 115.20 472.10 697.47 827.56 370.37 1030.31 368.17 872.89 484.06 837.54 626.47 987.09 627.13
00004779 00000001 763.38 113.38 468.70 690.39 814.42 375.60 1017.05 371.22 858.37 488.01 825.35 627.00 978.66 626.00
00004780 DELETE   752.91 117.29 475.98 680.72 805.44 376.28 1002.72 371.62 844.77 487.96 817.07 624.19 968.12 622.82
00004781 DELETE   739.26 116.41 481.10 680.55 796.10 375.39 992.30 371.92 831.68 491.34 806.57 624.45 958.35 624.02
00004782 00000004 729.50 117.71 480.66 676.68 788.84 372.46 986.27 369.13 824.43 491.07 801.07 622.32 952.60 621.96
00004783 00000005 723.16 119.42 481.90 672.31 783.45 370.07 981.54 365.06 820.68 487.43 798.31 619.99 947.90 618.23
00004784 00000006 719.61 121.65 485.62 664.23 782.88 369.50 980.52 362.88 820.40 484.31 798.06 617.29 942.63 614.38
00004785 00000007 717.92 122.97 485.22 659.17 782.85 368.07 980.21 362.88 821.54 483.25 797.82 613.43 942.03 611.62
00004786 00000008 717.64 122.12 483.46 654.44 781.07 368.05 979.23 363.61 821.59 483.70 795.05 609.57 943.30 608.29
00004787 00000009 716.68 123.34 482.55 649.22 778.76 368.97 978.00 363.88 820.66 484.11 793.13 607.46 944.91 605.48
00004788 00000010 715.52 124.21 481.19 649.34 777.76 370.41 976.39 365.05 819.53 485.61 792.82 609.07 945.13 606.70
00004789 00000011 715.00 126.17 480.50 654.65 777.69 371.44 975.91 365.70 818.02 487.83 793.61 613.50 946.39 610.68
00004790 00000012 714.24 127.97 480.69 656.65 777.15 372.74 975.10 366.84 817.44 489.45 793.53 615.99 946.95 612.95
00004791 00000013 712.12 128.75 482.59 660.66 775.39 372.97 973.40 367.06 814.90 488.70 791.80 616.79 944.54 613.71
00004792 00000014 710.47 126.66 482.28 667.96 774.62 372.68 972.71 366.28 812.81 487.42 791.71 618.36 943.43 614.65
00004793 00000015 709.52 126.51 481.20 662.63 771.66 373.46 969.99 365.50 809.26 485.88 789.68 616.26 941.25 611.21
00004794 00000016 709.89 125.09 476.73 656.99 766.37 373.93 967.98 364.64 806.47 487.62 783.76 615.18 941.82 608.83
00004795 00000017 711.39 119.06 476.27 657.08 762.66 376.15 964.82 361.23 802.55 480.65 782.88 612.83 936.40 601.97
00004796 00000018 709.50 115.70 476.92 655.38 762.13 374.76 962.13 360.13 800.89 479.40 783.41 608.99 936.36 598.25
00004797 00000019 706.25 125.32 476.67 644.34 760.13 368.62 960.01 359.98 797.44 484.86 779.68 606.32 934.86 600.72
00004798 00000020 704.94 125.92 477.29 643.55 758.92 366.64 957.86 358.11 794.08 479.82 777.11 603.34 931.12 597.77
00004799 00000021 703.15 124.36 477.62 640.85 756.12 365.84 955.89 356.01 791.47 475.19 773.97 601.87 929.54 595.27
00004800 00000022 706.93 112.61 474.57 651.40 758.25 365.91 955.46 348.82 792.73 463.59 779.78 601.08 928.81 588.02
00004801 00000023 706.59 106.81 474.81 657.56 759.80 364.38 957.02 346.11 794.64 460.95 780.80 600.33 930.31 586.49
00004802 00000024 702.69 119.03 483.48 650.45 760.61 361.52 957.97 349.21 794.67 467.31 777.68 601.73 928.21 593.09
00004803 00000025 704.61 119.93 483.19 654.61 762.24 362.33 959.99 349.35 796.46 468.87 780.02 604.16 931.35 595.00
00004804 00000026 707.00 118.40 481.00 657.19 764.11 362.69 962.60 350.84 799.30 471.42 781.41 604.63 934.51 596.40
00004805 00000027 710.15 119.77 478.60 653.85 765.60 364.08 964.74 353.35 802.19 474.92 782.06 604.64 937.12 597.42
00004806 00000028 713.41 118.87 476.63 651.68 766.79 365.39 966.15 356.09 803.68 477.92 781.64 603.31 939.26 597.24
00004807 00000029 716.04 120.47 477.58 646.85 770.32 365.79 967.66 359.72 806.90 481.79 784.45 601.30 941.86 598.05
00004808 00000030 717.85 119.54 475.66 648.73 773.78 368.79 971.37 362.71 811.55 483.04 786.33 603.55 943.67 600.39
00004809 00000031 716.90 120.66 478.29 648.98 775.18 371.49 972.80 364.92 815.02 484.34 788.91 605.93 945.37 602.47
00004810 00000032 718.07 120.07 478.04 652.49 777.35 371.63 974.53 366.17 816.95 485.63 789.82 608.15 945.57 605.67
00004811 00000033 718.74 117.82 479.81 661.76 779.97 369.26 977.32 365.84 817.71 487.94 791.83 611.78 946.66 611.19
00004812 00000034 720.92 117.14 481.78 671.23 785.86 369.24 980.92 366.67 819.96 487.07 796.86 614.52 947.11 614.89
00004813 00000035 723.17 114.51 483.20 685.03 790.73 368.72 984.10 367.49 822.04 487.97 800.21 618.58 947.78 620.13
00004814 00000036 727.72 113.31 484.33 694.10 795.38 368.50 988.00 367.97 824.91 487.55 803.77 619.76 954.10 621.76
00004815 00000037 734.83 114.02 480.95 691.45 799.23 370.84 992.72 369.75 830.52 487.86 807.03 621.56 958.56 623.11
00004816 DELETE   745.86 116.07 475.29 685.97 805.52 372.06 998.08 372.05 837.95 487.58 812.92 620.79 964.63 623.07
00004817 00000039 754.92 120.27 469.13 676.40 809.24 372.76 1006.10 375.22 846.69 491.37 816.24 618.64 974.13 622.72
00004818 00000040 760.87 119.86 467.64 679.40 814.67 374.63 1014.95 377.93 854.58 494.61 821.84 621.01 983.31 625.45
00004819 00000041 766.88 116.42 467.54 688.94 821.86 372.33 1026.30 378.61 864.16 494.79 826.62 622.44 990.64 629.44
00004820 00000042 770.52 120.56 471.98 686.15 828.85 372.79 1036.56 380.04 874.99 495.87 832.93 623.28 996.06 631.01
00004821 DELETE   769.35 122.86 478.58 680.17 838.86 376.97 1050.90 382.23 885.38 501.92 844.64 629.56 1009.81 635.25
00004822 DELETE   773.71 123.68 483.38 681.41 847.51 376.58 1055.07 383.64 891.80 500.84 850.91 626.01 1017.04 633.15
00004823 DELETE   778.38 124.17 483.64 685.16 856.03 376.05 1060.57 385.58 897.12 499.65 856.42 624.48 1017.57 634.22
00004824 00000046 782.99 126.18 485.77 690.67 862.83 373.87 1067.80 384.97 904.18 498.77 861.62 624.42 1025.23 635.85
00004825 00000047 788.65 123.31 484.78 691.45 868.92 369.79 1075.28 385.31 911.60 499.08 864.09 620.59 1030.74 635.95
00004826 DELETE   797.27 123.59 483.14 685.41 875.01 370.74 1080.58 387.42 917.23 498.14 869.53 618.19 1036.57 634.41
00004827 DELETE   807.61 121.85 479.38 681.05 881.13 371.90 1087.13 389.51 926.20 500.50 876.09 616.08 1043.17 633.19
00004828 DELETE   815.38 124.52 476.30 675.90 887.18 372.05 1095.96 392.04 933.84 501.02 881.28 613.60 1053.27 632.10
00004829 00000051 821.94 125.62 475.59 680.33 894.57 373.06 1105.03 391.05 945.07 500.44 889.91 618.06 1058.62 634.98
00004830 00000052 828.61 129.34 475.23 680.14 898.59 373.55 1114.51 391.45 955.05 503.95 894.14 621.22 1068.76 637.96
00004831 00000053 832.97 129.26 474.90 683.16 904.04 372.46 1121.56 391.85 962.26 505.00 898.84 620.07 1075.46 637.97
00004832 00000054 836.91 131.62 476.75 684.40 908.51 371.98 1126.34 391.04 966.77 506.03 905.30 623.84 1080.28 641.16
00004833 00000055 833.65 135.12 486.90 681.74 919.15 375.72 1138.27 392.84 972.68 508.75 916.28 632.01 1085.57 647.45
00004834 00000056 838.89 134.46 484.70 686.98 927.43 375.73 1142.42 393.89 975.93 508.06 921.63 630.94 1086.22 647.49
00004835 00000057 842.88 132.70 484.98 688.29 932.22 374.33 1145.92 394.83 979.88 507.38 924.45 625.71 1091.49 644.43
00004836 00000058 847.26 130.37 482.62 685.44 934.99 373.64 1148.44 395.48 985.60 507.64 927.77 622.53 1097.25 642.55
00004837 00000059 849.05 130.95 483.65 678.57 936.68 372.80 1150.98 395.12 989.00 507.13 929.98 620.48 1100.96 640.92
00004838 00000060 850.93 131.07 482.23 670.53 938.36 372.56 1153.22 395.51 992.38 506.20 931.81 617.16 1106.19 637.88
00004839 00000061 851.22 130.06 481.88 666.73 939.60 371.72 1153.82 394.68 993.71 504.39 932.54 613.87 1108.64 634.47
00004840 00000062 852.28 128.35 481.21 667.50 940.25 371.04 1154.39 393.91 992.79 502.75 932.67 613.19 1109.17 633.72
00004841 00000063 852.29 127.58 481.02 668.99 940.35 370.29 1153.55 392.96 991.75 500.76 932.56 612.71 1107.95 633.08
00004842 00000064 851.82 128.12 480.76 670.36 939.56 368.91 1152.29 391.83 990.35 500.19 931.81 612.75 1105.95 633.32
00004843 00000065 850.99 127.62 480.03 672.23 938.19 368.21 1150.50 391.09 987.82 500.03 930.81 613.33 1103.53 633.85
00004844 00000066 849.82 128.86 480.41 671.88 936.12 367.90 1149.10 390.93 985.75 499.94 928.81 613.65 1101.54 634.34
00004845 00000067 848.84 129.59 479.80 670.34 934.64 367.55 1147.91 390.46 984.46 499.58 927.87 613.74 1100.42 634.18
00004846 00000068 847.02 127.90 479.98 669.70 933.28 367.52 1146.30 390.03 983.58 499.47 927.54 613.23 1100.56 633.10
00004847 00000069 851.52 129.23 466.25 661.81 930.13 363.75 1145.48 387.77 979.38 495.02 918.10 608.27 1099.56 626.56
00004848 00000070 849.01 131.64 466.69 658.20 928.07 364.43 1144.14 387.59 978.88 493.71 915.20 607.34 1098.34 625.03
00004849 00000071 845.82 128.93 468.95 660.34 924.83 364.73 1142.37 386.66 977.66 492.77 913.36 607.67 1097.26 624.50
00004850 00000072 843.36 130.45 467.54 658.33 921.47 365.90 1138.56 385.74 976.86 492.26 911.19 607.76 1094.49 623.10
00004851 00000073 840.27 130.25 468.04 659.36 917.19 365.03 1133.03 383.89 974.01 492.09 909.72 607.81 1090.35 622.66
00004852 00000074 838.08 127.23 468.57 664.77 914.47 364.41 1128.33 382.55 970.44 491.67 908.64 608.07 1085.99 622.53
00004853 00000075 835.53 124.00 467.53 670.04 912.40 364.62 1125.23 382.27 968.56 492.93 906.32 608.63 1082.67 622.87
00004854 00000076 832.70 126.47 468.51 670.36 909.46 365.51 1123.48 382.40 966.22 492.89 903.65 610.67 1080.88 624.42
00004855 00000077 825.05 120.57 478.24 684.79 904.96 366.51 1122.61 381.94 965.82 488.89 903.75 614.36 1081.65 627.43
00004856 00000078 823.92 124.52 479.15 683.31 904.36 368.11 1121.52 383.62 965.84 490.69 903.66 615.94 1081.63 629.05
00004857 00000079 827.04 123.86 471.87 683.27 902.53 375.20 1115.49 388.39 962.12 496.71 900.21 618.18 1075.78 630.81
00004858 00000080 822.35 123.38 474.01 684.44 904.45 382.13 1115.59 393.91 963.26 497.90 899.40 620.06 1074.60 631.65
00004859 00000081 819.54 124.46 476.89 685.93 907.54 384.61 1117.64 397.45 967.27 499.87 899.86 620.65 1074.27 633.22
00004860 00000082 818.78 126.28 475.38 685.71 907.83 384.56 1118.29 397.61 970.92 502.71 901.27 621.73 1076.10 634.50
00004861 00000083 818.97 128.24 476.37 686.66 906.22 384.49 1120.88 396.90 972.92 505.03 901.17 624.19 1078.76 636.61
00004862 00000084 818.97 127.54 475.24 687.86 905.60 384.11 1122.04 395.50 974.74 505.58 902.21 625.27 1081.03 636.79
00004863 00000085 817.99 128.85 475.43 685.23 905.63 382.56 1123.72 394.58 976.90 505.92 903.01 624.31 1082.83 636.25
00004864 00000086 816.79 129.47 475.84 679.58 904.86 382.26 1123.90 393.61 978.92 504.99 903.58 622.69 1084.13 633.93
00004865 00000087 815.90 128.39 475.18 677.51 903.93 381.03 1122.34 392.48 978.67 503.37 902.87 620.17 1083.89 631.38
00004866 00000088 814.89 129.95 473.98 672.51 903.09 380.68 1119.93 391.01 977.24 500.35 902.36 618.31 1081.83 628.55
00004867 00000089 813.15 124.82 470.85 675.64 899.81 385.21 1114.19 393.26 973.21 499.46 896.90 619.26 1073.76 628.07
00004868 00000090 807.55 126.03 473.37 669.05 893.82 386.94 1105.75 395.97 963.14 498.91 889.46 616.80 1064.56 626.40
00004869 DELETE   802.56 121.68 476.00 669.38 884.03 384.05 1093.39 392.87 945.61 498.64 882.43 615.77 1054.95 625.15
00004870 00000092 795.62 124.15 475.62 666.01 873.61 377.78 1081.19 389.52 929.72 496.87 871.42 613.20 1043.23 624.94
00004871 DELETE   787.91 122.92 479.37 671.25 867.18 373.02 1073.75 385.76 917.16 496.25 865.35 614.42 1032.79 626.98
00004872 DELETE   781.26 123.65 481.41 674.77 862.05 373.78 1065.52 384.57 909.54 497.47 862.74 616.99 1026.14 627.68
00004873 00000095 777.27 123.36 479.89 672.49 858.14 373.88 1060.14 383.20 904.00 496.48 859.87 616.62 1020.26 625.90
00004874 00000096 774.51 122.50 479.08 670.62 852.97 374.69 1055.93 381.18 899.44 495.62 856.10 617.06 1017.81 623.91
00004875 00000097 771.96 122.02 477.69 667.09 846.80 374.64 1052.53 379.97 894.74 496.09 850.73 617.39 1016.88 623.13
00004876 00000098 773.50 117.20 471.90 663.71 838.29 377.24 1047.79 378.45 888.74 493.21 847.46 614.81 1010.49 616.97
00004877 00000099 769.50 118.41 470.83 662.75 833.14 377.06 1043.58 377.65 884.07 494.84 843.11 615.46 1007.78 616.88
00004878 00000100 765.90 121.86 470.14 658.88 827.53 380.25 1036.53 378.31 876.65 496.32 839.37 617.35 1002.67 616.48
00004879 00000101 764.11 120.89 468.84 669.09 823.54 374.82 1026.51 379.07 870.59 494.86 832.44 610.54 999.68 614.86
00004880 00000102 760.83 122.70 467.34 665.95 818.34 376.53 1019.83 379.47 863.94 495.48 827.22 611.51 993.81 615.04
00004881 00000103 757.24 122.82 467.55 670.07 814.96 378.04 1013.23 379.67 856.60 494.47 822.92 614.80 986.95 617.53
00004882 00000104 755.48 124.80 467.93 673.93 814.15 377.28 1007.87 378.49 849.87 493.25 822.24 617.50 981.00 620.02
00004883 00000105 751.75 126.14 469.35 675.36 811.32 377.81 1003.87 377.93 845.03 493.18 818.72 619.13 977.44 620.87
00004884 00000106 746.73 125.40 472.06 675.57 807.36 379.39 1000.36 379.45 840.99 494.33 814.34 619.48 973.32 621.32
00004885 00000107 742.52 124.78 471.88 674.38 802.81 380.40 997.29 379.56 838.67 494.54 810.26 619.62 971.07 620.77
00004886 00000108 739.12 124.47 474.50 671.10 799.42 381.77 994.37 379.35 835.95 495.22 808.23 619.50 970.87 619.20
00004887 00000109 736.50 123.54 473.07 665.54 796.00 381.73 992.56 379.73 833.85 496.42 805.53 618.59 969.63 618.55
00004888 00000110 733.69 122.43 474.11 664.49 793.84 381.59 990.79 379.23 830.90 496.53 803.61 618.06 967.55 617.71
00004889 00000111 731.67 123.78 474.31 666.52 793.37 379.79 989.23 377.90 828.00 496.02 802.85 617.56 966.21 617.61
00004890 00000112 729.92 121.83 474.87 670.07 792.97 379.08 986.89 377.29 824.86 495.88 802.82 617.70 965.32 617.78
00004891 00000113 728.88 122.30 477.12 671.60 792.42 378.54 986.21 376.54 823.20 495.24 802.65 618.76 963.81 618.81
00004892 00000114 727.90 122.04 477.25 672.55 791.32 377.28 985.78 375.86 823.06 495.90 801.37 619.29 961.58 619.96
00004893 00000115 727.49 122.28 477.97 672.24 790.80 377.30 985.71 376.42 822.66 496.71 800.34 620.01 960.68 621.19
00004894 00000116 728.90 123.42 475.73 669.24 791.02 378.71 986.85 378.84 823.95 497.97 799.20 619.61 961.14 621.57
00004895 00000117 731.03 124.30 474.13 668.65 792.72 380.24 989.03 380.51 827.16 498.30 800.75 620.36 962.05 622.47
00004896 00000118 733.11 125.66 476.82 669.38 796.33 381.53 992.66 381.59 832.08 498.80 803.57 622.93 961.63 625.12
00004897 00000119 734.62 127.14 477.44 668.97 797.92 382.16 996.23 384.25 836.84 502.09 804.22 622.44 966.18 626.22
00004898 00000120 739.00 127.55 477.69 673.72 802.07 380.46 1000.37 386.38 839.03 505.31 806.03 622.91 968.06 629.85
00004899 00000121 743.56 129.16 476.54 683.25 806.67 382.07 1003.05 387.79 841.79 506.95 809.20 628.52 968.18 635.41
00004900 00000122 750.10 131.85 471.32 690.09 811.14 382.28 1008.04 388.76 844.43 508.52 811.97 634.14 967.49 641.81
00004901 00000123 754.14 133.19 472.33 692.81 814.61 382.87 1013.76 390.09 849.81 509.91 816.97 634.90 976.47 642.81
00004902 00000124 757.45 131.28 475.54 693.34 817.63 382.90 1017.34 390.82 853.92 509.92 821.50 632.62 982.74 640.90
00004903 00000125 758.97 127.97 478.33 689.58 820.08 382.42 1021.55 391.02 859.56 508.74 824.88 627.62 988.19 636.18
00004904 00000126 760.99 127.42 479.66 683.20 822.60 381.05 1026.29 389.32 864.37 506.69 828.55 624.44 993.79 632.57
00004905 00000127 763.11 126.23 479.33 680.84 825.92 379.79 1031.40 387.31 870.12 502.07 831.69 621.54 998.34 628.84
00004906 00000128 765.56 128.07 476.76 677.78 829.57 378.00 1034.36 386.05 874.69 499.84 834.02 619.17 999.25 626.83
00004907 00000129 768.34 129.10 477.27 674.24 832.68 375.13 1038.18 384.07 878.57 498.46 836.39 618.06 1001.30 626.34
00004908 00000130 764.82 128.55 481.09 668.07 836.27 377.38 1045.87 383.42 881.76 501.91 842.52 624.45 1006.66 630.53
00004909 00000131 766.92 129.92 481.55 663.71 838.78 377.44 1047.59 383.51 885.25 501.34 844.68 622.76 1009.84 628.81
00004910 00000132 770.03 127.90 482.80 663.45 841.23 376.63 1049.40 383.46 887.78 501.05 846.43 620.11 1014.20 626.75
00004911 00000133 774.41 127.03 481.40 663.46 845.81 376.84 1052.19 384.39 891.41 501.61 850.08 618.26 1018.87 625.45
00004912 00000134 776.87 128.79 481.61 665.74 849.68 378.15 1053.99 385.29 894.28 501.77 854.29 620.85 1020.51 627.98
00004913 00000135 779.90 126.96 481.61 678.72 855.12 379.02 1056.74 385.01 896.15 501.52 858.82 624.17 1024.19 630.58
00004914 00000136 782.34 127.20 482.17 683.34 857.88 379.84 1058.55 385.91 898.07 501.42 860.97 626.14 1025.80 632.77
00004915 00000137 785.30 128.35 482.97 684.78 859.93 379.67 1061.32 385.68 899.17 501.11 861.77 626.63 1026.68 633.52
00004916 00000138 787.92 129.63 482.22 682.79 862.87 378.09 1065.21 385.77 903.27 501.11 862.73 625.15 1027.27 633.75
00004917 00000139 791.32 129.97 480.42 678.91 865.85 377.09 1068.06 386.69 906.04 500.83 864.34 622.91 1028.83 633.14
00004918 00000140 792.91 128.14 480.38 677.12 867.94 376.79 1069.53 387.11 908.06 500.25 865.83 621.43 1029.08 632.33
00004919 00000141 795.87 128.72 477.56 673.36 869.11 376.75 1071.40 387.82 908.99 500.48 866.92 621.24 1030.64 632.74
00004920 00000142 798.88 128.13 476.24 670.90 870.51 376.42 1072.64 389.03 910.03 501.42 868.02 619.92 1033.29 632.55
00004921 00000143 801.47 127.14 474.72 669.69 872.15 376.46 1073.77 390.12 912.18 501.91 869.55 618.29 1036.16 631.66
00004922 00000144 803.02 127.33 473.14 667.63 873.66 376.18 1075.17 390.45 914.28 501.82 870.79 616.96 1037.82 630.81
00004923 00000145 804.74 126.23 473.61 669.16 874.98 375.53 1076.78 390.51 915.80 501.15 871.79 616.29 1039.00 630.76
00004924 00000146 805.66 126.21 472.56 670.16 876.16 375.05 1077.59 389.97 916.67 499.84 872.59 616.17 1039.30 630.57
00004925 00000147 806.93 126.54 472.34 671.89 876.94 375.57 1078.68 389.20 918.30 499.14 874.12 618.56 1037.40 632.16
00004926 00000148 807.63 126.34 472.54 677.05 877.65 374.96 1079.46 388.68 918.88 498.62 873.78 620.03 1036.40 633.92
00004927 00000149 808.60 126.61 473.40 680.88 879.23 375.50 1080.79 389.19 919.61 500.83 875.54 621.55 1037.52 635.46
00004928 00000150 808.92 127.57 474.56 683.70 880.02 376.47 1082.72 390.26 921.28 503.96 876.77 624.04 1039.56 638.08
00004929 00000151 808.76 128.87 474.70 686.53 880.89 377.56 1084.68 391.79 923.23 507.44 877.59 626.08 1041.49 640.48
00004930 00000152 809.60 131.62 473.49 686.26 881.26 378.88 1087.04 392.94 925.63 510.30 877.79 628.49 1043.06 642.79
00004931 00000153 811.11 132.91 472.37 687.13 882.00 381.21 1089.76 394.24 928.86 511.59 877.78 630.98 1044.74 644.54
00004932 00000154 813.13 134.40 472.11 689.04 883.35 382.57 1091.83 395.11 931.75 511.48 879.37 633.27 1046.59 646.42
00004933 00000155 815.07 134.31 473.16 693.13 885.93 383.18 1093.10 394.52 932.99 510.49 882.43 636.20 1048.01 648.35
00004934 00000156 817.51 135.22 472.20 693.66 888.24 382.89 1093.72 393.50 934.69 508.76 886.10 635.51 1052.06 646.78
00004935 00000157 820.10 134.80 471.06 694.22 891.01 382.06 1095.92 391.05 937.42 506.92 891.37 634.96 1057.89 644.55
00004936 00000158 820.39 132.09 471.00 691.91 893.33 380.34 1099.45 391.06 942.57 505.60 892.45 629.63 1060.21 640.76
00004937 00000159 818.32 129.32 471.41 684.22 893.56 379.46 1101.69 390.01 947.85 503.89 893.79 624.48 1061.75 635.52
00004938 00000160 817.50 128.41 472.49 681.48 892.88 378.11 1103.48 390.59 950.31 504.39 892.08 620.80 1063.87 633.33
00004939 00000161 817.16 128.90 472.89 680.11 893.12 377.99 1103.92 389.99 951.07 503.89 892.42 621.43 1062.81 633.65
00004940 00000162 815.45 128.87 473.59 679.39 891.25 378.31 1102.17 388.61 949.54 504.00 891.82 623.51 1060.53 634.48
00004941 00000163 814.16 125.70 471.90 681.32 887.47 379.30 1098.43 389.31 945.09 504.35 887.16 623.61 1055.95 634.64
00004942 00000164 808.98 123.64 475.05 679.46 882.62 378.45 1094.90 389.48 940.01 505.01 882.02 620.77 1054.34 632.55
00004943 00000165 805.16 124.85 477.03 676.97 878.12 379.49 1089.13 389.72 934.09 506.81 879.33 621.37 1051.56 632.35
00004944 00000166 797.75 128.22 481.16 678.51 876.11 387.48 1080.34 395.92 927.88 506.96 874.33 622.55 1045.12 631.79
00004945 DELETE   789.65 130.07 489.55 680.81 873.28 392.34 1075.14 400.45 923.66 508.21 871.43 625.17 1041.54 633.94
00004946 DELETE   783.96 132.44 490.20 679.18 867.57 392.26 1070.74 398.74 918.43 508.93 868.47 627.01 1037.58 634.32
