Video ID: 	mJNNeVXrhT4
H: 	1080
W: 	1920
FPS: 	25.0

FRAME INDEX X0 Y0 W H [Landmarks (5 Points)]

00013465 00000000 1110.62 313.57 502.54 612.90 1220.49 460.85 1424.23 549.03 1232.60 665.92 1165.08 717.68 1313.59 792.95
00013466 00000001 1112.09 325.02 503.66 605.08 1230.16 467.77 1427.98 560.83 1237.09 669.50 1168.78 717.44 1315.77 796.16
00013467 DELETE   1114.02 327.79 513.49 611.42 1232.83 465.22 1433.27 557.91 1240.26 663.36 1180.15 721.92 1323.93 798.93
00013468 00000003 1128.50 315.94 494.04 622.47 1246.32 470.76 1444.26 557.35 1259.27 670.57 1189.06 730.02 1333.20 803.25
00013469 DELETE   1130.41 319.61 508.54 645.81 1254.21 471.85 1452.57 558.98 1267.07 663.93 1199.98 737.53 1344.23 810.90
00013470 00000005 1135.36 329.95 504.72 643.64 1261.15 478.49 1463.11 561.04 1280.95 667.31 1210.33 750.08 1352.86 819.50
00013471 00000006 1134.75 322.29 511.30 648.23 1265.82 477.48 1470.10 562.03 1287.09 667.12 1210.57 745.88 1355.38 817.34
00013472 00000007 1131.26 311.85 517.35 648.91 1263.28 473.09 1470.76 562.90 1286.58 666.12 1206.89 731.81 1363.34 807.46
00013473 00000008 1132.15 311.69 519.73 638.28 1261.71 470.60 1473.66 563.23 1285.76 670.58 1205.73 726.65 1372.71 804.26
00013474 00000009 1127.97 311.26 525.24 637.22 1262.97 472.85 1473.98 569.27 1288.32 675.10 1203.78 725.88 1377.13 806.67
00013475 00000010 1123.51 317.72 527.89 632.45 1262.12 476.11 1475.87 572.82 1293.63 680.15 1202.87 728.03 1384.92 809.13
00013476 00000011 1126.54 322.21 526.39 634.52 1259.57 480.83 1474.28 576.67 1295.01 689.91 1207.42 734.75 1391.96 815.09
00013477 00000012 1127.39 304.56 520.49 657.46 1265.80 485.64 1475.16 584.50 1299.33 686.25 1208.90 729.91 1395.85 812.74
00013478 DELETE   1129.62 277.06 524.68 674.17 1272.92 478.43 1485.48 576.06 1307.49 673.61 1208.09 718.76 1395.08 801.26
00013479 DELETE   1133.41 291.18 520.43 654.36 1274.14 464.76 1487.85 556.07 1309.98 658.32 1213.59 707.82 1404.60 784.65
00013480 DELETE   1135.70 277.09 518.84 644.94 1273.31 449.70 1490.15 540.75 1312.87 640.98 1219.80 697.26 1401.77 774.37
00013481 00000016 1134.23 273.22 533.14 644.27 1264.76 444.00 1492.36 524.08 1315.22 632.09 1223.02 701.98 1407.66 769.06
00013482 DELETE   1126.11 256.81 537.98 664.11 1264.66 446.71 1491.52 526.48 1317.57 633.77 1221.59 701.56 1406.80 768.95
00013483 DELETE   1119.95 282.71 527.14 643.43 1259.70 458.47 1481.20 550.76 1302.24 653.28 1210.21 702.80 1392.44 780.62
00013484 00000019 1116.20 316.84 519.75 611.75 1254.23 463.81 1468.37 554.53 1290.18 661.87 1196.99 708.48 1375.87 784.88
00013485 00000020 1116.05 302.71 521.72 622.08 1251.87 462.08 1466.02 552.46 1288.13 658.99 1198.26 706.78 1374.12 782.85
00013486 00000021 1117.14 303.49 518.67 617.33 1251.65 457.95 1468.37 542.51 1291.79 652.90 1201.40 706.74 1372.15 778.03
00013487 00000022 1122.47 310.04 512.68 612.61 1251.90 457.43 1470.06 536.73 1293.89 650.83 1203.66 711.80 1370.29 778.72
00013488 00000023 1128.74 304.38 509.70 621.10 1255.72 459.23 1472.14 543.03 1292.83 658.36 1204.99 712.93 1372.46 783.77
00013489 00000024 1132.31 315.49 510.79 622.94 1259.90 467.28 1477.59 550.47 1299.05 666.41 1209.50 723.12 1382.66 793.14
00013490 00000025 1138.14 309.85 507.22 641.03 1261.82 474.09 1481.29 553.06 1308.79 675.74 1218.94 737.74 1391.15 804.33
00013491 00000026 1141.52 309.12 508.42 630.08 1268.03 477.02 1488.98 557.22 1317.32 679.04 1221.57 736.11 1396.82 803.67
00013492 00000027 1147.55 323.81 505.48 606.31 1275.77 474.52 1492.51 557.08 1321.27 680.28 1225.10 724.98 1402.40 794.20
00013493 00000028 1154.70 318.13 504.96 605.58 1279.84 470.37 1493.70 551.26 1322.48 672.25 1232.03 719.04 1404.96 787.07
00013494 00000029 1160.46 335.48 497.55 586.90 1288.60 467.45 1501.64 544.92 1320.90 662.28 1226.27 718.76 1402.45 783.39
00013495 00000030 1165.88 327.12 493.42 593.55 1293.75 465.71 1505.58 547.72 1326.01 660.09 1229.15 715.18 1404.82 783.63
00013496 00000031 1173.25 316.87 495.12 605.96 1297.95 464.38 1512.06 548.46 1330.05 662.12 1233.85 714.85 1410.46 785.50
00013497 00000032 1175.79 321.23 493.85 606.77 1303.05 464.62 1517.17 545.17 1336.34 658.82 1239.70 717.10 1415.36 784.63
00013498 00000033 1176.66 309.35 500.68 626.16 1315.11 458.76 1523.84 539.17 1354.16 655.05 1254.17 715.61 1425.99 784.59
00013499 00000034 1174.04 297.08 502.22 633.72 1307.59 453.22 1520.67 527.58 1355.16 644.47 1256.64 715.30 1426.37 779.32
00013500 00000035 1171.04 282.34 505.04 637.26 1296.55 452.31 1520.73 520.74 1353.97 636.34 1249.45 711.03 1426.59 769.44
00013501 DELETE   1168.83 270.65 497.09 634.10 1288.73 447.36 1511.04 518.96 1343.66 635.26 1247.58 701.30 1422.93 762.40
00013502 DELETE   1158.57 280.97 498.15 628.63 1277.56 452.16 1500.87 517.61 1337.04 638.10 1243.71 707.61 1417.62 763.53
00013503 00000038 1146.85 275.89 506.58 633.08 1266.85 449.25 1493.29 519.12 1327.11 639.27 1233.32 707.85 1409.29 767.21
00013504 00000039 1143.00 282.33 505.81 620.58 1259.67 448.27 1487.23 521.28 1318.66 639.60 1229.91 706.85 1403.68 768.16
00013505 00000040 1141.38 275.62 501.66 621.93 1255.69 445.04 1482.49 515.91 1313.17 633.74 1224.88 706.63 1394.42 766.09
00013506 00000041 1143.73 272.97 500.92 622.32 1252.58 439.31 1479.32 508.29 1309.25 630.61 1222.95 706.50 1390.72 764.43
00013507 00000042 1143.40 275.16 503.12 620.37 1252.93 438.42 1478.99 507.91 1308.77 631.35 1223.09 706.47 1390.20 764.79
00013508 00000043 1140.41 281.87 498.50 617.55 1252.24 442.51 1478.11 514.63 1306.70 637.51 1221.67 707.31 1388.64 767.94
00013509 00000044 1138.82 293.55 496.37 611.15 1247.78 449.70 1469.67 515.80 1302.52 638.36 1221.59 714.05 1386.65 769.49
00013510 00000045 1138.29 294.08 496.18 612.25 1246.19 450.50 1468.34 517.63 1298.47 639.63 1220.03 714.76 1384.21 771.00
00013511 00000046 1137.80 279.63 493.61 627.33 1244.92 446.78 1466.93 515.39 1296.76 639.54 1217.93 713.01 1382.17 770.97
00013512 00000047 1139.54 287.86 488.00 614.90 1244.47 445.31 1466.39 511.68 1297.58 637.40 1217.16 711.97 1381.48 767.80
00013513 00000048 1138.90 288.65 490.04 611.52 1244.61 443.93 1468.38 510.81 1298.90 636.59 1217.09 710.39 1381.63 766.60
00013514 00000049 1139.82 285.02 490.74 614.12 1242.47 443.29 1463.78 508.77 1294.24 635.23 1216.18 709.19 1380.70 764.18
00013515 00000050 1135.06 275.75 494.67 623.81 1239.32 442.91 1460.79 506.23 1292.45 632.95 1215.18 709.19 1378.80 762.65
00013516 00000051 1131.94 275.90 498.77 622.81 1237.45 442.57 1459.44 505.45 1289.99 632.24 1213.29 708.40 1377.79 761.28
00013517 00000052 1129.35 275.15 501.65 624.32 1236.16 441.34 1458.89 502.84 1290.13 629.60 1212.31 708.43 1377.36 760.26
00013518 00000053 1127.55 275.17 507.34 627.46 1236.64 440.46 1460.11 499.16 1292.43 627.99 1214.02 711.08 1377.86 760.56
00013519 00000054 1126.07 269.83 504.94 629.58 1232.60 439.63 1458.01 495.58 1293.14 621.55 1214.81 709.94 1379.98 757.04
00013520 00000055 1122.18 264.96 502.23 632.42 1229.67 432.31 1452.22 485.50 1289.28 611.81 1213.06 703.67 1378.17 747.76
00013521 00000056 1116.48 219.80 505.71 670.49 1226.09 426.40 1446.44 478.22 1286.54 603.54 1212.58 692.97 1380.77 736.75
00013522 00000057 1110.84 204.18 504.96 678.58 1211.25 418.75 1435.10 463.65 1274.48 599.06 1204.48 689.22 1379.73 726.97
00013523 00000058 1104.34 197.23 512.16 678.43 1200.81 420.55 1424.36 460.13 1266.40 594.82 1199.63 687.69 1381.41 720.62
00013524 00000059 1105.71 209.62 509.07 672.99 1196.89 425.41 1412.96 460.95 1257.07 592.39 1200.38 686.67 1375.53 716.37
00013525 00000060 1102.88 223.65 511.10 672.37 1184.80 428.87 1404.19 463.25 1243.25 599.99 1193.29 698.54 1367.27 727.34
00013526 DELETE   1097.67 241.62 517.72 664.36 1178.67 429.11 1399.82 463.16 1236.69 609.46 1187.77 704.28 1362.18 732.85
00013527 00000062 1087.95 251.37 526.30 651.77 1170.74 425.08 1397.90 462.35 1228.53 608.73 1174.51 696.41 1357.77 727.20
00013528 00000063 1082.55 254.83 527.26 632.36 1167.32 417.80 1391.83 456.89 1219.83 592.44 1165.76 677.13 1353.05 709.32
00013529 00000064 1081.82 239.11 523.84 637.54 1163.12 413.64 1382.07 450.78 1211.07 586.70 1164.97 668.80 1347.95 699.44
00013530 00000065 1075.39 233.56 525.25 638.97 1160.40 410.74 1379.99 448.50 1208.51 579.98 1163.92 663.98 1344.06 695.06
00013531 00000066 1075.24 220.67 519.68 645.23 1156.81 404.80 1371.88 442.15 1202.73 573.15 1161.36 660.56 1335.40 691.02
00013532 00000067 1073.88 236.35 515.67 625.83 1157.33 402.35 1368.86 439.67 1199.20 568.14 1160.90 660.29 1325.05 691.05
00013533 00000068 1068.05 234.58 511.22 629.13 1151.94 400.43 1361.88 438.54 1191.64 565.90 1154.39 663.74 1309.82 695.66
00013534 00000069 1063.13 235.13 511.44 632.16 1147.18 398.02 1355.99 435.95 1185.16 563.85 1147.33 665.14 1303.16 696.91
00013535 00000070 1061.20 229.35 508.55 635.70 1144.34 394.15 1348.33 432.39 1175.25 559.08 1143.27 664.49 1291.47 696.82
00013536 00000071 1057.74 220.64 505.48 641.34 1135.30 390.78 1340.11 430.79 1166.00 560.76 1135.92 661.37 1288.10 695.09
00013537 00000072 1055.48 216.19 505.14 643.21 1129.94 388.13 1336.35 427.58 1162.31 561.69 1132.55 660.30 1286.20 693.57
00013538 00000073 1051.15 222.26 505.12 633.51 1127.78 388.79 1332.37 427.63 1160.01 561.20 1132.34 658.96 1280.94 691.64
00013539 00000074 1049.89 230.55 503.06 623.97 1125.64 391.17 1328.50 428.16 1156.30 560.67 1132.00 661.22 1275.93 692.32
00013540 00000075 1050.18 242.82 499.51 611.90 1125.58 391.51 1327.93 430.45 1152.54 560.67 1129.57 660.59 1273.16 693.15
00013541 00000076 1049.75 248.57 503.49 608.35 1127.26 395.73 1331.00 437.28 1157.45 560.50 1125.67 666.02 1281.66 703.64
00013542 00000077 1050.19 247.65 503.44 609.71 1128.12 398.06 1331.45 438.44 1158.18 560.17 1125.72 666.57 1280.87 703.09
00013543 00000078 1048.23 243.38 505.73 617.23 1124.11 396.11 1330.28 432.73 1153.72 562.11 1128.77 666.43 1276.03 697.21
00013544 00000079 1050.18 241.86 504.78 621.47 1125.59 400.05 1331.57 433.99 1156.97 564.08 1131.00 670.92 1277.74 699.44
00013545 00000080 1052.42 240.61 508.27 630.21 1129.57 399.25 1338.11 433.26 1163.14 564.08 1133.67 672.68 1285.78 701.18
00013546 00000081 1052.52 234.72 513.98 653.68 1134.76 394.44 1343.59 425.64 1170.41 561.35 1139.24 677.43 1296.00 703.45
00013547 00000082 1055.81 233.55 515.74 666.87 1139.56 395.30 1347.79 424.88 1176.73 561.37 1145.07 683.48 1307.37 707.86
00013548 00000083 1060.23 235.93 515.41 657.16 1145.64 395.32 1352.60 429.71 1181.77 563.04 1149.40 676.75 1311.93 705.06
00013549 00000084 1064.51 242.82 506.92 622.37 1145.21 402.07 1355.26 438.78 1183.95 566.94 1145.50 667.13 1306.04 697.67
00013550 00000085 1064.86 243.59 507.02 612.61 1146.59 399.92 1357.66 443.77 1183.63 568.89 1142.03 656.94 1303.97 693.67
00013551 00000086 1066.88 246.78 504.83 609.11 1148.57 399.05 1357.70 443.15 1184.17 566.27 1141.31 658.38 1299.90 695.47
00013552 00000087 1064.44 237.60 505.31 624.89 1151.43 396.27 1358.13 441.02 1185.89 562.83 1141.92 661.85 1293.86 699.87
00013553 00000088 1067.52 240.61 502.30 621.15 1154.82 396.49 1360.32 438.14 1190.97 560.90 1147.58 665.31 1294.91 700.62
00013554 00000089 1072.03 234.68 502.62 626.01 1157.10 392.09 1363.09 434.83 1195.80 561.67 1151.63 665.30 1300.03 701.30
00013555 00000090 1077.91 235.51 501.68 622.30 1163.29 399.32 1371.28 437.83 1206.68 560.26 1150.94 668.68 1313.31 703.38
00013556 00000091 1082.87 234.91 506.05 623.89 1167.44 397.04 1375.52 438.65 1210.27 561.50 1159.92 669.28 1314.12 703.74
00013557 00000092 1091.36 233.91 504.59 622.58 1175.73 405.01 1387.18 446.76 1223.91 568.48 1169.15 670.68 1326.70 705.50
00013558 00000093 1098.60 233.24 500.05 626.68 1183.89 408.16 1395.55 450.89 1234.15 574.60 1177.73 673.25 1335.51 709.18
00013559 00000094 1101.83 225.87 503.83 646.60 1188.21 409.94 1403.89 449.39 1243.16 576.99 1184.31 678.06 1349.37 711.51
00013560 00000095 1107.44 228.30 504.13 662.89 1195.98 410.06 1410.86 446.25 1247.99 578.12 1195.46 686.58 1357.39 717.36
00013561 00000096 1113.21 224.68 500.57 665.36 1202.83 411.76 1417.22 449.27 1256.44 578.64 1199.96 684.17 1359.65 716.39
00013562 00000097 1114.68 228.13 504.95 647.99 1211.14 409.36 1425.25 456.87 1260.97 580.14 1202.50 675.59 1359.82 715.83
00013563 00000098 1123.20 232.91 499.58 643.24 1216.96 411.47 1428.01 456.65 1263.70 579.73 1208.49 677.94 1361.37 716.55
00013564 00000099 1125.65 239.11 499.98 640.61 1217.32 411.04 1431.52 459.64 1264.14 582.79 1206.46 679.87 1363.09 721.03
00013565 00000100 1123.91 234.90 503.20 651.58 1216.97 409.67 1431.99 459.36 1263.06 585.24 1205.48 683.16 1362.66 725.21
00013566 00000101 1120.16 234.18 504.02 658.74 1215.65 410.11 1431.24 458.99 1262.07 585.36 1203.67 683.52 1365.31 724.97
00013567 00000102 1115.54 228.22 505.32 666.59 1211.08 407.82 1426.04 455.44 1257.10 586.66 1201.78 684.33 1363.22 724.71
00013568 00000103 1114.10 230.46 506.82 660.28 1204.23 408.72 1421.87 455.93 1251.39 588.92 1197.40 682.75 1362.52 722.70
00013569 00000104 1112.00 227.23 507.51 649.20 1200.90 409.24 1420.35 458.08 1248.78 590.76 1193.63 676.56 1362.31 717.84
00013570 00000105 1110.78 238.56 506.96 635.20 1198.18 410.12 1419.85 461.63 1245.68 591.82 1190.25 676.16 1359.69 719.27
00013571 00000106 1114.49 239.73 496.35 635.66 1198.97 412.55 1417.14 456.06 1250.92 588.74 1190.97 680.95 1355.64 717.98
00013572 00000107 1112.87 241.96 495.97 641.85 1198.45 411.94 1415.34 453.57 1249.01 586.67 1192.60 685.63 1352.33 721.34
00013573 00000108 1112.66 239.08 496.48 653.83 1196.53 412.10 1413.09 452.65 1246.55 587.45 1192.27 690.01 1353.25 724.79
00013574 00000109 1112.80 240.61 494.91 652.73 1196.16 411.86 1414.14 451.92 1247.31 589.17 1193.36 691.87 1356.41 726.17
00013575 00000110 1112.92 242.65 496.34 650.70 1196.80 411.68 1416.70 453.37 1249.09 591.69 1193.31 691.85 1358.76 727.40
00013576 00000111 1112.71 242.47 496.66 646.94 1197.33 412.30 1416.76 455.31 1249.10 590.95 1192.49 688.83 1358.60 725.37
00013577 00000112 1111.41 240.57 496.98 645.80 1197.33 411.96 1416.20 454.67 1249.77 590.61 1191.41 686.84 1358.06 723.25
00013578 00000113 1111.33 244.14 497.45 643.17 1197.72 412.74 1416.90 456.29 1249.11 590.19 1191.28 686.83 1358.72 723.77
00013579 00000114 1110.31 245.06 498.64 642.57 1196.51 413.13 1416.18 457.02 1248.06 591.04 1188.73 687.01 1356.57 724.31
00013580 00000115 1108.16 239.96 502.88 647.66 1196.06 413.82 1416.00 457.77 1247.68 592.68 1188.00 687.74 1354.40 725.19
00013581 00000116 1106.61 225.48 503.78 657.96 1191.18 415.56 1413.55 460.58 1242.79 596.88 1183.12 689.32 1349.30 728.05
00013582 00000117 1106.01 224.75 502.33 657.35 1186.10 418.39 1413.27 464.51 1240.69 603.17 1178.37 691.38 1347.83 731.22
00013583 00000118 1098.96 236.61 512.21 661.50 1184.21 425.09 1412.06 471.68 1239.68 608.07 1178.09 698.31 1350.66 738.36
00013584 00000119 1101.12 244.49 506.57 661.35 1186.81 434.70 1411.54 480.96 1239.40 615.91 1183.04 714.62 1341.15 754.46
00013585 00000120 1100.75 262.51 501.33 655.54 1190.77 452.14 1419.00 502.86 1247.58 630.99 1182.08 723.06 1350.76 766.40
00013586 DELETE   1097.20 280.57 502.42 647.27 1204.42 463.32 1427.90 518.81 1264.88 644.16 1190.61 725.78 1358.97 772.82
00013587 DELETE   1104.46 287.87 493.60 649.55 1219.43 468.89 1430.02 517.24 1278.37 644.23 1202.16 725.69 1371.67 767.07
00013588 DELETE   1107.55 300.67 501.23 650.89 1228.90 467.96 1448.12 517.14 1295.08 645.81 1204.46 733.44 1381.43 775.69
00013589 00000124 1106.93 286.81 503.97 660.94 1238.50 470.73 1464.25 524.71 1311.59 651.86 1209.91 734.70 1389.43 781.11
00013590 00000125 1110.18 298.54 505.49 641.89 1239.79 473.16 1468.33 531.20 1312.99 662.62 1212.20 731.59 1392.56 780.96
00013591 00000126 1113.75 312.39 505.29 627.02 1242.31 478.15 1473.09 534.66 1319.14 671.83 1217.05 737.13 1403.18 784.83
00013592 00000127 1122.45 338.60 506.25 620.84 1255.45 485.39 1481.97 542.25 1325.30 674.07 1225.66 748.57 1409.77 795.90
00013593 00000128 1125.73 326.59 502.10 644.37 1254.95 494.12 1487.30 548.12 1337.98 687.11 1231.22 762.07 1422.28 808.11
00013594 00000129 1135.08 343.31 500.02 629.06 1264.63 499.92 1499.18 554.99 1347.70 695.66 1233.71 767.74 1429.97 814.74
00013595 00000130 1141.67 340.23 503.48 629.69 1271.28 500.12 1502.48 557.54 1348.37 698.79 1239.41 765.20 1432.05 814.17
00013596 00000131 1145.33 342.78 501.35 624.04 1273.78 496.14 1504.47 549.72 1351.77 695.12 1245.80 765.62 1434.06 811.25
00013597 00000132 1146.92 348.33 502.81 614.32 1273.39 491.11 1504.93 543.09 1349.85 686.18 1249.19 762.77 1433.32 806.78
00013598 00000133 1151.19 343.79 498.72 599.05 1280.74 486.34 1506.25 540.07 1355.75 677.68 1253.40 748.83 1430.54 793.85
00013599 00000134 1155.00 316.72 502.67 622.81 1291.97 482.55 1512.15 541.03 1360.70 672.25 1256.58 739.49 1433.28 788.93
00013600 00000135 1160.77 324.58 503.07 621.57 1298.45 480.66 1517.56 538.86 1369.12 672.37 1262.60 736.75 1445.71 786.12
00013601 00000136 1164.93 326.34 500.47 622.10 1303.58 475.83 1529.73 542.43 1375.25 671.60 1260.97 726.25 1445.17 782.86
00013602 00000137 1165.50 323.17 508.05 618.12 1305.79 481.96 1526.54 544.46 1376.99 674.66 1268.37 728.55 1458.18 781.36
00013603 00000138 1160.72 317.96 510.12 624.34 1299.29 489.40 1522.05 546.47 1375.78 676.06 1267.43 735.94 1456.18 784.25
CROP_BBOX: 633 0 1851 1080
