Video ID: 	Q4JQcjQtUPE
H: 	2160
W: 	3840
FPS: 	25.0

FRAME INDEX X0 Y0 W H [Landmarks (5 Points)]

00010365 00000000 1325.76 289.15 605.77 824.15 1429.78 696.28 1621.55 570.88 1518.42 795.51 1572.80 935.21 1760.78 830.98
00010366 00000001 1326.04 289.11 605.39 824.66 1430.13 696.38 1622.17 569.53 1519.11 795.23 1573.21 934.08 1762.74 828.23
00010367 00000002 1325.75 289.93 605.36 821.71 1429.59 695.85 1622.85 568.18 1519.40 792.13 1571.69 932.49 1763.02 825.72
00010368 00000003 1393.18 427.03 697.05 916.48 1640.39 886.25 1922.47 750.64 1893.77 1001.60 1766.99 1142.87 2016.29 1038.34
00010369 00000004 1390.93 426.96 696.64 918.39 1640.92 885.39 1921.51 751.70 1893.15 1002.57 1768.37 1144.38 2014.59 1041.77
00010370 00000005 1391.57 424.81 696.91 922.11 1644.10 886.88 1921.85 756.06 1893.02 1001.48 1772.80 1147.51 2013.01 1047.65
00010371 00000006 1392.04 423.90 694.23 925.63 1642.44 889.26 1920.69 756.83 1891.99 1000.97 1773.31 1151.60 2013.12 1050.77
00010372 00000007 1393.83 417.91 692.03 930.81 1643.16 887.22 1922.11 756.60 1890.94 998.62 1775.42 1152.85 2013.23 1053.58
00010373 00000008 1394.84 412.68 694.85 933.99 1643.73 883.01 1921.33 755.50 1890.14 990.94 1779.15 1151.60 2013.60 1054.84
00010374 00000009 1398.36 408.97 692.15 930.71 1644.30 878.21 1920.65 751.11 1887.69 983.21 1779.13 1145.42 2013.83 1048.12
00010375 00000010 1395.71 411.22 694.33 924.98 1643.31 873.21 1919.57 744.94 1888.89 977.17 1778.02 1140.34 2014.53 1041.52
00010376 00000011 1395.77 410.57 693.39 926.23 1642.87 871.75 1917.38 744.53 1887.18 975.17 1775.63 1137.60 2012.58 1039.08
00010377 00000012 1394.08 407.26 694.00 934.71 1644.19 876.85 1919.39 748.81 1889.32 980.28 1774.49 1142.10 2011.90 1043.52
00010378 DELETE   1392.16 407.37 690.82 951.34 1645.64 882.37 1919.51 755.38 1891.44 993.85 1778.20 1156.77 2010.58 1060.15
00010379 00000014 1389.32 415.78 691.06 951.02 1647.64 896.02 1922.13 768.71 1896.59 1011.11 1789.53 1178.47 2011.32 1085.26
00010380 DELETE   1384.03 428.52 701.74 946.33 1647.59 902.87 1926.89 781.01 1896.82 1026.13 1792.35 1192.74 2013.77 1106.03
00010381 00000016 1384.64 446.71 699.88 934.18 1646.94 915.46 1927.43 787.31 1895.76 1037.96 1788.16 1194.95 2015.15 1102.41
00010382 00000017 1390.92 454.98 693.56 922.01 1650.45 917.82 1928.30 792.54 1894.82 1044.07 1786.07 1190.68 2010.68 1099.87
00010383 00000018 1395.01 460.12 693.29 922.18 1655.14 916.16 1930.20 790.12 1895.93 1037.95 1778.72 1180.65 2009.52 1086.41
00010384 00000019 1396.39 451.58 690.30 920.29 1655.77 908.53 1931.78 779.21 1898.40 1028.97 1775.51 1167.14 2011.22 1069.37
00010385 00000020 1400.62 444.12 684.06 912.52 1656.88 902.06 1932.42 772.36 1900.22 1021.13 1771.84 1155.54 2010.11 1057.56
00010386 00000021 1398.70 431.71 686.11 924.21 1655.57 895.62 1930.86 764.02 1902.58 1008.54 1770.95 1147.50 2013.10 1047.29
00010387 00000022 1398.59 423.38 685.03 928.79 1647.39 890.46 1927.49 756.98 1900.42 1001.34 1762.74 1143.35 2011.50 1040.97
00010388 DELETE   1393.85 417.18 687.04 932.16 1643.21 881.75 1922.96 752.30 1894.46 991.13 1760.03 1138.20 2008.57 1038.53
00010389 00000024 1390.77 408.41 691.03 937.70 1640.59 875.07 1920.03 748.94 1888.01 983.75 1763.32 1139.35 2008.20 1042.00
00010390 00000025 1382.75 395.19 693.59 956.49 1642.77 871.15 1916.27 743.50 1886.98 980.46 1775.55 1148.81 2003.11 1055.25
00010391 00000026 1379.15 391.30 695.31 957.21 1637.85 865.52 1914.52 744.98 1884.78 980.88 1781.26 1155.58 2002.28 1069.38
00010392 00000027 1374.99 390.29 697.87 956.81 1636.54 864.06 1913.13 745.28 1884.41 978.90 1782.32 1156.02 2001.07 1071.61
00010393 00000028 1375.69 389.20 698.44 950.79 1635.47 862.39 1907.41 742.48 1880.87 976.35 1773.98 1151.65 1992.98 1064.32
00010394 00000029 1377.41 370.41 689.54 976.41 1645.77 862.91 1915.94 742.39 1890.64 973.30 1774.16 1152.78 2004.62 1059.23
00010395 00000030 1377.23 394.62 695.77 951.77 1634.47 866.71 1903.89 737.98 1883.76 983.08 1761.93 1144.07 1993.24 1046.33
00010396 00000031 1381.58 377.32 685.26 978.10 1645.52 866.05 1910.98 737.39 1896.62 975.48 1764.64 1146.34 2003.25 1044.60
00010397 00000032 1375.22 394.52 694.22 956.69 1637.33 869.47 1908.95 735.65 1883.08 984.55 1761.90 1140.55 1995.21 1040.69
00010398 00000033 1377.03 393.92 694.78 950.41 1633.66 864.97 1900.54 738.44 1881.59 985.62 1756.16 1137.35 1989.35 1040.52
00010399 00000034 1373.56 375.11 692.87 972.82 1638.31 856.21 1909.92 739.42 1882.24 981.91 1759.64 1137.02 2002.60 1041.74
00010400 00000035 1373.83 379.44 692.50 968.21 1638.04 855.24 1911.92 738.90 1883.38 981.46 1759.90 1138.09 2004.16 1043.05
00010401 00000036 1374.81 378.96 691.56 967.76 1639.06 854.71 1912.51 740.36 1883.24 980.94 1760.83 1139.56 2003.00 1046.43
00010402 00000037 1376.09 379.54 689.21 966.95 1640.35 854.13 1913.73 741.52 1883.77 982.54 1763.35 1141.91 2002.87 1050.52
00010403 00000038 1374.60 376.34 690.51 966.44 1641.70 853.85 1915.50 742.92 1885.71 984.08 1767.63 1145.96 2002.62 1056.88
00010404 00000039 1375.10 377.53 689.20 964.75 1640.84 853.95 1915.31 744.04 1884.80 984.18 1768.82 1148.43 2002.57 1060.39
00010405 00000040 1380.79 376.56 683.77 968.01 1644.38 858.85 1915.52 742.70 1890.56 977.66 1770.96 1157.19 2005.32 1066.53
00010406 00000041 1379.16 372.36 682.83 972.31 1642.68 859.64 1913.87 743.03 1889.71 979.85 1770.39 1159.26 2003.96 1068.51
00010407 00000042 1372.71 371.66 685.93 970.63 1636.40 854.08 1910.70 744.67 1881.38 985.43 1768.27 1152.88 1998.94 1065.43
00010408 00000043 1371.66 368.96 685.91 972.12 1635.15 853.09 1911.04 742.83 1880.84 985.98 1768.06 1153.64 1999.15 1065.59
00010409 00000044 1370.62 366.23 685.85 972.64 1634.98 852.33 1910.54 742.52 1880.41 986.24 1767.96 1153.52 1997.87 1066.05
00010410 00000045 1370.60 387.44 699.30 951.47 1629.47 856.78 1906.43 742.93 1875.72 987.24 1764.59 1152.52 1987.45 1068.97
00010411 00000046 1366.12 393.10 701.32 945.38 1632.12 869.17 1912.77 743.63 1884.29 985.18 1766.07 1159.67 1991.28 1070.05
00010412 00000047 1370.90 395.18 695.01 945.47 1626.05 860.34 1905.83 749.27 1868.41 985.72 1758.48 1153.00 1982.95 1071.13
00010413 DELETE   1361.01 396.41 699.02 952.26 1617.08 854.09 1900.99 748.03 1857.16 991.56 1743.39 1153.49 1972.67 1074.42
00010414 DELETE   1356.80 405.91 692.15 945.36 1608.03 851.12 1893.73 748.98 1846.07 992.34 1724.48 1147.49 1962.69 1069.92
00010415 00000050 1361.29 410.89 684.30 947.12 1600.98 844.00 1887.34 754.01 1827.17 997.79 1705.93 1141.84 1952.48 1071.66
00010416 00000051 1376.61 413.92 667.84 949.89 1599.46 843.20 1875.82 756.73 1813.96 1000.21 1695.09 1137.40 1933.39 1066.39
00010417 00000052 1381.38 411.57 664.88 953.52 1594.90 833.49 1873.83 765.80 1795.69 1002.41 1682.80 1136.74 1920.32 1079.88
00010418 00000053 1385.79 414.42 666.17 953.41 1593.49 820.34 1877.09 770.05 1784.62 1003.24 1670.25 1132.28 1908.76 1089.09
00010419 00000054 1394.28 411.32 666.06 957.51 1594.48 810.36 1883.33 769.86 1780.99 999.20 1660.77 1127.61 1907.24 1092.48
00010420 00000055 1411.99 414.65 654.20 949.86 1603.02 799.73 1893.63 772.41 1781.47 993.19 1656.76 1121.35 1903.49 1097.47
00010421 00000056 1435.81 410.81 648.83 947.07 1611.62 786.75 1909.73 770.03 1780.33 979.50 1657.35 1108.95 1905.65 1095.22
00010422 00000057 1449.76 401.89 655.92 952.36 1627.65 777.65 1931.13 772.41 1787.66 979.02 1658.46 1103.16 1908.92 1099.39
00010423 00000058 1460.56 404.10 662.63 942.55 1648.39 765.80 1948.51 771.72 1801.54 970.12 1665.26 1094.06 1911.83 1100.00
00010424 00000059 1486.79 383.02 647.85 962.38 1671.37 753.65 1959.48 767.87 1814.47 957.67 1675.10 1089.95 1926.08 1103.20
00010425 00000060 1500.18 397.94 651.24 935.61 1687.29 745.74 1978.15 767.53 1823.82 948.67 1689.28 1077.45 1928.31 1097.00
00010426 00000061 1513.72 397.80 655.26 928.12 1702.56 735.54 1995.85 763.75 1834.58 937.11 1700.31 1067.05 1940.01 1091.42
00010427 00000062 1522.59 389.25 663.14 928.90 1716.14 725.39 2013.62 758.92 1849.55 925.66 1707.62 1056.47 1951.91 1085.51
00010428 00000063 1539.32 382.82 659.07 939.14 1735.26 709.72 2030.91 749.83 1868.99 918.92 1718.44 1047.19 1955.51 1084.54
00010429 00000064 1552.69 376.28 657.67 938.69 1750.16 703.30 2044.83 750.30 1881.45 912.74 1726.15 1041.16 1961.43 1084.47
00010430 00000065 1560.69 371.73 656.91 937.38 1762.07 698.36 2058.10 753.19 1889.89 905.30 1731.05 1031.71 1966.02 1081.71
00010431 00000066 1569.21 362.72 665.03 956.28 1773.20 691.24 2072.77 747.64 1898.45 896.66 1743.20 1026.57 1980.26 1078.15
00010432 00000067 1573.88 363.91 667.28 950.91 1782.08 688.64 2081.55 748.05 1908.82 895.62 1749.54 1023.58 1985.67 1077.72
00010433 00000068 1576.36 361.35 668.96 952.98 1787.84 687.73 2085.38 747.58 1916.38 895.78 1752.74 1022.17 1991.15 1077.08
00010434 00000069 1577.99 360.20 670.50 950.38 1793.17 686.83 2090.44 748.19 1922.92 892.69 1756.51 1019.07 1992.76 1075.43
00010435 00000070 1579.49 357.89 670.46 949.88 1797.38 688.02 2094.58 751.17 1927.66 891.34 1757.61 1016.86 1995.87 1074.92
00010436 00000071 1581.95 355.74 669.14 951.03 1800.76 689.88 2095.69 753.98 1929.74 890.22 1758.33 1015.19 1995.66 1074.22
00010437 00000072 1580.22 354.84 668.69 951.69 1799.41 689.38 2094.61 753.22 1929.22 890.00 1758.11 1015.44 1994.39 1074.22
00010438 00000073 1578.85 352.49 668.52 953.42 1797.92 687.68 2093.39 751.66 1927.41 890.12 1757.47 1015.25 1992.94 1074.03
00010439 00000074 1577.58 353.67 669.35 951.82 1795.93 686.79 2090.73 749.94 1925.18 890.58 1757.15 1015.90 1990.14 1073.90
00010440 00000075 1575.61 352.14 668.97 953.17 1794.30 685.06 2088.77 747.29 1923.90 890.56 1755.23 1015.95 1989.87 1073.15
00010441 00000076 1574.24 353.73 667.35 949.94 1793.42 684.32 2087.49 746.77 1923.21 890.47 1753.84 1015.43 1989.41 1072.72
00010442 00000077 1577.19 348.36 665.20 955.14 1797.86 686.64 2081.54 746.72 1920.38 894.22 1750.24 1019.99 1995.41 1073.54
00010443 00000078 1577.89 346.69 663.01 953.69 1797.09 687.43 2080.92 746.85 1920.27 894.53 1749.96 1019.18 1995.85 1072.31
00010444 00000079 1578.17 347.16 662.92 952.60 1797.44 686.41 2081.20 745.62 1921.06 893.99 1750.83 1018.80 1996.11 1071.71
00010445 00000080 1577.26 348.99 661.13 949.18 1797.10 686.42 2081.05 745.20 1922.27 892.36 1750.87 1018.02 1997.09 1070.63
00010446 00000081 1576.65 349.33 660.30 947.10 1796.92 685.57 2080.63 744.73 1922.82 891.59 1750.66 1016.31 1997.35 1069.22
00010447 00000082 1578.44 347.93 659.87 945.95 1797.75 685.27 2081.07 744.07 1923.11 892.14 1752.00 1015.67 1997.50 1068.24
00010448 00000083 1579.34 347.44 660.64 945.63 1799.16 684.62 2082.99 744.16 1924.43 890.55 1752.68 1015.18 1998.02 1068.34
00010449 00000084 1580.18 347.15 659.58 945.75 1799.91 684.23 2083.23 743.88 1925.91 888.34 1753.76 1014.90 1998.05 1068.03
00010450 00000085 1579.84 346.38 656.20 945.16 1798.78 685.76 2081.77 744.42 1925.75 887.73 1754.64 1015.04 1998.18 1067.38
00010451 00000086 1584.31 346.05 651.33 945.87 1805.83 689.89 2082.65 750.83 1928.69 882.66 1757.94 1013.09 1995.70 1067.15
00010452 00000087 1584.97 342.95 650.70 949.53 1806.42 691.18 2082.76 750.69 1930.40 878.65 1761.54 1013.36 1995.69 1065.93
00010453 00000088 1582.88 335.11 650.26 954.84 1802.62 684.26 2079.99 742.35 1926.37 871.50 1762.13 1011.90 1992.37 1062.63
00010454 00000089 1579.93 331.62 648.33 951.92 1796.80 674.55 2078.98 730.62 1927.05 860.53 1761.46 1008.11 1996.35 1056.93
00010455 00000090 1575.54 325.87 649.74 945.40 1789.27 664.68 2080.50 717.17 1926.16 844.78 1760.03 1002.06 2002.90 1048.04
00010456 00000091 1570.00 320.96 652.21 935.13 1779.21 653.22 2074.46 702.41 1917.97 829.75 1753.99 990.67 1998.50 1034.11
00010457 00000092 1569.30 322.52 648.52 926.57 1774.58 645.88 2070.22 692.72 1916.48 815.70 1752.68 982.45 1997.18 1023.79
00010458 00000093 1565.92 316.59 650.21 934.80 1771.66 638.06 2067.99 683.52 1916.13 801.10 1753.02 977.47 1996.56 1017.61
00010459 00000094 1561.34 314.90 640.73 917.82 1771.31 627.61 2069.49 680.13 1912.54 786.93 1748.71 962.46 1987.53 1009.59
00010460 00000095 1561.18 312.54 639.20 907.45 1770.13 620.87 2068.29 675.38 1909.42 776.32 1744.76 953.58 1986.06 1002.59
00010461 00000096 1560.63 304.74 640.71 903.67 1771.32 616.72 2067.79 671.99 1911.13 768.10 1745.02 945.66 1985.46 995.62
00010462 00000097 1560.89 308.99 641.81 889.33 1776.51 612.48 2071.70 670.92 1914.39 763.32 1747.65 935.34 1984.20 987.85
00010463 00000098 1563.05 303.97 656.03 897.79 1780.21 612.28 2077.37 668.16 1923.23 755.40 1766.07 930.95 1991.21 980.04
00010464 00000099 1566.18 299.76 657.84 895.27 1785.77 609.32 2082.20 659.25 1927.68 756.30 1776.91 930.99 1994.14 974.19
00010465 00000100 1574.70 286.40 654.56 912.04 1792.01 609.74 2081.32 656.52 1932.94 758.01 1775.10 934.76 1996.77 976.58
00010466 00000101 1580.98 281.83 653.85 913.44 1798.48 607.36 2087.36 657.17 1940.25 755.18 1781.70 932.20 1996.92 976.29
00010467 00000102 1584.42 284.06 655.78 908.60 1810.20 605.58 2092.38 660.02 1946.00 749.53 1785.61 923.41 2003.63 970.92
00010468 00000103 1589.92 281.91 657.59 909.45 1815.12 601.31 2100.62 659.66 1951.40 744.51 1786.99 918.66 2011.12 969.97
00010469 00000104 1592.24 279.21 661.06 909.39 1820.09 598.68 2108.77 658.41 1960.66 744.64 1792.00 918.17 2019.51 970.48
00010470 00000105 1594.51 277.62 664.20 899.60 1823.04 599.74 2115.50 660.25 1967.35 741.06 1798.21 914.85 2027.80 967.78
00010471 00000106 1598.64 279.38 663.70 887.96 1820.80 595.99 2124.18 654.33 1972.78 736.75 1801.33 917.74 2037.33 968.84
00010472 00000107 1599.80 277.09 661.42 886.29 1820.33 593.88 2124.39 650.69 1974.29 734.42 1802.83 916.46 2038.03 966.11
00010473 00000108 1600.82 278.17 658.28 885.07 1821.60 600.20 2118.08 654.70 1972.10 734.14 1804.25 915.19 2037.55 962.94
00010474 00000109 1600.40 276.83 657.06 885.12 1821.14 598.18 2116.75 654.03 1971.24 734.41 1803.50 914.54 2035.55 963.11
00010475 00000110 1599.31 275.12 658.90 885.69 1819.46 594.41 2114.64 650.05 1968.39 731.78 1801.01 911.86 2032.64 960.35
00010476 00000111 1598.57 274.00 657.48 884.36 1817.03 591.83 2113.75 648.07 1966.93 728.58 1799.64 909.61 2031.22 958.65
00010477 00000112 1597.91 270.96 657.93 885.38 1815.59 590.11 2111.83 646.60 1964.30 724.56 1797.93 907.56 2029.34 956.79
00010478 00000113 1596.60 270.91 657.00 882.32 1814.70 590.37 2109.83 646.86 1963.16 724.32 1796.68 905.92 2026.75 955.17
00010479 00000114 1595.10 269.75 657.57 883.79 1814.52 590.54 2109.45 647.44 1963.12 724.80 1796.17 905.94 2025.82 955.55
CROP_BBOX: 1015 0 2572 1604
