Video ID: 	OPLt-yd0jQo
H: 	1080
W: 	1920
FPS: 	25.0

FRAME INDEX X0 Y0 W H [Landmarks (5 Points)]

00040955 00000000 1055.02 156.78 439.56 633.25 1183.20 398.58 1374.84 434.70 1257.34 526.98 1162.94 619.06 1319.30 648.20
00040956 00000001 1055.82 155.22 439.83 635.39 1184.87 399.54 1377.66 434.89 1261.91 529.87 1166.48 622.03 1323.05 650.61
00040957 00000002 1055.78 160.98 441.26 631.72 1181.09 400.39 1374.33 438.68 1250.52 533.19 1159.24 625.39 1311.11 656.64
00040958 00000003 1054.50 166.71 442.59 625.54 1174.96 403.74 1362.39 437.57 1245.11 538.24 1162.45 626.23 1290.81 656.13
00040959 DELETE   1050.96 172.28 436.15 619.83 1163.57 413.25 1350.14 449.80 1225.38 540.28 1144.40 633.53 1279.05 664.87
00040960 DELETE   1045.30 174.44 437.50 621.48 1148.99 413.80 1334.77 451.34 1203.85 543.26 1127.33 631.10 1267.14 663.12
00040961 DELETE   1030.20 176.65 438.86 633.26 1127.64 420.36 1315.19 463.28 1182.70 561.31 1106.84 637.91 1243.85 675.52
00040962 00000007 1017.88 185.39 443.98 641.89 1112.10 434.32 1301.79 474.96 1162.91 572.49 1094.59 653.05 1235.34 688.24
00040963 00000008 1007.38 189.33 448.22 641.64 1093.86 443.67 1286.46 480.37 1145.32 580.02 1085.30 666.83 1225.41 698.31
00040964 00000009 1000.67 201.26 446.51 635.49 1081.81 447.41 1275.97 486.17 1129.77 587.19 1073.26 674.40 1213.01 707.45
00040965 00000010 995.73 208.77 439.69 622.98 1074.53 444.28 1270.22 492.25 1118.81 595.51 1064.18 670.98 1206.52 710.18
00040966 00000011 993.74 203.71 438.81 624.97 1072.36 440.62 1264.96 491.04 1112.98 591.99 1058.39 665.67 1201.76 707.15
00040967 00000012 998.83 191.31 440.75 633.58 1077.11 436.07 1269.97 486.52 1118.00 581.40 1059.27 656.03 1205.23 698.22
00040968 00000013 1000.45 182.88 444.83 640.47 1084.65 432.09 1275.61 480.50 1125.07 570.11 1064.20 649.10 1210.44 689.74
00040969 00000014 1006.14 178.43 440.13 640.90 1091.05 425.96 1274.78 474.37 1135.95 569.26 1075.35 643.86 1215.71 684.31
00040970 00000015 1009.30 176.45 440.70 639.71 1098.11 424.77 1283.71 469.71 1145.23 564.69 1082.67 642.84 1222.46 680.40
00040971 DELETE   1019.82 176.50 435.07 640.11 1108.01 423.90 1291.73 465.00 1154.26 563.59 1093.11 643.47 1232.54 677.87
00040972 DELETE   1018.82 182.62 444.33 640.87 1114.28 428.27 1304.19 469.84 1165.78 567.53 1095.64 647.54 1238.55 683.66
00040973 00000018 1029.83 189.23 439.10 638.58 1123.95 433.12 1312.22 472.64 1176.70 571.32 1106.95 655.81 1244.13 690.55
00040974 00000019 1035.32 188.92 440.01 638.74 1131.71 433.15 1318.74 472.48 1185.74 572.03 1117.79 657.73 1250.01 692.41
00040975 00000020 1039.51 188.36 440.67 638.65 1136.79 433.78 1321.99 474.32 1191.23 572.87 1123.59 656.90 1254.89 692.52
00040976 00000021 1041.52 188.54 441.84 636.84 1138.13 433.30 1323.70 473.83 1192.05 573.29 1125.43 655.39 1258.03 690.92
00040977 00000022 1043.83 186.33 441.08 637.51 1139.45 432.19 1325.71 472.96 1193.84 572.13 1126.78 654.04 1260.44 689.73
00040978 00000023 1044.84 186.51 441.70 634.90 1142.00 429.03 1328.64 471.58 1196.59 571.24 1127.26 650.46 1262.34 687.69
00040979 00000024 1047.31 185.54 439.44 633.01 1141.64 427.62 1328.46 469.38 1196.57 570.45 1126.67 648.15 1263.79 684.79
00040980 00000025 1047.77 184.16 439.47 633.59 1142.21 425.61 1329.64 467.90 1196.84 570.14 1126.52 646.80 1264.50 683.90
00040981 00000026 1048.05 184.51 439.26 632.28 1142.95 424.38 1330.43 467.29 1197.75 569.69 1127.29 645.78 1264.39 683.40
00040982 00000027 1047.30 183.76 439.48 634.24 1141.71 424.57 1328.72 467.45 1195.07 568.86 1125.93 646.25 1262.87 683.82
00040983 00000028 1045.34 181.73 440.66 638.16 1138.59 426.08 1325.49 468.44 1191.03 569.03 1122.79 647.48 1259.74 684.66
00040984 00000029 1042.90 182.07 442.04 639.62 1136.76 427.89 1323.46 470.20 1187.97 569.66 1121.04 650.12 1255.33 687.37
00040985 00000030 1042.66 187.10 440.22 640.65 1135.48 430.25 1320.66 471.40 1185.30 569.46 1120.18 655.11 1249.58 691.48
00040986 00000031 1042.37 185.75 437.25 644.30 1133.30 429.88 1318.24 471.25 1181.16 568.45 1117.23 657.11 1246.95 693.70
00040987 00000032 1039.18 186.95 438.16 643.83 1130.57 430.23 1317.61 472.56 1180.16 570.52 1112.98 657.46 1247.71 694.84
00040988 00000033 1036.48 189.56 438.81 637.92 1129.02 431.65 1315.99 474.18 1179.27 571.65 1111.26 656.46 1245.59 693.92
00040989 00000034 1034.25 190.14 439.33 636.75 1127.19 432.49 1315.47 475.38 1178.94 573.19 1109.51 656.36 1246.28 694.06
00040990 00000035 1031.87 190.54 439.32 634.76 1123.22 435.43 1314.19 478.34 1178.69 577.27 1106.12 656.11 1249.20 693.63
00040991 00000036 1031.38 190.95 438.42 632.67 1121.35 436.56 1312.78 479.13 1177.32 578.88 1105.97 657.06 1249.05 694.18
00040992 00000037 1029.48 190.13 438.20 632.49 1118.78 436.34 1311.41 479.42 1176.28 578.92 1102.95 655.39 1248.97 692.94
00040993 00000038 1028.54 189.95 438.13 633.16 1118.36 437.34 1309.86 479.78 1174.87 579.32 1102.75 656.36 1247.91 693.26
00040994 00000039 1027.62 188.56 437.24 637.64 1117.72 437.71 1307.63 479.03 1172.43 577.15 1101.77 658.43 1241.04 694.68
00040995 00000040 1027.38 189.51 436.44 639.49 1117.08 437.69 1307.46 478.98 1171.33 576.89 1102.34 660.71 1239.21 696.99
00040996 00000041 1025.67 191.09 437.04 639.27 1116.01 438.65 1305.58 479.86 1169.64 577.73 1102.06 661.22 1237.89 697.31
00040997 00000042 1023.87 192.33 437.49 638.16 1115.60 439.45 1305.02 481.37 1168.87 578.42 1100.86 660.64 1238.19 697.23
00040998 00000043 1022.96 193.06 437.44 636.17 1114.29 440.79 1305.41 482.04 1169.42 579.81 1100.02 660.65 1239.56 696.54
00040999 00000044 1021.58 195.36 438.64 632.21 1112.67 441.54 1304.72 483.37 1169.12 582.08 1099.60 660.55 1240.71 696.70
00041000 00000045 1021.10 193.65 439.05 633.77 1112.25 442.02 1303.43 483.78 1168.13 582.98 1099.40 660.26 1240.76 696.27
00041001 00000046 1021.04 191.83 439.37 636.79 1112.19 442.35 1303.87 484.70 1168.82 583.78 1098.42 660.18 1241.64 696.69
00041002 00000047 1021.67 193.11 439.25 634.46 1112.03 442.22 1304.82 484.85 1169.23 585.06 1098.59 661.07 1241.91 697.77
00041003 00000048 1022.08 195.04 439.66 632.02 1113.81 441.10 1306.14 484.82 1170.29 585.59 1099.58 660.02 1242.46 697.58
00041004 00000049 1022.56 195.94 439.75 631.87 1115.35 440.96 1307.46 484.86 1172.50 585.94 1101.68 660.02 1244.43 697.72
00041005 00000050 1023.83 195.93 438.94 632.07 1116.31 441.21 1308.16 483.91 1173.63 585.09 1104.02 660.47 1245.76 697.19
00041006 00000051 1024.34 194.94 439.00 633.12 1116.60 441.27 1308.50 483.81 1174.39 585.05 1104.20 660.13 1246.18 696.78
00041007 00000052 1024.56 194.48 438.56 634.21 1116.66 441.84 1308.62 484.10 1174.66 585.12 1104.31 660.86 1246.26 697.30
00041008 00000053 1024.06 195.94 439.05 632.14 1116.52 441.53 1308.37 484.27 1174.59 585.56 1104.13 660.48 1245.86 697.28
00041009 00000054 1023.66 196.05 439.53 632.07 1117.01 441.29 1308.43 483.79 1174.37 584.12 1104.39 659.90 1245.33 696.56
00041010 00000055 1023.08 195.67 438.36 631.58 1116.90 440.12 1306.78 483.60 1172.09 583.13 1103.35 658.30 1241.56 695.75
00041011 00000056 1022.47 195.10 437.88 632.31 1116.30 439.09 1304.40 483.68 1167.75 581.37 1101.19 657.98 1235.84 696.33
00041012 00000057 1021.71 192.88 437.73 633.14 1115.29 437.80 1302.45 483.41 1165.95 580.45 1097.40 653.57 1234.32 692.83
00041013 00000058 1020.34 190.79 438.90 634.30 1113.94 436.08 1301.76 484.12 1163.65 579.86 1093.67 650.80 1232.45 691.93
00041014 00000059 1018.54 189.45 441.40 636.17 1113.88 433.98 1301.82 484.05 1163.20 578.36 1091.95 649.15 1232.15 692.03
00041015 00000060 1019.25 191.92 440.13 629.93 1115.67 433.48 1302.66 484.33 1162.56 575.63 1093.68 649.12 1229.50 692.78
00041016 00000061 1022.90 191.00 439.09 628.12 1117.88 432.38 1303.67 486.84 1162.76 575.79 1094.90 646.83 1231.11 693.23
00041017 00000062 1023.60 195.36 441.70 621.57 1118.06 432.06 1302.47 486.07 1162.40 578.66 1097.57 646.58 1230.94 692.40
00041018 00000063 1026.12 194.43 439.77 623.64 1117.74 437.24 1302.84 491.00 1165.21 580.68 1097.27 648.27 1233.74 694.09
00041019 00000064 1028.11 198.03 440.44 622.62 1117.02 436.40 1305.28 490.04 1165.91 585.28 1098.88 652.52 1235.92 698.22
00041020 00000065 1032.59 198.77 435.15 625.43 1120.55 439.13 1305.05 494.38 1166.20 586.69 1100.31 653.89 1238.37 700.96
00041021 00000066 1031.70 197.75 437.60 626.13 1120.74 437.21 1307.64 489.80 1170.14 584.05 1099.70 652.34 1240.18 697.52
00041022 00000067 1033.09 193.01 439.03 630.62 1121.48 435.35 1308.00 487.83 1169.41 582.07 1100.74 651.60 1240.88 696.73
00041023 00000068 1032.67 190.80 440.28 632.60 1121.23 432.40 1309.16 483.74 1170.19 581.09 1100.87 650.99 1240.79 695.41
00041024 00000069 1033.25 187.76 439.38 635.18 1122.43 427.02 1311.23 478.98 1173.10 578.80 1100.10 648.35 1242.38 693.56
00041025 00000070 1034.64 186.58 437.18 635.69 1122.89 423.00 1313.00 475.90 1172.70 576.83 1098.39 645.76 1242.57 691.81
00041026 00000071 1033.95 186.27 437.45 635.82 1122.67 423.01 1312.29 474.63 1173.05 576.73 1100.02 646.37 1243.06 691.21
00041027 00000072 1033.54 183.35 437.53 638.02 1122.42 422.14 1311.19 473.34 1171.81 574.66 1100.12 646.67 1240.53 691.21
00041028 00000073 1033.75 183.65 437.55 636.83 1123.14 420.60 1311.41 471.35 1172.14 572.57 1100.98 645.55 1239.80 689.71
00041029 00000074 1032.24 183.95 438.06 633.64 1121.45 419.68 1309.07 470.49 1168.86 570.60 1099.30 643.69 1236.79 687.76
00041030 00000075 1032.12 185.14 437.92 631.87 1120.25 418.74 1308.52 468.26 1168.83 570.13 1099.24 643.65 1236.87 686.72
00041031 00000076 1032.01 185.07 437.36 634.13 1120.82 418.93 1308.25 467.00 1169.11 568.30 1101.39 645.74 1235.27 687.63
00041032 00000077 1032.33 184.10 436.42 633.96 1119.52 418.70 1307.28 466.63 1168.28 568.07 1099.99 646.15 1233.17 687.94
00041033 00000078 1032.63 183.71 436.01 633.19 1119.65 417.73 1307.24 465.42 1167.86 566.71 1099.03 644.64 1233.47 686.25
00041034 00000079 1032.00 182.22 436.80 634.72 1119.45 416.82 1308.69 464.68 1168.65 566.87 1096.36 642.42 1235.66 684.34
00041035 00000080 1037.53 184.36 432.88 628.37 1128.46 418.17 1308.89 461.68 1168.14 563.92 1106.89 641.56 1243.92 677.83
00041036 00000081 1032.27 181.00 438.46 634.03 1120.04 417.86 1311.34 465.91 1171.75 569.72 1097.50 641.60 1242.73 683.53
00041037 00000082 1032.96 180.50 438.11 635.64 1121.44 419.33 1312.16 467.71 1173.41 571.07 1099.59 642.51 1244.63 684.72
00041038 00000083 1033.69 182.52 437.96 633.84 1122.45 419.81 1313.62 468.63 1174.77 572.56 1100.46 643.00 1245.89 685.58
00041039 00000084 1034.67 183.62 437.61 632.46 1123.30 419.55 1314.43 468.63 1175.41 572.92 1101.17 643.17 1246.27 685.95
00041040 00000085 1033.43 183.68 438.92 630.74 1123.80 419.53 1314.92 468.99 1176.13 572.69 1100.60 642.06 1246.07 685.13
00041041 00000086 1033.47 181.40 436.20 632.24 1122.42 418.51 1312.05 466.75 1174.35 571.11 1098.88 641.26 1244.67 683.32
00041042 00000087 1038.41 184.20 432.60 622.08 1128.36 415.23 1309.76 460.48 1168.82 562.44 1106.98 638.27 1245.34 675.93
00041043 00000088 1035.00 181.15 433.31 620.61 1123.95 407.95 1306.01 455.79 1159.77 556.07 1099.51 632.16 1239.64 671.55
00041044 00000089 1034.53 175.79 429.73 619.14 1117.07 402.95 1298.36 448.03 1149.70 548.61 1094.97 629.09 1229.56 666.13
00041045 00000090 1029.08 172.42 429.38 622.09 1111.16 400.39 1288.15 447.14 1142.43 544.79 1088.68 626.74 1216.51 665.48
00041046 00000091 1022.79 166.80 431.61 627.74 1102.54 400.69 1280.76 450.34 1134.82 547.24 1077.79 627.07 1208.27 668.32
00041047 00000092 1017.81 166.16 433.40 631.87 1098.19 399.13 1275.16 454.52 1124.43 545.80 1072.49 625.75 1199.97 671.95
00041048 00000093 1014.94 167.89 433.33 631.25 1091.82 397.26 1267.61 459.86 1112.39 548.25 1063.00 624.38 1191.42 676.51
00041049 00000094 1012.34 168.76 431.70 633.88 1083.53 398.97 1254.10 468.91 1097.89 556.62 1054.38 623.98 1180.93 682.21
00041050 00000095 1005.84 169.48 434.37 640.26 1069.86 404.73 1237.52 470.37 1083.98 558.10 1044.73 631.30 1170.51 686.79
00041051 00000096 996.68 170.68 439.68 645.30 1067.24 410.33 1245.97 481.43 1078.38 556.37 1037.66 634.40 1173.33 692.69
00041052 00000097 994.90 168.86 442.66 649.67 1064.05 410.00 1240.75 483.36 1072.25 559.13 1035.08 635.05 1169.18 695.39
00041053 00000098 992.26 165.80 446.08 652.15 1062.77 409.28 1238.90 484.65 1069.23 557.60 1032.69 633.67 1167.27 695.30
00041054 00000099 992.73 166.33 445.79 652.06 1063.65 408.12 1239.19 484.27 1068.76 557.27 1032.88 632.57 1167.29 694.89
00041055 00000100 996.35 164.61 442.72 657.49 1065.23 410.12 1240.37 483.93 1070.09 557.86 1034.32 635.08 1169.55 695.77
00041056 00000101 998.71 166.80 439.21 655.89 1066.78 411.90 1240.76 486.59 1071.60 560.91 1035.02 636.89 1170.00 697.97
00041057 00000102 997.09 174.22 438.21 650.96 1065.52 418.25 1239.12 493.84 1072.02 568.44 1035.06 644.17 1168.13 706.04
00041058 00000103 993.61 179.07 441.83 649.21 1061.94 425.33 1239.12 503.44 1068.98 580.51 1033.20 656.17 1164.41 720.29
00041059 00000104 999.75 186.50 432.00 650.77 1057.66 433.22 1239.70 504.99 1070.97 590.98 1033.77 669.75 1164.83 729.69
00041060 00000105 1002.40 192.31 426.02 651.55 1057.39 442.28 1221.51 517.62 1070.54 604.49 1031.51 667.38 1157.38 731.33
00041061 00000106 997.69 194.84 425.32 652.89 1052.13 450.84 1218.03 525.74 1065.57 611.90 1024.28 673.07 1155.08 736.54
00041062 00000107 987.82 195.59 437.23 656.54 1045.90 449.04 1223.28 524.89 1054.87 609.21 1017.66 674.62 1162.19 737.54
00041063 00000108 987.33 197.67 436.79 655.18 1044.43 449.83 1221.38 523.22 1054.06 607.46 1018.27 676.50 1160.75 737.49
00041064 00000109 987.41 199.56 437.05 652.89 1043.23 447.58 1219.19 520.58 1052.46 607.27 1018.12 678.09 1156.27 739.17
00041065 00000110 985.00 199.46 436.88 660.00 1045.00 446.42 1226.69 515.59 1056.90 604.27 1017.64 681.61 1158.67 738.27
00041066 00000111 988.62 200.82 431.99 648.08 1044.25 442.82 1221.86 513.54 1055.82 602.53 1018.92 675.30 1158.36 734.16
00041067 00000112 986.96 196.57 435.99 650.52 1044.94 440.70 1224.98 510.39 1058.37 599.97 1020.82 673.19 1162.33 731.13
00041068 00000113 984.61 191.24 438.79 654.68 1046.36 438.61 1228.97 508.61 1062.62 597.42 1020.90 669.80 1166.13 727.97
00041069 00000114 984.21 194.26 437.16 652.10 1045.24 436.20 1228.22 506.54 1062.29 598.07 1021.52 669.18 1165.79 727.34
00041070 00000115 983.39 195.91 436.15 649.94 1044.51 435.71 1228.83 505.89 1063.56 598.18 1021.32 668.97 1166.09 726.91
00041071 00000116 983.51 199.14 435.19 645.92 1044.49 435.59 1228.63 505.70 1062.43 597.73 1022.30 668.97 1165.98 726.77
00041072 00000117 982.84 198.53 435.48 646.38 1043.96 436.77 1228.00 506.61 1062.26 598.37 1020.65 668.76 1165.89 726.34
00041073 00000118 983.58 197.29 434.74 645.44 1044.09 436.17 1226.72 505.46 1061.89 596.94 1021.82 668.12 1165.35 725.03
00041074 00000119 984.60 195.43 435.86 644.80 1045.74 435.53 1228.57 501.98 1063.90 592.29 1024.44 667.80 1166.30 722.40
00041075 00000120 985.63 192.45 434.94 643.77 1046.98 434.58 1229.57 498.88 1065.23 588.49 1025.59 665.19 1167.60 718.10
00041076 00000121 985.07 186.58 437.36 646.86 1046.41 432.76 1229.69 493.97 1065.75 585.20 1026.55 662.36 1170.03 712.48
00041077 00000122 984.40 187.99 438.42 642.67 1047.06 431.73 1230.08 490.01 1068.41 580.96 1029.30 660.53 1170.74 708.47
00041078 00000123 984.99 185.29 438.69 643.54 1047.62 429.63 1230.69 485.75 1069.77 577.40 1032.92 659.27 1172.35 705.51
00041079 00000124 986.96 183.68 438.52 645.77 1047.78 428.15 1231.37 482.26 1070.02 576.72 1034.52 659.70 1173.51 704.52
00041080 00000125 988.00 176.34 437.83 652.00 1048.18 426.71 1233.10 478.68 1070.61 573.33 1036.28 660.27 1174.96 703.36
00041081 00000126 988.97 175.55 438.68 652.79 1049.51 425.80 1234.10 477.38 1071.57 571.26 1037.15 658.81 1174.98 701.69
00041082 00000127 989.12 176.63 439.08 653.03 1049.05 425.71 1233.60 477.05 1071.54 572.17 1037.96 659.34 1176.17 701.99
00041083 00000128 988.59 178.72 439.03 650.06 1048.56 425.26 1233.87 475.66 1072.06 572.35 1038.45 659.42 1176.14 701.28
00041084 00000129 988.79 177.40 439.01 651.78 1048.86 425.76 1233.90 474.66 1072.64 571.30 1039.23 660.31 1176.60 700.94
00041085 00000130 989.62 180.52 438.63 648.28 1049.03 426.06 1233.42 474.98 1072.18 571.78 1039.18 660.41 1176.19 701.01
00041086 00000131 989.46 177.08 439.59 651.36 1049.39 426.12 1233.60 474.27 1072.19 570.83 1039.87 660.54 1176.91 700.46
00041087 00000132 990.40 178.70 437.93 649.00 1050.03 425.83 1234.58 472.81 1073.24 569.67 1040.82 659.59 1177.69 698.58
00041088 00000133 991.37 179.22 437.52 648.16 1050.43 426.02 1234.74 473.21 1073.73 569.94 1041.44 659.40 1177.87 698.63
00041089 00000134 991.00 179.49 438.96 647.52 1051.48 426.03 1235.94 472.78 1075.31 569.41 1042.61 659.41 1178.52 698.29
00041090 00000135 990.47 180.92 440.75 645.82 1050.85 426.34 1238.35 472.61 1077.33 571.66 1043.06 660.52 1180.62 698.98
00041091 00000136 992.43 181.29 439.61 646.49 1051.76 428.01 1238.81 473.16 1078.29 573.18 1043.89 662.67 1180.81 700.32
00041092 00000137 991.99 180.98 439.38 647.34 1051.33 429.86 1239.46 474.42 1079.73 575.52 1043.75 664.07 1182.24 701.30
00041093 00000138 991.03 184.20 439.91 643.58 1050.95 430.05 1239.55 473.75 1081.02 575.47 1043.50 664.00 1181.71 700.66
00041094 00000139 990.21 187.75 438.88 639.88 1050.75 428.29 1239.52 472.17 1081.88 575.06 1044.13 662.43 1182.21 699.20
00041095 00000140 989.09 183.15 438.73 642.72 1047.97 426.56 1236.33 469.50 1077.86 572.98 1041.51 661.62 1178.95 697.62
00041096 00000141 987.03 181.22 435.92 643.51 1043.90 427.44 1232.47 467.28 1073.85 571.96 1039.92 663.06 1176.14 696.65
00041097 00000142 986.07 179.78 434.39 643.95 1041.17 426.94 1229.99 465.95 1070.57 572.67 1038.03 662.64 1175.51 695.47
00041098 00000143 990.04 176.48 427.31 649.19 1038.65 426.24 1215.35 465.98 1070.56 575.65 1037.98 661.80 1164.60 696.45
00041099 00000144 985.38 179.29 432.03 646.04 1040.14 430.65 1228.80 467.60 1071.69 576.26 1037.95 666.10 1177.08 697.29
00041100 00000145 992.12 184.24 425.28 643.46 1041.21 435.30 1215.28 473.72 1073.62 581.61 1043.26 665.22 1165.71 698.62
00041101 00000146 986.59 183.88 429.95 641.79 1040.08 435.43 1225.05 473.09 1069.43 581.65 1039.57 668.56 1175.01 700.34
00041102 00000147 984.27 183.32 432.39 642.64 1037.95 435.84 1224.14 469.94 1068.58 579.96 1040.13 671.25 1173.40 700.39
00041103 00000148 982.80 188.82 432.68 635.59 1035.87 438.07 1222.01 470.91 1067.81 580.70 1039.49 671.10 1172.21 699.09
00041104 00000149 978.94 184.73 433.00 636.04 1032.38 437.97 1220.55 466.01 1067.13 577.22 1038.51 671.17 1172.63 695.27
00041105 00000150 974.38 184.79 430.74 629.65 1039.86 436.60 1208.63 461.06 1068.46 561.68 1040.68 659.37 1167.19 679.26
00041106 00000151 967.29 176.71 433.24 632.53 1031.09 425.42 1195.43 449.18 1055.23 554.22 1034.62 650.03 1156.28 668.77
00041107 00000152 966.21 169.26 426.34 635.74 1025.98 427.34 1180.53 447.95 1048.06 549.44 1034.37 647.05 1147.29 662.97
00041108 00000153 956.78 169.39 427.25 634.42 1018.02 422.04 1170.72 442.83 1041.47 544.60 1029.76 645.57 1133.45 662.41
00041109 00000154 950.73 167.09 429.40 632.18 1010.93 424.86 1163.23 443.89 1035.41 546.26 1023.89 647.02 1122.38 662.90
00041110 00000155 940.03 167.47 440.89 639.13 1005.00 427.48 1173.69 449.56 1028.33 546.50 1009.89 652.70 1119.90 671.35
00041111 00000156 934.43 168.14 444.73 640.46 998.69 428.49 1171.47 451.03 1025.14 551.70 1003.01 653.85 1119.50 673.00
00041112 00000157 931.80 171.15 443.95 638.27 996.01 428.67 1169.74 451.57 1023.52 552.97 1000.71 654.46 1118.01 674.01
00041113 00000158 935.38 169.98 439.61 639.92 996.85 429.61 1168.92 450.86 1023.24 552.53 1003.58 655.33 1119.83 673.30
00041114 00000159 937.12 170.60 438.04 640.70 997.56 429.10 1170.48 450.95 1024.19 553.97 1003.10 653.75 1123.34 672.32
00041115 00000160 937.63 172.70 439.54 641.56 997.69 429.46 1171.21 450.41 1025.03 554.70 1004.36 654.31 1127.12 672.31
00041116 00000161 933.06 170.64 446.51 646.42 996.76 430.54 1174.60 449.35 1029.61 558.13 1003.22 657.38 1134.84 673.75
00041117 00000162 933.59 172.17 449.46 646.84 996.96 431.32 1175.72 448.62 1031.16 558.78 1005.33 657.93 1138.28 673.07
