Video ID: 	6c-f3WU8FwE
H: 	1080
W: 	1920
FPS: 	29.97002997002997

FRAME INDEX X0 Y0 W H [Landmarks (5 Points)]

00014027 00000000 524.39 183.17 378.12 523.88 621.22 420.84 791.94 389.37 727.92 527.89 674.85 603.75 812.67 577.74
00014028 00000001 518.04 191.75 374.05 515.23 614.84 420.75 781.00 387.93 720.15 525.24 674.02 606.53 803.08 579.08
00014029 DELETE   512.50 195.68 374.51 506.79 609.68 411.80 772.62 384.33 711.00 511.61 667.79 599.07 792.52 576.37
00014030 00000003 511.50 167.17 373.34 527.01 600.29 396.20 763.80 366.57 700.69 491.50 657.88 588.68 786.71 563.74
00014031 DELETE   496.84 158.39 379.81 514.04 591.38 384.30 760.14 351.46 692.68 474.02 659.35 572.28 782.08 544.52
00014032 DELETE   501.83 145.26 371.09 519.66 593.12 368.40 759.39 336.47 694.56 448.86 658.64 559.70 779.60 533.70
00014033 00000006 504.21 133.47 370.82 520.20 596.06 355.47 758.46 321.80 697.80 428.26 663.54 548.41 782.82 521.43
00014034 00000007 511.10 131.03 370.74 513.07 600.29 341.58 760.11 308.72 698.81 411.46 662.32 531.94 784.19 505.37
00014035 00000008 514.26 131.40 372.18 509.35 604.75 336.10 766.20 303.00 703.34 399.77 663.15 526.62 787.80 500.09
00014036 00000009 515.55 130.87 374.79 507.75 612.49 335.19 777.04 307.83 713.21 406.27 668.65 528.00 793.28 505.69
00014037 00000010 519.14 126.44 375.21 515.95 617.40 345.80 783.57 318.17 719.53 418.05 672.81 536.10 800.06 513.62
00014038 00000011 522.52 130.17 371.53 520.14 619.81 353.83 785.98 326.61 722.86 435.31 674.49 545.70 799.69 523.71
00014039 00000012 523.37 133.94 370.37 522.35 619.72 363.18 787.38 335.01 724.22 446.23 676.50 553.54 802.97 530.58
00014040 00000013 523.53 139.20 371.06 526.78 621.09 365.16 790.05 338.38 726.00 450.68 675.30 557.38 804.32 535.41
00014041 00000014 524.94 139.64 370.92 527.25 623.44 363.81 792.20 338.16 728.11 449.53 676.21 556.55 805.48 535.52
00014042 00000015 525.32 133.23 371.66 528.99 624.78 360.84 792.89 335.23 729.15 446.34 677.05 553.55 805.82 532.71
00014043 00000016 526.33 130.20 370.54 526.07 626.79 357.06 793.82 333.32 730.65 440.31 677.51 548.08 805.08 528.83
00014044 00000017 526.73 131.20 371.55 523.20 627.07 357.40 794.71 333.89 730.94 437.22 676.27 544.47 807.09 525.43
00014045 00000018 527.09 132.41 371.63 520.66 626.75 359.15 797.70 335.02 732.68 440.06 676.66 545.27 810.11 525.53
00014046 00000019 528.51 134.64 371.39 518.84 627.64 364.70 799.10 339.20 734.31 445.81 677.59 546.51 813.97 525.52
00014047 00000020 532.29 134.42 369.91 518.56 629.63 367.04 801.40 341.81 735.95 448.94 679.08 545.87 818.57 525.07
00014048 00000021 533.41 131.56 370.60 522.25 634.27 369.76 805.34 344.29 742.95 452.98 684.23 547.21 823.15 526.00
00014049 00000022 535.82 132.97 371.64 522.83 641.77 371.78 813.69 346.17 754.29 453.48 691.93 551.33 829.51 529.86
00014050 00000023 539.00 133.11 372.12 531.36 646.23 371.40 819.46 346.79 758.86 453.74 695.91 556.38 833.14 535.54
00014051 00000024 542.32 135.71 372.75 534.64 649.46 372.84 822.45 347.79 761.23 454.18 697.27 556.79 836.00 535.38
00014052 00000025 544.45 134.92 372.81 537.99 650.66 372.68 823.13 347.82 761.57 453.29 697.07 555.63 838.17 534.33
00014053 00000026 545.03 126.20 371.27 542.31 658.03 370.97 823.19 352.94 764.53 445.65 705.61 545.69 843.25 530.74
00014054 00000027 545.40 126.22 370.46 539.25 657.49 369.85 824.04 351.42 765.09 444.77 704.22 542.21 846.37 526.79
00014055 00000028 544.17 126.96 371.72 536.21 657.91 362.19 826.00 344.48 767.05 442.88 707.22 540.66 848.42 525.67
00014056 00000029 543.39 131.10 374.53 530.31 656.18 358.21 829.52 340.09 766.40 440.79 707.12 541.28 849.33 525.99
00014057 00000030 544.68 128.48 374.41 533.18 657.04 355.54 829.60 337.83 767.89 439.66 708.42 540.00 850.92 525.04
00014058 00000031 545.36 129.39 374.76 531.06 657.32 355.68 829.76 337.28 767.84 440.01 709.33 539.80 851.18 524.27
00014059 00000032 545.28 130.35 375.27 531.91 657.14 357.12 828.78 337.92 767.19 442.39 709.69 540.84 851.10 524.51
00014060 00000033 545.36 129.20 374.87 534.39 657.82 357.51 829.94 339.75 767.95 445.01 708.89 541.78 850.55 526.65
00014061 00000034 546.11 128.61 373.12 535.55 658.33 358.20 830.67 340.98 768.90 446.75 708.76 543.68 849.41 529.05
00014062 00000035 546.33 129.70 373.03 534.68 658.58 357.83 831.40 340.83 769.18 447.38 708.48 543.26 849.46 528.82
00014063 00000036 546.08 129.52 372.90 534.49 658.40 357.10 830.56 340.36 768.53 446.48 708.31 542.86 848.80 528.68
00014064 00000037 546.47 127.70 372.97 535.23 658.47 355.65 830.62 339.84 768.18 445.60 707.40 542.72 847.46 529.38
00014065 00000038 546.28 128.19 373.42 533.49 657.09 353.98 831.63 338.70 767.01 443.11 706.80 543.21 847.74 530.33
00014066 00000039 546.60 127.03 373.64 536.14 658.01 352.06 831.30 337.66 766.93 441.63 707.50 543.83 845.53 531.80
00014067 00000040 547.20 127.32 374.46 537.27 658.70 351.52 831.66 337.99 766.67 442.51 708.23 545.00 843.58 533.67
00014068 00000041 548.85 125.93 373.69 539.51 660.64 352.54 832.95 338.42 768.91 443.49 710.39 546.25 844.63 534.46
00014069 00000042 549.84 127.96 373.40 539.70 663.18 353.93 834.17 339.37 772.11 445.46 714.09 549.29 845.42 537.18
00014070 00000043 550.94 127.13 374.92 546.12 667.14 356.40 836.30 340.87 776.22 447.68 718.32 554.04 845.69 541.19
00014071 00000044 554.45 129.34 375.05 546.20 671.51 362.40 844.48 347.81 782.87 452.31 722.17 558.08 852.68 545.72
00014072 00000045 560.32 137.80 373.61 535.12 677.72 369.62 852.47 353.75 791.17 460.39 727.11 560.33 860.50 546.75
00014073 00000046 566.89 138.31 371.55 537.19 683.36 375.58 856.93 357.33 796.16 466.28 732.06 563.82 867.16 548.17
00014074 00000047 581.40 147.82 361.15 537.32 687.88 371.89 860.17 354.73 800.63 469.40 727.61 572.45 864.91 557.93
00014075 00000048 584.62 147.88 361.61 539.62 691.88 374.18 864.47 358.08 804.79 472.97 731.82 574.35 868.23 560.61
00014076 00000049 588.88 146.26 360.58 542.80 694.69 376.48 867.23 361.29 807.98 475.43 735.91 577.02 871.27 563.82
00014077 00000050 592.07 142.44 358.68 553.13 698.07 382.07 868.21 367.99 811.55 471.96 739.15 580.01 872.82 568.43
00014078 00000051 593.32 142.36 356.74 552.61 701.61 380.16 867.47 366.51 814.15 468.36 742.93 577.85 871.16 566.69
00014079 00000052 588.76 131.69 358.43 557.75 701.50 372.48 866.35 357.74 815.16 465.68 743.78 574.38 866.48 562.07
00014080 00000053 575.33 128.45 365.94 552.95 695.95 375.09 865.92 357.68 811.60 471.74 744.87 569.30 872.72 554.38
00014081 00000054 569.16 128.45 368.59 546.92 689.11 366.74 864.97 349.23 806.32 464.03 740.98 565.21 870.84 550.15
00014082 00000055 561.53 130.22 370.08 543.47 684.45 362.96 860.47 344.95 803.75 461.46 738.58 563.43 866.62 547.93
00014083 00000056 556.64 131.21 368.99 544.58 680.85 361.26 851.51 346.49 797.46 459.24 733.50 560.66 858.53 548.20
00014084 00000057 551.84 131.60 368.79 544.10 677.53 362.68 843.38 347.00 791.26 461.00 730.49 559.53 852.25 546.63
00014085 00000058 546.51 135.64 372.42 543.97 671.41 365.74 838.40 350.21 785.38 465.16 723.98 561.30 849.50 548.67
00014086 00000059 541.19 143.61 375.41 543.50 665.32 372.13 835.03 355.02 779.37 471.45 717.35 566.17 845.95 552.26
00014087 00000060 548.64 151.19 366.05 532.95 657.05 382.05 831.34 358.28 774.39 473.19 704.47 576.20 840.73 555.93
00014088 00000061 547.66 153.92 366.44 532.90 656.07 385.15 829.25 363.37 772.02 479.33 704.66 579.87 837.88 561.03
00014089 00000062 547.45 157.42 367.18 532.22 655.10 388.60 829.18 366.06 771.90 483.70 704.09 582.55 839.29 563.22
00014090 00000063 548.40 159.06 365.71 530.23 655.94 389.49 831.02 367.75 772.53 486.18 703.89 583.21 839.88 564.63
00014091 00000064 548.59 161.11 365.94 529.05 656.83 389.37 831.71 368.51 772.90 485.35 704.29 582.39 840.62 564.45
00014092 00000065 550.14 160.67 365.66 531.26 659.89 388.26 832.44 369.32 774.14 483.59 705.95 581.04 840.47 564.78
00014093 00000066 550.29 158.53 365.38 532.55 661.80 385.94 833.09 367.38 777.45 480.55 707.55 579.19 840.54 563.28
00014094 00000067 551.97 157.95 363.77 531.50 664.63 382.90 835.72 363.13 781.92 476.86 708.37 576.48 842.85 559.86
00014095 00000068 543.66 149.50 373.28 541.69 673.73 374.27 839.27 361.96 785.18 480.17 717.66 565.53 844.04 555.61
00014096 00000069 545.90 143.99 371.46 540.97 675.97 367.75 839.22 356.49 786.17 474.04 721.37 563.74 841.92 554.75
00014097 00000070 547.46 137.08 371.26 543.37 676.67 363.53 839.64 351.29 787.28 467.94 723.17 559.31 844.02 549.39
00014098 00000071 548.35 137.07 369.11 539.23 676.74 358.50 841.10 348.05 786.15 465.49 722.81 556.45 841.58 547.98
00014099 00000072 548.74 136.22 370.32 538.59 678.03 355.94 841.41 345.55 787.70 463.52 723.80 554.32 842.18 545.97
00014100 00000073 550.74 135.30 367.91 537.64 680.08 353.75 843.49 344.10 789.33 462.12 727.30 555.94 841.06 548.24
00014101 00000074 552.35 137.09 366.52 535.19 681.41 354.17 845.04 344.14 790.40 463.07 728.40 556.26 841.17 548.25
00014102 00000075 554.12 137.92 363.62 534.94 683.91 355.28 845.67 345.30 792.43 464.08 731.01 555.98 842.61 548.00
00014103 00000076 553.13 139.37 364.58 535.44 682.90 356.52 847.73 347.20 793.53 465.33 729.10 557.57 843.88 550.11
00014104 00000077 555.13 138.55 361.98 537.09 685.42 357.46 849.18 348.28 796.48 465.94 733.56 560.60 845.78 553.24
00014105 00000078 553.56 139.99 364.14 542.92 684.54 359.30 846.80 349.96 795.15 464.89 730.52 561.67 844.94 554.19
00014106 00000079 553.75 140.70 364.38 545.18 684.85 359.96 846.59 351.56 794.93 466.73 729.66 563.08 844.02 556.35
00014107 00000080 553.21 141.43 366.10 544.81 683.81 362.14 846.82 352.93 794.30 468.77 729.54 564.83 845.08 557.43
00014108 00000081 562.09 151.14 359.86 540.85 683.09 357.08 846.87 349.04 793.52 464.34 726.50 570.12 835.91 562.96
00014109 00000082 552.01 141.48 371.01 543.31 682.73 364.33 849.25 356.60 792.86 472.89 728.47 564.77 848.26 558.34
00014110 00000083 552.76 140.36 372.16 543.00 681.48 367.72 850.56 357.52 793.63 476.68 729.66 565.96 852.93 557.24
00014111 00000084 552.58 145.77 373.06 540.07 682.27 370.31 852.03 359.88 794.64 479.34 728.42 565.99 854.72 556.85
00014112 00000085 564.48 152.45 363.51 542.84 683.39 360.05 849.71 354.55 792.71 469.35 723.52 567.70 842.05 562.73
00014113 00000086 564.37 158.56 365.71 538.12 682.13 361.19 852.36 356.18 791.67 472.52 715.11 567.39 843.18 563.46
00014114 00000087 564.10 158.16 367.48 539.29 681.60 362.88 853.04 357.55 792.30 474.60 713.87 566.68 847.78 562.63
00014115 00000088 562.13 152.06 369.42 547.33 684.15 373.71 850.00 363.86 794.77 479.37 714.28 569.70 850.62 562.21
00014116 00000089 563.21 155.16 368.18 544.58 683.80 379.03 850.04 368.30 794.61 480.84 715.09 569.68 854.01 561.50
00014117 00000090 564.25 158.28 368.10 540.89 682.56 377.78 853.62 366.88 795.08 483.03 715.78 571.91 856.63 563.50
00014118 00000091 563.32 161.21 369.54 537.98 681.48 377.69 853.45 365.51 795.28 483.84 715.75 572.67 857.49 563.29
00014119 00000092 563.15 161.68 369.81 538.03 681.12 379.30 852.07 367.12 794.84 484.44 715.88 575.67 855.37 566.21
00014120 00000093 561.72 165.81 370.76 536.04 679.17 383.72 848.94 371.34 791.36 490.12 711.90 577.58 852.65 567.83
00014121 00000094 560.28 174.70 369.39 529.89 676.49 390.52 849.09 378.83 787.71 499.27 708.83 583.17 851.14 574.25
00014122 00000095 559.32 184.40 368.56 524.56 675.12 395.57 850.11 384.95 785.60 508.90 707.02 588.61 850.25 580.83
00014123 00000096 562.24 186.47 367.07 525.01 677.51 401.86 851.21 388.99 786.31 522.07 711.39 595.12 850.96 585.26
00014124 00000097 563.92 194.66 366.06 518.47 678.63 405.68 852.62 393.98 786.57 526.56 710.65 597.47 850.46 588.72
00014125 00000098 564.60 192.80 368.74 525.62 681.22 412.38 853.38 398.84 789.25 532.28 712.70 602.32 851.76 592.03
00014126 00000099 565.10 196.49 370.43 526.94 684.45 414.93 856.79 401.89 792.18 538.50 717.47 608.86 850.45 598.65
00014127 00000100 568.65 199.23 369.70 528.07 688.68 417.82 859.85 405.42 796.15 541.09 721.99 611.64 852.18 601.76
00014128 00000101 572.22 195.73 369.66 532.64 693.44 419.17 862.68 405.46 801.86 540.49 729.34 613.25 856.52 602.33
00014129 00000102 573.47 187.79 369.04 540.46 694.36 413.26 866.52 399.99 805.75 533.79 735.11 616.12 859.30 605.58
00014130 00000103 570.67 181.58 370.30 541.36 697.10 402.72 867.15 389.51 809.61 523.23 743.90 613.72 858.37 603.21
00014131 00000104 573.16 162.93 366.21 550.20 696.62 385.90 866.59 378.62 808.69 505.11 742.72 603.75 853.01 597.31
00014132 00000105 569.73 151.48 363.81 550.88 695.69 371.81 859.72 364.00 804.95 487.17 740.55 588.19 846.76 581.27
00014133 00000106 565.63 142.82 363.90 553.32 689.53 361.74 849.18 354.68 797.91 464.52 736.23 573.50 838.54 567.11
00014134 00000107 554.48 133.77 365.45 542.05 681.91 362.56 846.58 352.05 792.86 461.55 730.96 560.73 848.09 552.29
00014135 00000108 549.23 131.49 370.01 535.90 674.14 356.81 840.37 345.99 784.20 454.37 721.13 549.77 843.73 541.13
00014136 00000109 544.86 130.28 371.22 539.62 668.37 356.78 836.32 344.80 779.59 453.37 718.09 550.20 844.04 540.47
00014137 00000110 541.85 136.74 372.69 541.10 664.65 361.67 835.55 349.56 776.95 462.82 714.03 557.73 842.68 547.87
00014138 00000111 542.92 144.13 372.64 542.18 659.60 378.63 830.67 358.15 774.47 476.06 707.76 573.21 839.50 554.71
00014139 00000112 549.86 147.81 365.13 541.13 658.62 379.00 836.06 360.69 777.11 478.43 703.21 579.78 841.21 564.00
00014140 00000113 546.22 153.80 368.35 542.94 655.89 382.71 832.13 364.93 774.48 484.47 698.16 580.84 840.32 565.51
00014141 00000114 544.33 152.26 368.72 546.90 652.89 386.77 831.40 369.68 771.02 487.68 689.99 579.47 841.63 565.13
00014142 00000115 542.49 148.70 366.73 548.64 651.95 390.61 827.12 373.80 771.51 485.61 687.76 575.27 841.80 561.17
00014143 00000116 539.89 144.50 365.99 548.69 648.32 389.33 821.68 370.25 767.72 481.61 688.03 574.23 837.76 558.08
00014144 00000117 535.83 143.94 369.42 544.10 644.33 387.69 816.68 365.49 763.50 480.18 685.30 570.09 833.87 551.36
00014145 00000118 536.27 145.89 366.51 536.14 642.26 387.87 815.69 363.53 761.61 481.22 682.84 567.74 833.27 547.82
00014146 00000119 535.92 152.00 370.50 534.46 640.68 388.57 814.84 363.14 759.86 482.55 682.29 569.16 834.87 548.02
00014147 00000120 537.12 155.10 373.01 540.89 640.14 392.51 812.02 368.72 756.61 488.56 682.97 574.83 833.68 554.53
00014148 00000121 539.11 163.44 373.35 537.81 641.38 398.39 817.19 376.77 755.69 497.31 682.33 580.97 836.10 562.88
00014149 00000122 541.39 171.36 376.16 536.28 643.91 401.28 823.85 379.67 757.43 507.24 684.62 587.88 839.53 569.67
00014150 00000123 544.81 179.83 374.59 527.04 646.98 403.31 826.25 383.36 757.76 510.70 686.57 588.59 839.17 571.75
00014151 00000124 548.27 178.71 371.13 522.94 647.77 404.39 828.31 387.07 755.34 513.08 686.70 590.22 836.31 575.62
00014152 00000125 548.43 181.38 372.51 518.45 648.45 406.95 829.08 389.81 756.24 519.06 688.79 594.26 834.09 579.67
00014153 00000126 548.10 186.72 372.87 515.51 647.89 408.25 825.22 391.94 753.23 520.78 687.31 594.28 829.63 580.56
00014154 00000127 547.90 183.81 372.78 521.55 647.70 406.44 825.21 391.45 752.68 518.60 685.38 592.89 830.12 580.28
00014155 00000128 548.63 181.37 372.52 524.77 648.40 403.61 827.14 389.49 753.60 514.96 685.66 592.24 831.59 580.34
00014156 00000129 549.14 180.33 373.75 525.73 649.11 401.23 827.67 387.42 753.13 511.50 686.82 592.09 830.80 580.27
00014157 00000130 551.30 179.04 374.79 527.19 652.12 399.20 830.80 385.39 756.42 509.12 691.42 593.60 832.24 581.66
00014158 00000131 553.16 178.92 367.88 530.99 661.18 392.02 831.04 384.48 763.00 510.04 699.02 596.88 826.64 591.18
00014159 00000132 556.70 176.83 367.51 533.92 667.20 390.34 837.46 384.73 770.11 508.04 707.95 600.61 827.31 596.53
00014160 00000133 560.96 174.93 366.00 538.12 672.71 385.53 842.53 380.50 775.98 506.91 718.96 603.51 828.92 599.48
00014161 00000134 563.90 172.73 365.68 542.24 678.76 382.21 846.52 376.88 783.51 501.76 730.38 604.60 834.25 599.91
00014162 00000135 567.63 172.88 365.36 542.00 682.77 383.08 849.05 377.29 786.81 500.23 734.62 603.07 838.02 597.89
00014163 00000136 569.85 169.53 364.90 545.64 683.64 380.87 850.09 375.68 787.58 498.88 736.04 602.73 838.62 597.95
00014164 00000137 571.74 166.98 364.03 546.48 685.77 378.38 851.01 374.50 788.64 494.65 735.34 600.24 837.06 596.60
00014165 00000138 571.05 167.20 364.49 544.36 686.21 375.36 850.25 372.20 787.68 493.51 734.45 597.98 835.34 594.87
00014166 00000139 571.28 168.02 361.40 540.84 688.51 375.73 848.90 372.93 788.93 489.97 734.03 594.99 832.94 592.30
00014167 00000140 571.37 166.53 362.34 539.65 690.87 377.76 848.48 372.84 790.36 489.60 735.92 593.81 832.41 589.61
00014168 00000141 571.99 166.93 363.09 535.13 691.20 381.98 848.27 373.41 792.36 487.80 737.57 593.01 835.46 585.89
00014169 00000142 575.25 169.93 361.08 529.49 691.46 383.47 851.57 371.13 795.96 486.48 738.05 591.79 842.13 581.73
00014170 00000143 576.89 172.17 362.03 524.10 697.27 382.08 859.48 369.91 803.78 482.40 740.11 584.86 852.21 574.74
00014171 00000144 579.11 160.36 362.69 536.10 704.32 379.24 866.63 370.80 812.42 476.38 743.80 579.37 859.49 572.22
00014172 00000145 586.86 159.51 359.00 534.08 711.37 374.65 873.04 366.54 819.99 467.86 750.97 572.97 867.73 566.11
00014173 00000146 587.97 151.61 356.97 538.04 715.17 370.79 877.51 363.03 826.39 462.67 752.41 570.14 869.65 563.76
00014174 00000147 591.35 145.78 355.32 541.17 723.05 370.56 880.96 366.74 831.81 461.72 756.13 566.25 869.61 563.47
00014175 00000148 592.76 141.49 356.07 547.88 728.15 368.81 882.51 366.89 835.41 460.01 758.61 565.81 868.33 564.81
00014176 00000149 592.80 135.32 358.17 557.99 731.36 363.03 883.79 361.28 838.87 458.54 759.76 567.29 865.89 566.27
00014177 00000150 590.93 125.99 362.66 567.19 729.24 358.16 885.40 358.09 838.55 459.10 760.72 566.98 866.20 566.77
00014178 00000151 587.90 124.78 365.74 561.05 724.44 352.80 885.86 351.51 838.38 452.50 760.80 563.89 866.91 562.37
00014179 00000152 586.20 129.86 363.96 549.24 717.51 348.54 882.19 345.22 833.31 446.38 756.66 559.87 864.66 556.88
00014180 00000153 579.70 124.37 366.98 545.86 708.94 352.07 876.73 346.92 821.29 445.33 747.30 548.60 871.53 544.76
00014181 00000154 573.19 121.36 373.84 547.70 698.85 351.45 872.95 345.86 809.66 448.01 733.20 545.89 866.20 541.85
00014182 00000155 566.56 130.26 376.51 538.17 691.38 356.75 869.92 353.32 802.25 455.38 726.32 548.51 860.30 545.74
00014183 00000156 563.93 141.54 372.96 527.73 689.73 361.42 864.44 358.45 796.99 466.92 723.85 553.97 854.18 551.35
00014184 00000157 570.60 162.72 359.79 522.97 686.95 364.19 858.60 361.92 792.66 478.36 713.13 570.44 842.27 568.28
00014185 00000158 566.67 170.79 362.86 524.93 683.65 370.53 858.00 369.74 790.04 489.44 709.31 578.05 838.14 577.46
00014186 00000159 563.35 177.25 363.55 527.14 682.47 383.38 854.51 382.35 787.37 503.06 708.25 588.76 836.58 588.11
00014187 00000160 560.53 190.36 365.25 521.67 680.48 390.93 858.58 388.44 787.34 522.91 708.03 597.71 842.36 596.23
00014188 00000161 557.29 198.48 369.81 519.74 683.32 399.93 858.84 395.64 787.54 536.88 708.44 604.93 837.44 601.88
00014189 00000162 553.80 204.89 374.42 521.85 688.19 404.96 860.37 404.74 789.17 547.06 710.19 612.31 832.49 612.36
00014190 00000163 556.22 205.66 375.75 524.10 689.05 411.74 861.79 412.44 788.73 552.54 710.93 615.47 832.85 616.69
00014191 00000164 558.43 206.62 372.80 524.90 691.65 414.22 862.47 415.28 790.82 555.85 715.10 617.92 834.17 619.27
00014192 00000165 559.51 205.43 372.69 526.28 693.04 414.09 863.90 414.51 793.64 554.12 717.36 618.50 835.86 619.35
00014193 00000166 560.52 206.77 372.65 524.25 693.93 411.65 865.25 411.44 795.04 552.52 717.99 616.63 836.42 616.81
00014194 00000167 560.66 204.55 372.62 525.52 694.31 411.72 865.50 411.20 795.98 550.43 717.60 614.33 837.93 614.38
00014195 00000168 560.79 207.58 372.03 521.09 693.80 409.74 864.65 408.05 795.59 549.56 717.93 610.72 839.79 609.54
00014196 00000169 559.07 207.48 374.55 522.26 693.24 407.96 863.91 407.17 794.59 547.59 717.43 608.96 839.70 608.32
00014197 00000170 559.12 203.74 376.83 528.62 692.01 406.72 861.59 407.09 792.37 545.13 714.89 609.21 838.14 609.72
