Video ID: 	kjrtv5o1aDs
H: 	1080
W: 	1920
FPS: 	25.0

FRAME INDEX X0 Y0 W H [Landmarks (5 Points)]

00002673 00000000 839.73 234.55 461.27 671.32 886.15 505.61 1056.59 496.36 909.75 639.74 928.57 751.35 1055.57 744.30
00002674 00000001 843.03 234.99 459.55 668.54 888.57 503.78 1059.03 496.94 910.62 638.83 930.84 749.03 1057.26 743.69
00002675 00000002 844.21 234.36 458.32 672.81 889.25 502.32 1059.55 496.85 910.05 638.94 929.47 750.45 1056.09 746.36
00002676 00000003 849.51 234.85 456.92 679.29 895.00 500.28 1064.74 496.03 915.16 637.05 935.08 749.63 1062.65 746.49
00002677 DELETE   855.94 232.80 453.94 680.65 901.20 498.47 1072.55 495.22 923.90 636.90 940.50 746.94 1070.81 744.24
00002678 DELETE   857.81 234.47 457.62 673.69 906.09 501.91 1084.45 493.46 939.47 633.76 946.28 745.38 1079.16 738.40
00002679 00000006 856.20 235.90 463.72 670.70 913.84 506.30 1097.50 497.42 950.44 631.39 950.39 748.66 1088.84 742.31
00002680 00000007 855.42 235.37 463.35 672.83 912.43 506.13 1097.23 497.29 948.83 631.29 948.88 749.50 1088.60 743.14
00002681 DELETE   857.19 234.14 456.17 682.39 905.16 501.23 1082.96 494.30 936.27 634.90 943.47 746.92 1079.11 741.09
00002682 00000009 855.76 234.87 451.93 680.57 899.13 500.91 1075.65 496.86 926.96 638.85 938.13 748.46 1073.47 745.23
00002683 00000010 854.11 237.88 453.43 677.23 898.47 499.88 1074.38 497.59 926.06 640.24 938.32 748.22 1072.18 746.54
00002684 00000011 854.86 238.97 454.40 677.26 899.09 500.24 1078.20 498.26 930.09 643.66 939.35 749.79 1075.64 748.51
00002685 00000012 855.24 240.52 453.43 673.63 900.06 503.33 1085.76 499.73 939.32 646.41 941.86 752.01 1082.52 749.08
00002686 00000013 854.92 242.74 452.88 672.70 900.44 505.12 1086.34 502.37 940.54 649.24 942.27 753.46 1083.12 751.25
00002687 00000014 853.35 242.89 454.76 674.99 899.05 506.62 1083.86 505.54 937.79 652.94 941.33 754.81 1080.97 754.11
00002688 00000015 852.47 245.08 454.79 675.28 897.34 508.27 1081.14 507.76 934.93 657.30 941.63 756.89 1080.07 757.02
00002689 00000016 850.71 246.77 455.16 675.02 894.80 511.59 1080.65 510.80 936.36 662.04 940.21 758.70 1080.54 758.46
00002690 00000017 849.57 247.49 455.72 674.23 894.11 514.93 1080.15 513.25 936.27 665.56 941.05 761.54 1080.69 760.44
00002691 00000018 849.23 251.93 455.99 669.17 893.85 515.45 1078.55 513.90 935.15 666.07 941.53 760.95 1079.76 759.70
00002692 00000019 849.99 251.51 454.51 666.26 893.76 513.51 1078.28 512.81 934.05 663.74 940.47 758.86 1078.41 758.39
00002693 00000020 851.22 249.28 452.67 668.89 895.19 511.90 1080.22 511.55 935.76 661.03 939.91 756.65 1079.53 756.68
00002694 00000021 850.82 247.93 455.03 673.94 896.33 511.74 1081.63 511.70 937.06 662.27 941.61 758.36 1081.65 758.62
00002695 00000022 849.76 249.56 455.79 677.32 895.86 514.43 1082.04 513.37 938.61 665.48 943.05 763.10 1083.20 762.49
00002696 00000023 847.90 251.64 457.08 679.72 895.91 518.70 1082.30 518.31 941.19 672.12 943.58 767.65 1084.35 767.44
00002697 00000024 848.16 259.03 456.65 672.81 896.62 522.33 1083.09 522.68 944.28 677.03 944.08 770.23 1084.31 770.60
00002698 00000025 849.18 258.20 454.01 668.07 898.28 522.79 1085.46 524.74 947.26 676.90 944.38 767.70 1084.06 769.48
00002699 00000026 849.49 255.75 453.98 664.12 898.67 521.33 1087.71 522.31 949.93 672.43 943.97 761.71 1087.46 762.69
00002700 00000027 854.12 255.16 450.42 664.36 905.15 526.42 1092.32 528.81 954.57 668.22 946.36 760.00 1090.31 762.25
00002701 00000028 852.92 254.77 453.68 669.05 906.53 528.83 1093.52 528.44 956.91 669.16 951.53 763.42 1093.78 763.42
00002702 00000029 854.20 257.47 451.85 670.50 908.95 528.50 1096.44 531.11 960.49 673.40 952.41 765.37 1096.09 767.77
00002703 00000030 852.57 256.87 454.75 684.04 907.65 524.69 1094.76 527.53 957.05 677.08 952.03 770.51 1097.84 772.84
00002704 00000031 851.02 258.45 455.91 682.33 905.59 524.10 1094.05 525.99 956.42 677.99 950.83 770.95 1098.12 772.38
00002705 00000032 851.36 255.16 454.18 682.62 903.56 524.76 1091.88 525.08 955.11 678.62 950.19 772.30 1096.35 772.50
00002706 00000033 850.91 259.94 451.83 670.05 903.16 528.03 1091.15 529.61 955.26 678.09 947.27 768.53 1091.28 769.91
00002707 00000034 853.74 259.58 447.79 662.99 903.82 537.38 1090.61 535.86 956.39 675.88 947.05 766.71 1090.54 765.76
00002708 00000035 850.99 260.36 449.36 661.03 902.20 535.25 1091.99 534.73 956.10 677.15 945.45 765.74 1092.67 765.44
00002709 00000036 849.13 260.22 451.11 661.88 899.74 531.23 1088.97 532.55 952.17 680.19 943.48 765.39 1091.83 766.35
00002710 00000037 845.44 259.57 453.93 664.04 896.59 529.23 1087.17 530.53 949.90 683.55 942.75 767.55 1091.56 768.24
00002711 00000038 842.53 264.64 457.86 660.15 895.03 530.66 1085.83 532.71 949.12 686.65 941.62 769.87 1088.93 771.03
00002712 00000039 840.97 266.07 457.63 658.81 894.16 531.85 1085.01 533.42 948.33 688.61 941.38 771.45 1088.58 772.09
00002713 00000040 839.08 267.63 459.18 658.60 894.05 532.80 1084.79 533.61 947.88 689.35 941.70 772.35 1089.51 772.42
00002714 00000041 839.30 267.58 458.06 657.60 893.92 533.16 1083.83 535.52 946.98 692.24 941.42 773.66 1087.99 774.96
00002715 00000042 839.88 268.39 457.51 661.50 893.59 534.67 1082.58 538.43 944.96 695.13 938.62 776.57 1085.81 779.25
00002716 00000043 840.48 270.83 457.30 662.02 894.06 536.45 1081.29 540.23 943.27 696.14 938.94 778.90 1084.63 781.59
00002717 00000044 839.76 269.64 457.95 661.85 893.98 537.98 1080.41 541.24 942.76 696.89 939.58 779.29 1085.07 781.50
00002718 00000045 838.69 270.93 458.13 659.13 892.58 537.29 1080.75 540.59 942.97 697.32 938.59 778.40 1085.21 780.66
00002719 00000046 838.21 270.39 457.87 659.18 892.91 536.92 1080.82 540.00 943.81 696.47 939.17 777.45 1085.60 779.53
00002720 00000047 838.56 270.58 458.70 658.44 893.26 536.27 1081.97 539.89 944.67 696.58 938.97 776.32 1086.64 778.84
00002721 00000048 837.88 270.66 458.75 657.81 893.21 536.01 1081.74 540.02 944.55 696.77 939.26 775.60 1086.77 778.41
00002722 00000049 838.85 270.07 457.14 658.38 893.15 536.70 1081.54 540.00 945.10 697.79 939.81 776.40 1087.47 778.60
00002723 00000050 839.72 270.44 456.11 657.73 893.20 536.44 1081.55 539.85 945.39 697.93 940.30 777.18 1086.86 779.60
00002724 00000051 839.43 269.17 455.54 659.55 893.24 536.98 1081.98 540.29 946.08 698.51 940.00 778.03 1087.04 780.36
00002725 00000052 838.70 268.59 455.73 659.50 892.88 537.03 1081.95 539.42 945.92 698.35 939.83 777.63 1087.23 779.22
00002726 00000053 838.00 268.84 456.26 659.81 892.17 536.75 1081.77 539.42 946.16 698.13 939.16 777.46 1086.69 779.32
00002727 00000054 836.86 268.98 457.25 657.68 891.96 536.31 1082.44 538.48 947.03 697.23 939.41 775.95 1088.17 777.28
00002728 00000055 837.04 267.59 456.05 659.85 891.74 535.97 1082.91 537.25 947.20 696.82 939.41 775.95 1089.03 776.61
00002729 00000056 835.70 266.14 457.23 658.69 891.41 535.34 1084.41 536.21 949.66 697.62 939.88 775.71 1089.99 776.02
00002730 00000057 834.16 267.96 458.51 658.07 890.97 535.53 1085.04 535.58 950.14 697.51 939.90 775.07 1091.36 774.80
00002731 00000058 834.65 266.53 457.50 662.44 891.09 535.83 1086.34 535.95 951.27 698.67 938.97 777.28 1091.17 777.25
00002732 00000059 835.26 267.56 457.02 663.20 890.40 536.11 1085.90 537.04 950.56 701.16 937.84 780.07 1089.31 780.77
00002733 00000060 834.89 266.07 456.29 666.23 891.47 537.53 1085.45 539.34 950.71 703.73 938.67 781.30 1089.03 782.71
00002734 00000061 831.92 268.36 453.52 658.65 887.72 545.05 1083.25 541.71 949.77 703.68 938.12 779.44 1087.12 776.61
00002735 00000062 834.73 267.78 457.61 669.96 892.65 540.10 1086.75 542.03 952.01 706.64 939.24 784.43 1090.50 785.83
00002736 00000063 834.02 270.54 458.77 665.80 893.15 539.67 1087.30 541.33 952.65 706.08 939.76 782.60 1091.85 783.81
00002737 00000064 834.21 269.34 458.79 662.33 893.39 538.83 1087.53 538.83 954.66 703.52 941.51 779.28 1093.83 779.15
00002738 00000065 833.85 268.53 460.13 658.38 893.59 536.15 1089.51 535.61 957.94 700.17 941.83 774.62 1095.68 773.97
00002739 00000066 834.85 268.29 459.77 657.09 894.73 534.98 1090.41 534.28 959.76 697.07 942.55 771.73 1096.26 770.93
00002740 00000067 835.68 269.00 459.47 656.29 895.69 534.47 1092.01 533.45 960.85 695.71 943.05 772.78 1095.58 771.89
00002741 00000068 836.63 268.17 458.48 658.04 896.49 533.89 1092.92 532.44 961.42 693.33 942.96 772.98 1095.60 771.77
00002742 00000069 837.52 268.24 457.38 655.63 896.41 533.90 1092.61 531.66 961.14 692.27 942.05 772.77 1094.71 770.90
00002743 00000070 838.00 268.08 456.44 655.10 896.08 533.29 1092.62 531.06 961.23 691.43 941.56 773.46 1092.92 771.67
00002744 00000071 837.69 267.47 455.15 656.67 895.81 532.71 1091.89 531.00 960.47 691.68 940.99 773.10 1092.87 771.72
00002745 00000072 837.40 265.83 455.65 656.05 895.43 532.74 1091.41 530.49 960.08 689.22 940.85 772.73 1090.53 771.05
00002746 00000073 837.00 266.91 456.10 649.83 893.38 530.17 1090.32 527.51 958.84 685.07 941.54 769.87 1089.09 767.83
00002747 00000074 837.95 263.85 455.49 650.11 894.01 527.59 1090.23 525.73 957.25 679.85 940.41 765.50 1088.29 764.25
00002748 00000075 837.86 262.91 455.02 648.33 893.65 526.75 1089.23 525.76 956.16 678.22 939.41 763.13 1085.60 762.69
00002749 00000076 836.21 263.70 455.78 648.18 892.60 526.96 1087.81 525.63 953.96 679.04 938.51 763.95 1084.75 763.28
00002750 00000077 835.36 262.83 455.62 647.99 889.55 529.26 1084.20 526.21 950.43 680.40 936.03 766.73 1082.60 764.51
00002751 00000078 832.92 263.57 452.59 645.50 886.97 527.99 1081.13 525.07 947.36 679.60 933.40 765.68 1078.99 763.71
00002752 00000079 832.26 262.56 450.43 643.23 885.32 526.08 1080.40 520.44 945.79 672.39 931.73 762.17 1077.78 758.38
00002753 00000080 833.65 254.87 443.67 648.69 888.55 516.92 1082.86 513.80 944.09 657.50 924.15 756.75 1080.07 753.28
00002754 00000081 833.19 249.28 443.19 648.86 887.20 511.93 1083.20 507.82 942.99 652.56 923.89 752.07 1081.26 747.62
00002755 00000082 833.34 249.64 444.07 650.82 887.46 512.52 1083.39 507.49 943.91 653.12 925.08 753.40 1083.16 748.15
00002756 00000083 834.37 249.90 444.96 653.11 887.27 519.36 1079.41 514.41 942.82 666.65 931.07 757.04 1077.22 753.86
00002757 00000084 833.82 260.75 449.11 646.97 885.31 525.91 1081.23 519.77 946.70 676.23 932.93 763.86 1081.58 759.40
00002758 00000085 832.43 262.72 450.04 644.88 885.68 528.82 1080.06 522.41 947.36 678.08 933.46 764.67 1080.46 759.99
00002759 00000086 833.81 257.38 447.50 646.62 886.28 523.43 1079.99 517.37 945.26 670.59 931.64 759.75 1077.98 755.66
00002760 00000087 834.97 252.22 444.70 646.92 889.10 513.44 1084.62 508.35 944.99 652.54 926.47 753.25 1084.42 747.86
00002761 00000088 836.63 249.13 445.43 648.92 891.05 508.62 1086.19 503.72 946.37 646.08 926.50 748.37 1084.96 742.81
00002762 00000089 838.68 246.05 446.20 650.57 892.68 507.89 1087.63 502.67 947.78 645.58 929.86 749.31 1086.57 743.32
00002763 00000090 839.90 246.61 451.64 650.01 889.92 511.12 1085.81 506.93 949.07 659.11 934.64 748.72 1083.45 745.90
00002764 00000091 838.28 252.53 454.63 652.46 892.44 518.71 1090.84 514.48 955.35 665.62 936.44 755.18 1088.54 752.37
00002765 00000092 838.38 259.43 456.72 647.68 893.19 523.94 1094.02 519.17 960.47 672.20 940.51 761.02 1091.14 757.67
00002766 00000093 838.65 259.65 456.92 646.53 893.37 522.23 1093.58 517.75 959.11 669.40 940.65 758.28 1092.07 754.98
00002767 00000094 842.13 253.10 454.42 648.36 894.09 519.80 1093.75 514.69 957.62 661.48 938.20 752.77 1090.74 749.16
00002768 DELETE   847.79 246.64 451.98 647.82 902.06 519.25 1094.02 514.13 961.38 651.52 943.75 743.40 1092.32 739.56
00002769 DELETE   851.16 245.91 450.77 647.45 907.81 516.45 1099.61 512.15 966.91 648.71 948.37 740.85 1096.81 737.44
00002770 00000097 854.72 246.77 449.51 649.07 907.10 515.43 1104.23 511.69 972.07 654.38 947.89 743.91 1101.97 741.14
00002771 00000098 856.98 249.67 449.04 654.13 909.65 519.74 1108.29 515.73 978.09 661.59 953.48 751.63 1107.82 748.77
00002772 00000099 860.63 254.38 446.65 652.59 913.71 520.11 1111.00 519.66 981.39 669.43 957.97 754.20 1111.38 754.07
00002773 00000100 863.11 256.50 445.13 650.66 916.83 519.21 1114.77 519.20 983.87 666.19 957.29 752.25 1112.93 752.54
00002774 00000101 867.82 249.04 442.83 652.69 922.85 515.58 1120.14 512.64 988.08 655.76 960.32 748.87 1114.82 746.79
00002775 00000102 873.74 246.03 439.81 647.93 929.23 510.73 1125.32 506.31 993.74 646.91 966.03 743.22 1118.09 739.83
00002776 00000103 878.97 243.30 441.98 650.27 934.44 507.88 1128.84 501.83 994.26 641.66 970.48 740.72 1121.02 736.07
00002777 00000104 879.66 241.07 445.89 655.50 937.95 510.02 1127.85 507.65 987.39 645.50 970.05 743.30 1116.42 742.67
00002778 00000105 882.69 244.82 443.76 653.55 940.21 511.73 1130.74 510.02 990.66 650.91 973.64 746.16 1119.88 746.18
00002779 00000106 885.08 248.41 444.11 652.98 942.49 514.67 1131.66 511.77 991.21 654.25 978.25 751.02 1121.68 750.05
00002780 00000107 888.27 251.40 442.14 649.76 944.68 515.69 1134.44 513.74 993.67 655.45 979.98 751.67 1122.23 751.61
00002781 00000108 891.27 247.38 440.83 650.14 946.69 511.45 1135.51 509.45 995.46 653.09 982.16 747.48 1125.80 747.21
00002782 00000109 894.52 244.33 439.91 648.21 950.21 505.01 1139.18 502.74 997.60 644.67 982.70 741.05 1128.28 740.61
00002783 00000110 897.75 241.18 440.06 647.72 952.20 499.14 1141.64 499.13 1000.01 639.32 982.00 735.46 1129.03 737.07
00002784 00000111 898.83 240.60 440.81 649.84 954.87 497.66 1143.40 497.63 1002.23 639.56 984.95 734.88 1132.12 736.45
00002785 00000112 899.57 242.33 439.72 651.58 955.06 500.26 1145.10 499.59 1003.61 645.56 988.41 741.30 1134.69 742.25
00002786 00000113 899.87 244.28 438.51 651.82 955.31 506.25 1145.28 504.84 1005.25 652.31 990.54 746.25 1134.33 746.48
00002787 00000114 899.75 246.82 438.61 649.34 954.30 507.64 1144.67 506.38 1004.30 655.99 990.47 747.89 1135.28 748.19
00002788 00000115 900.60 244.68 437.63 648.32 955.37 504.49 1145.01 503.21 1004.03 649.79 990.31 744.55 1134.90 744.88
00002789 00000116 900.64 241.50 439.42 647.59 956.51 499.36 1145.71 498.11 1004.83 641.56 987.64 737.47 1135.32 737.97
00002790 00000117 901.90 239.96 437.48 645.47 957.21 496.14 1144.63 495.81 1004.30 637.27 987.36 731.51 1134.52 732.87
00002791 00000118 900.47 245.44 437.98 641.21 956.37 496.26 1148.40 494.81 1009.28 635.15 988.76 734.45 1142.17 732.48
00002792 00000119 901.19 239.34 439.87 650.11 956.77 498.42 1145.29 496.88 1004.80 641.36 988.84 737.98 1135.47 738.22
00002793 00000120 901.70 242.60 437.21 650.58 955.65 503.66 1145.76 502.54 1004.90 649.97 990.99 744.28 1136.36 744.73
00002794 00000121 901.16 246.86 436.94 648.59 954.85 507.43 1144.67 506.53 1003.69 653.70 991.13 747.08 1134.62 747.64
00002795 00000122 901.19 245.42 436.60 647.26 954.31 505.82 1143.55 504.54 1002.45 650.35 989.69 745.01 1133.01 745.24
00002796 00000123 900.83 241.21 438.78 649.05 955.46 500.83 1144.38 499.88 1003.04 642.49 986.96 738.48 1133.98 739.11
00002797 00000124 901.77 238.79 438.67 647.09 956.72 496.04 1142.86 496.85 1001.52 635.97 985.90 731.26 1132.19 733.44
00002798 00000125 902.59 239.11 437.78 646.64 957.52 495.47 1142.87 496.11 1002.09 635.05 986.86 730.87 1131.45 733.03
00002799 00000126 902.60 239.75 437.65 648.70 957.15 497.74 1144.45 498.14 1002.74 638.26 986.15 734.55 1132.56 736.45
00002800 00000127 902.29 241.83 436.98 650.76 956.47 505.87 1144.46 503.97 1003.00 645.41 989.32 743.73 1133.29 743.48
00002801 00000128 900.28 250.21 436.34 644.26 957.04 508.68 1150.70 508.04 1010.98 648.03 989.44 746.14 1143.12 745.01
00002802 00000129 900.11 249.59 436.55 643.25 957.16 508.60 1150.48 507.43 1010.48 646.38 990.00 745.16 1143.22 743.63
00002803 00000130 901.55 242.33 438.15 647.37 957.08 505.14 1145.00 503.40 1004.12 644.42 989.48 741.70 1133.59 741.59
00002804 00000131 902.33 240.27 438.48 649.30 957.11 501.46 1145.20 499.65 1004.17 640.51 987.42 738.00 1134.02 737.99
00002805 00000132 903.39 239.63 438.59 649.05 958.12 500.84 1145.95 498.83 1005.24 639.75 988.50 737.68 1134.88 737.51
00002806 00000133 902.87 241.16 439.26 650.49 958.49 502.80 1147.58 500.83 1006.70 643.57 991.53 740.43 1137.24 740.25
00002807 00000134 902.25 248.01 437.04 646.29 959.41 508.17 1154.12 506.38 1014.58 646.81 992.51 746.32 1148.08 743.99
00002808 00000135 902.97 250.39 435.49 644.98 959.95 510.12 1153.81 509.17 1014.50 648.95 992.24 746.90 1148.02 745.20
00002809 00000136 902.52 250.80 436.59 642.40 959.84 508.55 1154.74 506.98 1015.19 646.17 992.16 745.52 1147.93 743.40
00002810 00000137 903.42 240.95 439.71 648.28 958.74 501.19 1149.05 500.24 1008.42 643.01 991.40 738.53 1138.50 739.12
00002811 00000138 904.76 240.33 438.64 646.07 960.07 496.35 1147.99 496.78 1007.44 637.38 990.24 732.23 1136.96 734.02
00002812 00000139 904.67 239.92 439.11 644.05 960.03 495.00 1147.55 495.63 1007.00 636.38 990.53 730.41 1136.74 732.41
00002813 00000140 904.54 239.91 439.54 647.95 959.85 496.37 1148.01 496.50 1007.17 637.73 990.85 733.55 1136.48 735.08
00002814 00000141 903.41 240.52 440.85 650.43 958.71 500.09 1149.17 498.27 1008.58 642.82 992.77 738.80 1139.76 738.59
00002815 00000142 902.80 241.15 440.78 650.18 957.89 503.67 1148.04 501.58 1007.33 646.67 993.95 743.27 1139.47 742.78
00002816 00000143 902.18 241.85 440.31 648.84 957.44 500.77 1146.78 499.68 1005.23 644.03 991.85 740.00 1137.35 740.42
00002817 00000144 903.16 239.79 439.08 647.85 958.52 496.48 1145.92 495.99 1004.94 638.03 989.25 733.90 1134.71 734.98
00002818 00000145 902.99 236.78 440.03 646.88 958.47 494.20 1144.86 492.77 1004.52 634.03 989.17 728.98 1135.70 729.38
00002819 00000146 903.28 237.47 440.49 645.35 959.37 492.82 1144.49 491.09 1004.94 633.03 990.45 727.41 1136.52 727.58
00002820 00000147 903.63 236.84 439.47 646.63 958.99 493.59 1144.96 492.75 1005.24 635.08 990.35 729.40 1135.67 730.35
00002821 00000148 903.47 238.13 440.57 649.95 958.14 496.93 1145.35 494.95 1005.03 639.02 990.74 735.97 1135.43 735.79
00002822 00000149 902.83 239.82 440.79 651.32 957.33 500.43 1146.04 497.82 1005.31 644.45 992.65 740.68 1137.61 739.88
00002823 00000150 902.49 240.78 440.58 649.74 957.80 499.78 1146.10 497.58 1005.20 643.07 991.90 738.66 1137.60 738.24
00002824 00000151 904.16 240.56 439.00 645.54 959.83 494.80 1147.02 494.80 1006.26 637.38 990.29 732.23 1135.66 733.83
00002825 00000152 905.15 237.12 440.76 644.76 960.35 492.43 1146.29 490.82 1006.69 633.50 992.49 727.62 1137.66 727.88
00002826 00000153 906.36 234.66 439.47 643.76 961.61 491.24 1147.29 488.94 1008.70 629.80 993.01 725.20 1137.70 724.89
00002827 00000154 907.04 235.03 439.71 644.72 962.40 491.47 1149.01 489.05 1010.37 630.51 994.62 726.30 1138.94 725.90
00002828 00000155 907.83 237.60 440.22 646.92 962.40 494.17 1150.13 492.33 1010.70 634.11 995.86 730.88 1140.23 730.85
00002829 00000156 907.84 238.11 440.19 650.64 962.29 495.30 1151.27 495.19 1011.19 637.33 994.55 733.78 1139.12 735.11
00002830 00000157 908.17 238.44 439.45 647.86 962.55 495.16 1151.97 494.85 1011.79 636.14 995.19 732.83 1139.53 733.99
00002831 00000158 908.99 245.26 437.95 640.59 965.42 501.38 1155.73 499.48 1017.32 631.33 994.15 733.02 1149.81 730.47
00002832 00000159 909.17 244.54 437.31 634.73 966.27 502.07 1155.48 498.30 1018.34 627.11 995.60 730.35 1150.18 726.25
00002833 00000160 909.69 241.61 437.97 636.55 965.91 498.49 1156.08 493.86 1019.74 625.44 997.24 730.10 1151.81 725.13
00002834 00000161 909.55 243.11 438.84 639.96 965.36 496.52 1155.70 491.99 1018.95 628.39 996.39 731.78 1150.49 727.00
00002835 00000162 908.34 247.31 440.60 641.56 964.68 499.36 1156.85 495.10 1018.38 632.16 996.62 736.77 1151.94 732.38
00002836 00000163 909.54 247.23 438.47 644.93 966.04 500.89 1157.55 499.26 1019.38 635.83 995.77 739.08 1150.26 736.74
00002837 00000164 908.68 246.35 438.42 644.05 965.17 500.78 1156.97 499.16 1017.74 634.71 994.64 738.03 1149.60 735.70
00002838 00000165 909.41 240.26 439.83 644.95 964.28 496.70 1151.06 493.79 1013.62 633.43 997.30 730.82 1140.25 730.00
00002839 00000166 910.67 240.86 438.25 641.95 965.61 494.32 1151.63 491.09 1014.78 629.86 997.38 727.85 1141.03 726.71
00002840 00000167 910.75 239.83 438.26 642.64 965.48 494.20 1151.83 490.76 1015.20 630.03 997.31 727.72 1141.02 726.41
