Video ID: 	07DEvxxTIkU
H: 	1080
W: 	1920
FPS: 	25.0

FRAME INDEX X0 Y0 W H [Landmarks (5 Points)]

00083399 00000000 538.57 203.87 374.24 549.26 690.81 431.79 847.97 440.33 794.73 540.80 705.85 627.11 821.16 635.96
00083400 00000001 534.59 210.74 371.63 546.34 684.44 432.09 846.63 440.04 792.79 543.41 701.12 636.66 822.75 643.45
00083401 00000002 530.32 208.54 371.55 548.11 678.80 429.80 840.50 436.16 788.10 543.72 697.19 637.93 816.51 643.75
00083402 00000003 526.76 206.38 372.95 551.28 674.10 427.97 838.48 433.61 785.11 542.96 694.63 638.36 815.55 643.38
00083403 DELETE   521.65 201.87 372.83 555.92 675.25 434.54 836.12 442.03 783.19 541.23 691.79 635.42 814.56 641.67
00083404 DELETE   519.02 200.48 371.45 557.65 672.30 437.05 832.65 441.51 779.91 540.71 689.09 636.80 812.23 640.67
00083405 DELETE   517.00 199.06 373.51 562.83 667.24 433.14 829.19 438.66 776.72 539.65 686.69 637.33 810.94 642.06
00083406 00000007 520.60 199.80 369.13 559.75 662.25 428.07 825.33 434.23 780.14 536.40 681.93 635.89 805.09 642.74
00083407 00000008 516.10 199.76 371.81 563.61 659.18 427.42 821.99 433.42 777.89 534.65 681.60 637.24 802.75 643.29
00083408 00000009 512.53 205.31 371.48 560.58 656.75 428.17 816.36 434.76 773.12 536.62 680.10 638.72 796.47 644.98
00083409 00000010 508.76 209.83 373.70 560.79 655.11 429.94 811.70 435.24 769.24 538.10 680.20 640.53 793.27 645.18
00083410 00000011 504.34 213.39 372.85 559.69 653.87 431.42 807.78 435.86 765.72 539.79 678.35 642.27 788.62 646.31
00083411 00000012 500.04 213.76 372.29 560.08 651.96 431.05 803.39 435.34 761.50 540.46 676.31 643.16 782.77 647.05
00083412 00000013 495.21 215.15 372.73 557.21 646.30 429.54 797.59 432.25 754.86 540.48 671.79 643.14 776.94 645.51
00083413 00000014 490.02 213.44 372.35 555.87 638.64 428.03 792.49 428.52 748.51 539.57 665.25 642.53 771.46 643.07
00083414 00000015 482.13 212.12 375.26 555.33 630.24 428.08 786.31 424.62 742.84 537.03 660.04 641.64 767.86 638.86
00083415 00000016 475.25 213.61 373.95 556.91 621.31 429.75 777.58 423.88 735.77 533.81 653.24 640.45 763.52 635.97
00083416 00000017 465.45 209.24 377.34 559.34 609.91 435.29 774.26 432.00 725.42 532.77 644.52 635.41 767.82 634.39
00083417 00000018 461.23 206.76 378.60 561.27 604.82 434.28 769.04 430.52 719.01 532.58 640.03 635.77 761.51 634.55
00083418 00000019 466.54 208.58 368.08 550.88 599.67 432.48 765.48 428.19 719.82 529.57 631.17 639.86 755.17 637.51
00083419 00000020 464.62 209.36 367.77 549.21 595.42 431.13 763.18 426.47 715.87 529.57 627.59 639.88 752.55 637.31
00083420 00000021 462.79 209.75 369.39 548.45 594.04 431.19 760.82 426.17 713.26 529.82 626.54 639.23 751.12 636.09
00083421 00000022 463.66 209.16 368.30 546.43 593.42 430.64 760.65 425.83 712.60 528.50 626.52 638.08 751.02 635.29
00083422 00000023 459.06 207.17 375.47 551.92 599.37 430.96 763.50 427.39 712.04 532.42 632.61 638.21 755.59 635.16
00083423 00000024 461.41 202.89 376.40 552.46 600.48 425.12 764.75 421.29 712.54 526.23 636.78 628.88 755.83 627.53
00083424 00000025 465.76 202.28 375.62 550.36 604.90 421.85 766.55 417.04 715.99 523.07 641.18 627.17 757.99 624.91
00083425 00000026 469.46 198.70 374.60 551.54 611.10 420.26 769.08 416.97 719.58 520.98 645.07 624.99 758.66 623.65
00083426 00000027 473.13 196.86 374.96 554.69 618.78 419.12 774.40 415.21 726.32 521.61 649.32 626.60 759.69 624.69
00083427 00000028 475.83 196.03 376.20 556.13 623.21 416.49 778.45 415.00 730.98 519.73 651.45 624.02 762.64 623.90
00083428 00000029 478.68 194.03 376.35 554.66 626.32 414.30 781.89 414.03 734.34 519.20 656.10 622.66 766.53 623.24
00083429 00000030 480.54 192.13 376.30 555.09 628.32 412.61 783.52 413.53 736.45 518.03 658.70 621.21 768.55 622.42
00083430 00000031 482.21 189.70 376.37 554.91 630.00 410.51 786.07 411.51 739.43 516.51 662.04 619.55 772.61 620.45
00083431 00000032 483.64 189.45 375.36 554.39 631.46 409.87 786.82 409.77 740.88 516.37 664.76 619.05 774.93 618.84
00083432 00000033 485.80 189.27 374.14 553.86 633.53 409.08 788.59 408.96 742.35 516.52 666.47 618.88 775.90 618.67
00083433 00000034 488.64 190.69 373.05 552.27 635.52 410.15 791.03 409.02 744.29 517.67 668.19 619.91 778.26 618.98
00083434 00000035 491.27 191.68 372.23 552.19 638.77 413.53 795.62 413.64 747.25 519.52 669.42 621.18 780.91 621.33
00083435 00000036 493.52 195.48 371.86 548.05 641.13 416.90 798.74 416.35 749.64 523.03 670.93 623.80 782.74 623.62
00083436 00000037 504.82 200.57 369.40 549.50 640.29 414.81 804.99 414.36 756.34 526.39 669.54 628.90 782.29 629.12
00083437 00000038 509.17 202.80 369.53 550.54 644.50 418.01 809.21 421.43 759.91 529.37 671.12 630.22 786.29 633.75
00083438 00000039 512.06 204.25 370.24 553.23 651.02 419.76 813.79 425.87 766.08 534.09 673.42 632.14 790.92 637.95
00083439 00000040 514.04 205.08 371.05 552.60 655.54 421.46 817.88 430.29 769.35 536.47 674.66 633.17 792.39 641.25
00083440 00000041 518.28 204.44 371.60 556.50 660.31 422.07 822.84 431.92 773.68 538.59 676.87 634.55 794.88 644.32
00083441 00000042 523.19 204.76 369.93 556.84 667.67 424.01 827.65 434.94 781.04 540.93 681.26 634.61 800.02 645.59
00083442 00000043 520.60 209.61 374.79 554.67 676.40 425.38 835.67 436.91 784.23 543.60 688.48 635.58 807.75 645.34
00083443 00000044 522.80 210.27 374.26 551.13 680.98 426.06 839.36 437.85 789.48 542.78 693.65 635.22 811.08 645.25
00083444 00000045 525.58 210.33 373.08 550.53 684.25 426.44 843.16 439.60 793.99 541.95 696.81 635.46 813.84 646.46
00083445 00000046 526.28 210.99 372.58 549.80 684.97 427.52 844.03 440.42 794.84 542.82 698.06 636.27 815.14 647.07
00083446 00000047 525.91 211.56 372.61 551.82 684.77 429.22 843.14 441.36 793.68 544.54 698.04 638.06 815.18 648.11
00083447 00000048 524.79 212.90 372.78 552.47 682.09 431.14 841.34 442.34 792.28 546.71 696.52 639.71 814.78 648.98
00083448 00000049 523.03 212.95 372.95 556.05 680.38 432.10 838.63 442.75 789.80 548.24 693.91 641.33 812.59 650.25
00083449 00000050 525.30 211.39 370.85 553.94 676.00 430.39 833.99 443.05 789.60 547.61 687.63 638.66 806.05 650.61
00083450 00000051 523.04 211.27 370.46 555.48 673.23 429.30 830.16 441.82 786.32 548.17 685.28 638.66 801.75 650.28
00083451 00000052 519.47 209.52 370.76 557.63 669.42 429.22 825.82 440.62 782.36 548.82 683.14 639.94 797.22 650.51
00083452 00000053 515.12 211.84 372.10 556.64 665.93 428.57 821.66 439.58 777.77 547.84 680.55 640.81 792.77 650.69
00083453 00000054 510.67 214.00 373.00 554.98 661.99 428.97 817.21 439.39 772.51 546.81 677.79 641.73 787.62 651.04
00083454 00000055 508.09 212.84 370.71 554.72 656.39 431.85 812.62 439.41 767.77 548.32 675.77 643.96 786.27 650.83
00083455 00000056 503.26 213.60 368.47 551.74 649.61 435.59 808.77 437.82 764.01 551.85 674.72 647.13 788.32 649.44
00083456 00000057 498.79 215.97 369.27 549.32 645.52 436.07 805.46 437.09 758.34 552.49 670.80 649.00 785.16 650.13
00083457 00000058 494.31 218.60 369.21 546.27 641.22 438.11 800.47 437.25 753.28 555.96 665.82 649.26 780.29 648.71
00083458 00000059 492.01 221.33 369.38 547.87 639.63 439.54 797.09 438.72 749.76 556.85 661.95 648.59 776.75 648.05
00083459 00000060 490.53 221.98 369.96 549.03 637.89 439.48 795.39 437.88 748.23 556.81 661.34 647.94 777.21 646.65
00083460 00000061 488.14 221.70 371.09 552.90 637.73 438.36 792.79 437.82 745.96 554.51 660.43 646.10 774.51 645.72
00083461 00000062 485.28 221.11 373.53 555.10 635.37 437.19 789.46 437.48 742.41 553.86 656.67 645.36 769.56 645.78
00083462 00000063 485.29 220.84 374.15 555.84 635.46 436.48 787.80 436.98 740.58 553.35 657.25 642.60 768.59 643.06
00083463 00000064 485.99 219.59 373.85 556.52 636.61 435.72 788.12 436.65 741.28 552.94 658.20 641.82 768.86 642.69
00083464 00000065 487.66 219.53 372.83 555.94 637.35 435.53 789.49 436.06 742.79 552.11 660.14 642.51 770.90 643.02
00083465 00000066 487.94 219.44 372.93 555.35 638.48 435.18 791.29 435.55 744.65 552.09 661.19 642.83 772.56 643.27
00083466 00000067 488.96 218.64 372.41 555.94 639.75 434.15 793.14 434.98 746.55 552.37 662.02 642.93 773.67 643.69
00083467 00000068 489.00 218.04 372.74 557.26 641.39 432.81 793.87 433.88 748.47 553.10 662.72 642.49 773.80 643.50
00083468 00000069 489.67 218.35 372.04 557.22 641.15 431.81 794.54 432.59 749.41 553.10 662.03 643.14 774.17 643.93
00083469 00000070 489.12 216.61 373.07 559.97 640.56 431.02 794.22 432.65 749.20 552.94 661.36 643.07 773.78 644.49
00083470 00000071 489.06 217.15 372.41 560.36 639.33 430.84 793.44 433.20 747.61 552.13 659.43 643.99 772.05 646.07
00083471 00000072 488.62 217.20 371.45 562.71 639.44 430.31 793.02 432.92 747.03 553.07 658.76 648.66 767.29 650.93
00083472 00000073 488.88 216.86 370.62 563.78 639.14 430.47 793.21 432.86 747.13 553.40 658.65 650.22 767.31 652.35
00083473 00000074 488.84 217.36 370.14 562.98 639.69 430.62 793.13 432.83 747.68 553.61 658.93 650.87 767.20 652.88
00083474 00000075 489.75 217.30 370.37 562.87 640.25 430.16 793.96 432.89 747.89 553.35 659.86 650.22 767.59 652.61
00083475 00000076 490.23 216.99 371.19 562.73 641.39 430.10 794.79 433.44 749.62 552.43 660.75 647.79 770.29 650.67
00083476 00000077 490.99 216.78 371.38 558.07 642.02 430.47 796.07 433.06 751.10 551.90 661.05 645.28 773.14 647.62
00083477 00000078 490.82 215.47 371.99 554.52 643.16 430.80 798.43 432.01 753.53 552.48 663.76 643.48 778.55 644.40
00083478 00000079 491.95 214.35 372.13 553.20 644.27 430.43 799.79 430.64 755.77 551.40 666.32 641.59 781.60 641.76
00083479 00000080 492.53 214.66 372.38 553.39 644.85 431.50 800.91 430.87 757.16 551.57 667.87 642.26 783.88 641.66
00083480 00000081 492.97 216.01 372.73 553.65 646.85 431.44 801.84 432.26 758.32 550.94 668.83 641.17 784.64 641.88
00083481 00000082 493.64 216.70 373.41 553.97 647.76 432.05 802.13 432.84 758.30 551.57 668.99 640.60 785.45 641.38
00083482 00000083 494.83 216.65 372.96 553.44 648.12 432.51 802.88 433.13 758.77 551.14 669.11 640.76 786.24 641.41
00083483 00000084 495.98 216.03 372.76 555.89 648.74 431.57 803.22 433.39 758.75 550.96 670.24 641.31 784.66 642.98
00083484 00000085 497.14 217.32 371.31 553.99 649.13 431.46 800.99 433.20 757.41 552.43 672.32 646.81 776.04 648.40
00083485 00000086 498.10 217.97 370.05 555.23 648.55 434.50 799.54 435.44 756.61 553.35 675.58 650.84 776.92 651.56
00083486 00000087 498.74 218.92 369.82 554.14 649.25 435.24 800.24 436.38 757.24 553.87 676.34 651.72 777.46 652.51
00083487 00000088 499.75 219.78 368.80 553.06 649.03 435.84 800.26 436.83 757.04 553.12 676.40 652.12 777.85 652.81
00083488 00000089 499.75 219.94 369.14 552.19 648.61 436.00 799.80 436.70 756.48 552.43 676.43 651.75 777.78 652.16
00083489 00000090 500.16 218.50 369.38 552.62 648.53 434.19 800.19 435.77 756.34 551.88 675.63 650.61 777.15 651.80
00083490 00000091 500.89 216.45 368.69 553.84 648.88 432.48 800.86 434.59 757.25 550.39 676.28 649.54 777.73 651.14
00083491 00000092 499.31 215.57 369.30 552.79 648.87 430.97 800.12 433.24 756.31 549.46 676.22 647.94 776.00 649.60
00083492 00000093 498.85 215.90 369.18 551.56 648.54 431.67 799.19 433.21 755.65 549.46 675.77 647.85 775.22 648.97
00083493 00000094 498.46 215.69 369.54 552.09 648.20 431.51 799.16 432.94 755.37 550.02 674.99 647.47 775.22 648.50
00083494 00000095 498.41 216.37 368.97 551.10 647.81 431.52 799.54 432.89 755.64 549.60 673.98 647.20 775.73 648.27
00083495 00000096 498.04 216.29 369.50 550.31 647.75 431.49 799.63 432.39 755.43 550.26 673.91 646.92 776.24 647.55
00083496 00000097 497.89 215.65 368.94 549.88 647.41 431.48 799.89 432.50 755.19 550.04 672.70 646.17 776.80 646.95
00083497 00000098 497.01 214.81 369.02 550.61 646.22 431.50 800.29 431.53 755.06 550.49 671.57 646.09 777.35 646.07
00083498 00000099 496.58 214.54 368.99 551.31 646.52 431.12 801.39 430.80 756.06 551.11 672.07 645.46 778.97 645.20
00083499 00000100 496.40 214.44 369.11 550.58 646.27 430.72 801.84 430.23 756.46 550.71 671.55 644.37 779.43 644.02
00083500 00000101 496.54 214.14 369.68 550.77 646.99 430.32 802.22 429.71 756.93 550.36 671.63 643.20 779.98 642.86
00083501 00000102 496.90 214.25 369.98 549.92 647.02 428.83 803.17 427.57 757.15 549.90 672.55 642.88 780.55 641.95
00083502 00000103 497.42 212.83 371.30 552.87 648.96 426.88 804.51 428.07 758.80 549.18 672.34 640.52 780.18 641.74
00083503 00000104 498.28 213.70 370.59 550.42 649.55 427.01 804.91 428.05 759.64 548.72 672.30 640.15 781.12 641.38
00083504 00000105 499.08 213.45 370.90 550.90 650.61 427.34 805.53 429.07 760.44 548.72 672.89 639.92 781.89 641.74
00083505 00000106 499.50 214.62 370.77 550.53 651.90 428.19 805.60 429.54 760.71 549.39 674.02 639.97 781.25 641.48
00083506 00000107 499.97 214.95 370.53 552.76 656.39 440.59 803.65 442.70 759.04 551.03 673.86 640.30 780.47 642.66
00083507 DELETE   499.42 217.25 373.15 548.59 657.99 447.97 803.10 450.68 758.56 552.01 674.29 640.41 780.52 643.32
00083508 DELETE   499.97 216.57 373.75 550.68 657.71 445.35 804.45 448.74 758.64 552.07 673.84 640.13 781.11 643.39
00083509 DELETE   500.36 215.46 372.27 554.07 655.73 439.93 804.99 442.67 759.89 551.91 673.58 640.38 780.83 643.04
00083510 00000111 499.98 217.85 371.58 552.31 654.85 436.94 805.09 438.64 761.34 551.99 673.36 642.37 779.35 644.16
00083511 00000112 500.13 220.18 371.68 554.72 655.01 438.05 804.75 439.29 761.92 554.19 674.92 646.38 778.90 647.80
00083512 00000113 502.75 222.63 370.34 552.91 654.43 441.15 804.10 442.51 760.58 557.81 678.27 652.36 779.33 653.51
00083513 00000114 504.02 226.17 370.08 549.80 654.96 443.85 805.42 444.39 761.63 561.74 680.29 656.59 780.60 657.03
00083514 00000115 504.49 230.50 370.13 543.08 653.75 446.62 808.04 446.65 761.92 565.53 680.17 658.71 783.05 658.62
00083515 00000116 505.09 230.30 370.00 545.70 649.36 448.28 810.12 448.64 761.28 567.63 677.95 663.58 786.70 663.82
00083516 00000117 505.16 230.51 370.45 545.29 648.77 446.36 810.45 446.94 761.05 566.73 677.48 663.94 785.92 664.35
00083517 00000118 505.07 226.66 371.36 553.63 649.07 442.07 809.98 444.28 761.72 562.50 674.41 660.53 785.28 662.47
00083518 00000119 502.66 224.50 372.21 561.16 650.20 438.62 806.90 444.67 759.71 557.01 669.56 657.04 779.03 662.49
00083519 00000120 501.62 222.53 372.57 562.44 650.34 436.68 808.06 443.32 760.15 556.41 666.46 652.59 779.94 658.59
00083520 00000121 500.44 221.16 372.53 558.42 649.93 437.15 806.56 440.76 760.12 556.56 668.43 649.83 782.94 653.21
00083521 00000122 500.10 220.97 372.76 553.33 649.95 436.72 806.45 438.83 759.24 556.46 668.04 646.66 783.48 648.91
00083522 00000123 499.81 222.99 371.67 551.10 649.41 439.15 806.22 440.71 758.71 557.95 668.37 648.34 783.23 650.04
00083523 00000124 498.71 225.18 372.01 551.75 650.01 440.85 804.33 442.93 757.77 559.41 668.23 650.06 780.78 652.08
00083524 00000125 498.26 224.56 371.50 550.97 647.55 440.44 804.12 443.52 755.89 559.66 666.25 650.37 780.28 653.02
00083525 00000126 497.34 223.20 371.85 552.09 647.08 437.85 802.34 440.69 754.43 558.80 665.65 651.35 776.15 653.79
00083526 00000127 496.87 222.65 371.26 551.52 646.32 435.34 800.07 439.05 751.41 557.31 664.80 651.45 770.94 654.55
00083527 00000128 496.37 221.53 371.49 551.29 644.66 434.78 798.42 438.52 749.23 556.97 663.65 651.89 769.33 654.92
00083528 00000129 496.08 221.62 371.28 551.21 644.43 435.05 797.75 437.48 749.05 557.53 664.68 652.67 768.92 654.56
00083529 00000130 495.56 222.56 370.51 548.46 641.74 437.24 798.26 437.52 749.80 557.62 666.83 654.04 775.37 654.05
00083530 00000131 495.11 221.70 369.73 544.80 637.43 439.52 798.17 437.81 749.08 559.75 666.49 656.54 779.19 654.69
00083531 00000132 494.87 222.69 368.85 543.10 636.19 441.49 797.52 439.30 748.23 561.05 665.84 657.57 778.89 655.36
00083532 00000133 495.23 223.35 368.95 546.59 636.73 442.61 798.02 441.14 748.40 561.78 666.69 659.48 778.42 657.77
00083533 00000134 494.91 223.98 368.93 548.64 639.52 441.46 797.17 441.01 748.71 560.39 667.91 656.78 776.91 655.93
00083534 00000135 494.35 223.08 369.70 550.07 639.26 440.23 798.75 440.47 750.50 559.99 665.38 654.71 779.32 654.65
00083535 00000136 493.41 223.01 370.94 549.67 640.16 439.11 799.71 440.17 751.30 559.48 663.37 651.18 780.06 651.95
00083536 00000137 493.47 223.26 370.76 548.84 640.54 439.38 799.76 440.33 751.40 559.13 663.45 650.61 780.05 651.33
00083537 00000138 493.35 223.48 370.71 549.32 641.10 439.60 799.30 440.77 751.25 559.18 663.99 650.70 779.29 651.59
00083538 00000139 493.98 223.77 370.20 548.21 641.17 439.79 799.31 440.87 751.06 558.49 664.57 650.92 779.26 651.77
00083539 00000140 494.06 224.17 369.85 548.56 640.96 440.43 798.28 440.79 750.41 558.29 665.75 651.77 779.13 651.99
00083540 00000141 494.32 224.00 370.19 548.12 641.16 440.39 798.97 440.96 750.68 558.19 666.57 651.87 779.48 652.19
00083541 00000142 495.19 224.24 369.21 547.22 641.87 441.00 799.01 440.71 750.93 558.03 668.18 652.17 779.65 651.74
00083542 00000143 495.49 224.67 369.46 547.91 643.00 441.63 798.81 442.06 751.27 557.67 669.22 652.63 779.24 652.80
00083543 00000144 495.37 224.77 369.40 547.74 642.69 442.39 798.95 442.56 751.33 558.69 668.78 653.49 779.12 653.45
00083544 00000145 496.36 224.68 369.02 549.53 643.50 442.39 799.20 443.04 752.12 558.50 669.38 654.12 779.13 654.56
00083545 00000146 496.06 225.16 369.53 550.93 644.08 442.44 798.52 443.12 751.80 558.58 670.17 654.68 778.21 655.10
00083546 00000147 496.11 225.22 369.31 550.89 644.40 442.53 798.22 442.96 751.81 558.74 670.90 654.80 778.19 655.00
00083547 00000148 496.02 225.73 369.47 549.01 644.37 442.83 798.07 442.77 751.62 558.62 671.47 654.83 778.26 654.53
00083548 00000149 496.45 225.62 369.50 549.59 644.75 442.61 798.49 443.45 751.74 558.76 671.00 655.36 777.34 655.80
00083549 00000150 496.36 224.99 370.06 552.26 645.63 442.41 798.30 443.54 752.73 558.22 672.23 655.57 777.23 656.31
00083550 00000151 496.95 225.32 369.91 552.10 646.34 442.49 798.28 444.06 752.63 558.08 672.44 655.33 776.81 656.47
00083551 00000152 497.00 225.70 370.16 551.85 645.99 442.72 798.75 444.42 752.77 558.75 672.44 656.46 776.94 657.71
00083552 00000153 497.25 225.60 369.56 551.70 646.34 443.11 798.41 444.81 752.96 559.50 672.63 657.70 776.04 658.99
00083553 00000154 497.02 225.47 370.03 551.71 645.94 442.97 798.29 444.34 752.66 559.24 672.61 658.63 775.36 659.60
00083554 00000155 497.03 226.07 369.52 553.62 647.58 442.50 797.53 444.35 753.18 559.06 672.90 660.81 771.91 662.36
00083555 00000156 496.28 225.67 370.29 554.38 646.53 441.40 797.82 443.25 752.83 557.57 671.96 660.47 771.70 661.97
00083556 DELETE   495.59 221.79 368.83 554.21 643.49 446.92 794.50 448.00 749.30 558.27 669.50 657.07 774.42 657.98
00083557 DELETE   493.46 218.54 371.16 554.76 647.61 455.76 806.85 462.28 752.97 560.12 663.50 645.90 783.29 653.29
00083558 DELETE   489.22 213.14 370.26 552.85 634.62 442.38 793.10 441.33 746.90 554.30 662.39 652.19 777.08 651.29
00083559 00000160 483.82 212.85 371.49 553.00 628.15 439.80 786.34 433.83 742.37 557.27 659.20 655.36 772.61 650.14
00083560 00000161 483.33 220.21 367.08 548.25 623.39 444.68 781.72 434.48 739.77 560.38 658.69 662.19 771.03 653.65
00083561 00000162 481.08 231.40 368.51 548.17 626.55 448.31 779.19 442.57 736.96 565.68 661.16 671.25 759.96 666.44
00083562 00000163 479.25 238.11 369.57 546.15 626.53 458.46 777.18 453.61 734.36 577.89 659.93 682.94 753.08 678.99
00083563 00000164 478.63 240.42 371.39 544.50 621.34 459.04 774.77 456.53 726.37 578.61 653.47 681.78 747.25 679.80
00083564 00000165 480.37 240.63 370.46 536.06 621.79 454.60 774.79 453.92 724.12 573.92 650.36 673.53 746.35 672.44
00083565 00000166 482.15 235.05 369.26 534.19 625.17 443.70 774.96 443.07 725.78 559.81 652.97 661.35 745.03 660.01
CROP_BBOX: 265 0 1183 958
