Video ID: 	GBiDn-pl3xM
H: 	2160
W: 	3840
FPS: 	24.0

FRAME INDEX X0 Y0 W H [Landmarks (5 Points)]

00009649 00000000 1478.82 279.93 372.30 534.68 1638.61 462.79 1789.43 477.08 1791.81 512.68 1691.77 646.12 1810.43 657.73
00009650 00000001 1458.02 276.85 386.61 542.48 1631.82 459.62 1784.00 473.83 1795.69 526.50 1686.74 654.66 1807.01 669.35
00009651 00000002 1445.90 277.33 387.21 540.49 1623.77 469.20 1774.05 478.96 1784.53 538.66 1677.74 660.21 1795.38 671.18
00009652 DELETE   1434.61 274.38 381.78 547.12 1621.21 484.30 1766.43 490.66 1772.63 554.38 1672.58 671.53 1784.39 679.36
00009653 00000004 1425.14 279.96 376.86 546.82 1611.39 506.45 1756.38 511.91 1758.84 572.09 1664.14 687.14 1773.60 693.07
00009654 DELETE   1419.10 302.84 381.38 533.03 1606.46 524.53 1754.51 524.06 1744.26 589.24 1646.19 701.69 1770.51 699.65
00009655 00000006 1409.57 314.93 382.89 531.22 1598.07 539.54 1744.78 530.43 1731.39 613.03 1633.35 714.64 1752.76 707.39
00009656 00000007 1398.64 323.22 381.88 533.54 1589.90 551.18 1735.35 541.73 1721.06 624.04 1615.44 724.05 1736.06 717.33
00009657 00000008 1396.67 325.69 371.98 559.25 1571.66 548.73 1725.08 551.59 1709.16 635.25 1604.80 748.47 1720.65 751.66
00009658 00000009 1387.91 330.97 371.68 565.37 1563.25 548.94 1718.47 558.68 1697.88 640.21 1583.22 753.72 1702.23 762.69
00009659 00000010 1382.13 330.26 376.96 555.48 1554.44 544.36 1715.11 551.42 1688.09 634.70 1566.76 739.28 1698.24 745.27
00009660 00000011 1378.59 323.59 375.28 554.91 1546.06 524.70 1709.37 538.50 1681.57 609.91 1556.62 720.77 1693.79 733.11
00009661 00000012 1369.56 308.01 373.61 556.94 1532.44 508.36 1697.83 521.48 1672.44 586.88 1549.41 702.11 1691.91 714.87
00009662 00000013 1362.06 301.53 375.17 545.78 1523.85 504.02 1685.18 518.71 1655.75 577.78 1535.28 691.52 1675.80 700.75
00009663 00000014 1358.03 292.91 374.94 549.05 1516.35 497.29 1678.30 516.02 1649.27 567.88 1527.78 679.50 1668.29 693.79
00009664 00000015 1352.27 289.67 376.15 537.60 1510.11 500.24 1670.76 513.30 1642.30 567.11 1529.09 677.17 1666.85 687.39
00009665 00000016 1351.20 291.61 378.40 531.61 1507.54 502.53 1666.52 510.07 1639.10 566.58 1539.31 678.53 1667.46 684.24
00009666 00000017 1351.88 294.17 383.85 534.51 1507.97 510.39 1668.32 508.98 1639.62 573.39 1547.91 687.63 1673.37 685.83
00009667 00000018 1352.63 299.77 391.22 534.37 1504.75 519.55 1672.45 510.47 1637.88 582.69 1551.92 703.52 1679.81 695.12
00009668 00000019 1354.94 307.08 395.29 533.46 1505.22 528.44 1676.23 514.94 1639.65 586.61 1563.03 712.86 1686.51 700.84
00009669 00000020 1360.24 308.52 392.48 541.24 1508.90 532.25 1680.65 513.18 1643.01 593.50 1577.48 724.60 1686.30 708.12
00009670 00000021 1366.04 304.04 388.73 563.76 1512.34 530.56 1679.01 511.14 1649.27 597.44 1582.64 733.18 1691.32 719.86
00009671 00000022 1374.84 306.72 384.90 567.81 1515.46 537.20 1681.62 513.45 1650.69 603.49 1588.06 739.62 1697.47 723.21
00009672 00000023 1381.40 316.80 385.26 572.13 1520.53 546.67 1687.53 522.50 1653.43 606.08 1588.55 750.33 1701.57 732.90
00009673 00000024 1384.69 320.17 388.76 568.26 1521.21 551.91 1690.85 521.49 1653.77 610.30 1593.36 754.17 1702.87 729.81
00009674 00000025 1392.43 319.80 383.29 583.67 1524.51 551.24 1699.23 528.05 1657.44 617.57 1581.54 759.47 1709.06 741.70
00009675 00000026 1397.11 319.80 384.59 584.10 1525.97 552.10 1705.76 529.92 1657.66 625.60 1575.47 758.93 1713.19 740.90
00009676 00000027 1400.41 323.59 385.82 573.08 1531.14 557.82 1712.15 540.26 1659.42 632.43 1571.44 755.80 1714.28 741.30
00009677 00000028 1399.12 319.79 395.39 555.42 1532.13 557.78 1711.64 532.64 1657.49 632.23 1581.38 749.41 1715.04 729.62
00009678 00000029 1401.13 316.50 396.18 551.12 1535.28 554.19 1715.24 532.36 1659.95 632.34 1580.30 746.92 1718.06 729.78
00009679 00000030 1403.46 318.34 394.42 546.58 1538.55 554.23 1717.51 535.19 1661.69 628.12 1581.79 744.34 1718.67 729.42
00009680 00000031 1404.79 320.87 392.82 545.97 1541.41 553.01 1720.03 538.19 1663.31 624.58 1579.86 741.28 1716.89 729.46
00009681 00000032 1405.59 320.98 392.55 549.52 1541.69 550.64 1721.36 537.43 1663.06 623.19 1576.67 738.35 1714.53 727.64
00009682 00000033 1406.88 321.03 392.82 558.06 1543.02 550.79 1723.29 539.46 1665.00 622.01 1573.70 737.62 1714.47 728.34
00009683 00000034 1407.72 324.75 392.03 557.35 1546.02 553.74 1725.73 543.80 1667.18 623.55 1573.90 738.67 1716.74 730.37
00009684 00000035 1408.68 324.95 391.96 560.83 1548.84 555.22 1727.54 546.87 1669.71 623.19 1576.46 740.72 1717.90 733.62
00009685 00000036 1411.87 325.41 389.41 564.38 1548.75 555.22 1727.11 545.87 1669.11 624.48 1580.32 746.40 1715.41 738.59
00009686 00000037 1413.85 325.42 387.92 566.63 1551.67 553.30 1729.21 546.46 1670.17 624.54 1577.42 744.90 1715.59 739.02
00009687 00000038 1414.29 326.80 388.41 572.09 1552.90 552.17 1729.99 546.08 1670.41 624.56 1576.71 745.64 1714.53 740.23
00009688 00000039 1417.10 327.98 387.25 595.58 1550.61 552.22 1730.20 551.68 1673.18 623.83 1574.06 761.16 1711.51 758.60
00009689 00000040 1417.10 326.85 389.48 602.50 1550.29 551.37 1731.57 551.56 1673.46 623.57 1575.35 765.06 1712.29 762.72
00009690 00000041 1418.25 327.17 387.58 602.29 1551.15 550.64 1731.95 550.58 1674.58 623.54 1575.97 764.00 1712.97 761.56
00009691 00000042 1419.19 326.20 386.37 603.58 1552.23 549.78 1732.91 549.32 1676.21 623.32 1576.41 763.12 1714.47 760.56
00009692 00000043 1420.25 326.93 385.32 599.84 1552.96 550.39 1733.49 549.43 1677.23 625.54 1577.09 762.33 1715.82 759.48
00009693 00000044 1419.39 325.52 386.70 592.55 1553.89 550.93 1734.95 550.97 1678.15 626.56 1579.81 761.54 1715.79 759.07
00009694 00000045 1419.33 324.41 384.95 567.72 1557.94 552.11 1733.66 545.04 1675.26 629.90 1586.30 752.62 1717.58 746.25
00009695 00000046 1421.60 325.25 386.33 556.73 1558.73 554.43 1735.30 547.12 1677.59 628.61 1588.17 743.36 1721.73 735.90
00009696 00000047 1421.70 324.09 387.09 552.89 1559.67 554.70 1736.37 546.84 1678.86 630.21 1590.19 742.06 1724.19 734.12
00009697 00000048 1422.25 323.34 387.06 550.56 1560.09 554.77 1737.32 546.62 1679.40 628.79 1590.33 739.59 1725.71 731.55
00009698 00000049 1421.86 323.46 386.82 547.47 1559.96 554.71 1736.98 546.35 1679.70 627.82 1590.04 736.89 1725.71 728.79
00009699 00000050 1422.19 323.03 385.72 543.79 1559.48 554.44 1735.93 544.95 1677.91 626.81 1589.94 733.26 1726.21 724.37
00009700 00000051 1417.73 320.69 386.99 545.60 1556.21 551.61 1730.58 540.52 1673.75 623.48 1588.04 732.18 1719.28 723.26
00009701 00000052 1415.26 321.08 388.64 546.89 1554.64 551.43 1728.69 541.19 1673.41 621.56 1586.98 731.66 1716.51 723.39
00009702 00000053 1412.85 320.74 389.97 546.96 1552.54 550.11 1726.58 540.49 1672.47 619.00 1589.23 732.55 1714.59 724.71
00009703 00000054 1410.63 319.97 389.06 552.71 1551.17 551.22 1724.16 539.90 1669.45 620.41 1589.38 736.83 1711.64 727.94
00009704 00000055 1412.15 323.47 384.18 567.92 1548.22 549.72 1723.37 541.71 1667.83 618.83 1584.91 748.90 1704.56 741.99
00009705 00000056 1413.26 323.01 385.06 597.28 1543.18 546.94 1724.39 541.95 1666.74 618.35 1573.84 758.68 1703.97 753.31
00009706 00000057 1411.95 324.14 386.43 600.68 1542.86 545.77 1725.00 543.25 1666.79 619.60 1568.19 756.57 1705.49 753.12
00009707 00000058 1411.90 320.65 385.92 583.96 1544.69 544.69 1724.97 540.13 1665.18 618.90 1569.67 746.01 1706.47 741.52
00009708 00000059 1410.37 319.59 386.07 561.45 1545.29 545.19 1722.99 536.11 1665.15 616.80 1577.23 738.96 1710.89 731.64
00009709 00000060 1413.03 317.30 383.29 552.17 1545.75 543.46 1723.64 533.99 1667.26 617.12 1578.96 732.81 1711.71 725.35
00009710 00000061 1409.50 316.67 385.98 547.56 1548.26 548.03 1722.94 537.92 1668.08 616.88 1583.01 732.07 1712.78 724.22
00009711 00000062 1410.01 315.01 388.18 549.35 1545.54 547.15 1724.51 536.22 1667.36 615.68 1578.66 729.65 1716.46 721.21
00009712 00000063 1409.24 315.66 389.01 546.97 1544.19 545.24 1724.39 533.59 1667.07 613.73 1578.82 727.44 1717.85 718.35
00009713 00000064 1410.43 316.45 387.50 543.26 1543.66 545.44 1724.55 532.44 1666.30 615.27 1576.26 723.65 1719.42 713.26
00009714 00000065 1409.30 314.70 387.11 542.61 1546.18 546.83 1724.73 535.13 1667.25 612.49 1573.59 718.31 1719.81 709.28
00009715 00000066 1410.27 319.23 387.62 551.03 1543.56 546.55 1724.33 536.59 1665.11 614.52 1570.91 724.45 1715.40 716.37
00009716 00000067 1409.44 320.61 386.52 554.57 1544.24 546.42 1723.66 536.35 1664.90 617.22 1572.27 730.81 1712.09 722.85
00009717 00000068 1409.32 319.56 387.04 551.12 1542.76 546.60 1723.01 535.98 1664.14 617.20 1570.22 727.88 1715.02 719.44
00009718 00000069 1409.07 319.26 387.77 552.12 1542.52 544.66 1723.50 535.24 1664.90 616.93 1567.85 725.47 1714.56 717.78
00009719 00000070 1408.85 319.06 387.67 552.18 1541.13 544.09 1723.26 534.45 1662.41 616.69 1567.78 727.32 1713.15 719.70
00009720 00000071 1408.49 318.92 386.71 555.09 1541.93 543.17 1722.79 535.01 1661.91 617.11 1568.74 730.35 1709.29 723.94
00009721 00000072 1407.96 320.52 385.98 558.91 1541.48 543.07 1721.54 534.54 1662.14 617.02 1568.91 733.04 1706.25 726.31
00009722 00000073 1407.68 319.26 386.61 563.09 1541.11 543.02 1722.73 533.84 1663.06 617.39 1568.73 734.88 1707.19 727.54
00009723 00000074 1406.79 319.49 386.90 566.86 1540.78 541.98 1722.34 534.39 1662.54 615.29 1568.62 736.78 1705.56 730.56
00009724 00000075 1408.15 319.13 385.05 572.89 1540.06 540.56 1722.15 533.93 1663.15 614.84 1568.11 738.63 1705.04 732.88
00009725 00000076 1408.62 317.37 385.03 591.70 1538.29 537.94 1721.96 534.46 1667.29 614.48 1566.50 746.64 1703.55 742.65
00009726 00000077 1409.95 320.78 381.41 583.44 1539.91 540.03 1719.09 535.78 1666.18 613.95 1571.36 749.04 1700.17 744.65
00009727 00000078 1406.48 317.67 385.94 567.56 1544.75 543.16 1720.94 535.61 1666.95 608.92 1578.20 737.95 1704.86 732.09
00009728 00000079 1407.64 308.97 385.25 554.13 1543.21 535.51 1721.55 527.35 1668.54 601.60 1582.22 726.86 1708.06 721.09
00009729 00000080 1409.71 303.07 386.09 546.05 1544.45 533.03 1721.82 521.24 1667.29 592.51 1589.52 715.32 1720.69 704.58
00009730 00000081 1409.62 292.73 391.38 545.53 1543.21 522.74 1722.09 510.42 1668.36 582.22 1582.39 700.52 1725.72 689.86
00009731 00000082 1412.84 289.04 391.11 551.45 1544.34 517.67 1724.50 507.47 1668.71 580.11 1577.67 696.76 1725.96 688.00
00009732 00000083 1417.17 286.07 385.76 575.86 1548.68 512.37 1729.27 507.03 1674.25 575.00 1579.24 703.34 1724.03 698.16
00009733 00000084 1420.46 284.43 385.53 573.65 1552.67 512.91 1732.53 509.30 1677.28 576.11 1582.74 704.30 1724.51 700.51
00009734 00000085 1424.40 284.96 383.43 573.81 1557.44 510.92 1733.87 509.01 1683.02 571.93 1592.89 704.89 1726.93 702.40
00009735 00000086 1426.56 286.57 382.88 575.75 1559.37 511.69 1735.42 508.43 1687.99 574.21 1600.22 710.27 1730.24 706.75
00009736 00000087 1425.62 288.94 380.28 575.94 1555.51 512.85 1734.00 510.37 1684.23 573.72 1608.11 715.26 1725.64 712.75
00009737 00000088 1425.43 292.03 375.14 578.45 1556.95 515.33 1732.55 511.41 1684.06 576.21 1613.10 723.49 1720.83 720.06
00009738 00000089 1421.46 291.88 376.91 579.53 1556.85 515.82 1731.59 513.20 1685.28 581.75 1609.80 725.34 1719.08 722.70
00009739 00000090 1416.12 289.11 378.39 567.74 1556.03 514.49 1730.15 513.12 1683.85 582.35 1604.48 718.05 1718.52 716.50
00009740 00000091 1415.88 293.39 383.42 553.42 1556.10 519.42 1728.35 513.82 1680.42 585.23 1599.54 710.49 1723.03 704.97
00009741 00000092 1411.97 297.26 385.52 553.76 1550.62 522.93 1728.69 515.94 1678.77 591.18 1590.00 711.47 1724.69 704.53
00009742 00000093 1409.45 302.81 389.07 549.61 1546.68 532.38 1729.10 523.72 1671.35 603.47 1585.06 717.86 1722.87 708.86
00009743 00000094 1408.08 302.88 388.93 551.11 1545.82 529.54 1726.68 520.79 1672.18 599.78 1585.60 716.76 1717.81 710.09
00009744 00000095 1410.40 309.25 385.28 544.27 1548.13 534.41 1728.04 526.53 1671.97 606.28 1586.13 718.70 1720.96 709.96
00009745 00000096 1413.20 309.42 382.89 541.48 1552.18 538.40 1728.65 530.25 1673.83 607.15 1587.56 717.99 1721.70 709.46
00009746 00000097 1413.54 306.89 384.41 539.56 1550.52 535.71 1730.00 528.99 1672.93 606.25 1585.17 713.37 1722.68 705.87
00009747 00000098 1416.44 306.67 382.44 540.65 1550.24 531.10 1731.20 524.74 1672.81 606.62 1582.41 710.65 1723.65 703.42
00009748 00000099 1415.84 305.48 382.28 549.78 1549.31 526.25 1732.70 522.15 1673.11 600.71 1579.17 712.93 1719.20 709.53
00009749 00000100 1418.73 316.53 379.46 552.68 1548.47 532.81 1731.94 527.61 1673.05 608.74 1575.22 719.76 1720.85 715.24
00009750 00000101 1414.95 319.24 380.69 563.68 1549.67 537.26 1730.50 531.95 1672.34 613.56 1570.61 726.67 1714.36 722.38
00009751 00000102 1418.35 319.58 376.54 571.53 1556.12 538.75 1733.35 534.00 1679.05 614.38 1571.08 726.28 1715.17 722.75
00009752 00000103 1423.88 323.40 371.29 568.78 1566.09 524.19 1734.76 524.52 1695.59 601.44 1580.54 722.25 1725.86 723.55
00009753 DELETE   1432.14 300.25 375.78 562.69 1574.94 516.67 1747.17 513.83 1711.97 584.77 1598.38 700.32 1746.24 698.15
00009754 DELETE   1430.25 284.56 378.68 551.16 1588.27 499.53 1750.64 504.27 1735.41 565.29 1638.99 689.11 1766.36 694.22
00009755 00000106 1432.83 280.71 381.70 531.99 1597.19 484.94 1753.58 489.43 1750.20 546.95 1648.64 667.49 1774.76 672.93
00009756 00000107 1437.31 281.30 385.13 523.95 1602.35 478.27 1756.46 474.54 1760.24 537.85 1664.89 661.76 1784.55 660.50
00009757 00000108 1443.43 281.17 384.72 515.70 1605.95 473.95 1761.59 472.42 1765.61 529.10 1669.02 650.72 1790.84 651.15
00009758 00000109 1445.37 280.22 385.01 519.69 1609.56 473.66 1764.29 474.55 1769.50 530.16 1669.91 650.97 1790.84 653.53
00009759 00000110 1444.84 280.86 381.43 531.44 1611.63 479.20 1760.42 478.68 1769.84 540.13 1665.92 662.97 1784.17 664.81
00009760 00000111 1443.45 278.20 375.73 545.42 1609.32 488.79 1759.14 491.17 1762.23 555.40 1663.02 678.79 1776.60 683.55
00009761 00000112 1444.74 281.68 374.21 545.32 1605.31 497.37 1759.50 497.71 1756.71 564.75 1656.63 686.90 1776.75 689.16
00009762 00000113 1443.67 285.47 376.92 547.99 1603.99 502.27 1759.74 503.34 1757.79 571.74 1657.19 692.79 1777.83 695.36
00009763 00000114 1444.36 288.45 377.59 551.03 1605.09 506.79 1759.16 505.99 1758.01 577.44 1658.55 698.21 1778.99 699.26
00009764 00000115 1444.46 291.67 378.14 556.68 1604.29 509.42 1758.74 508.53 1757.05 580.76 1658.60 702.85 1779.15 704.04
00009765 00000116 1444.55 290.55 378.09 556.28 1603.00 510.10 1757.91 507.23 1754.20 582.81 1656.25 703.42 1778.14 702.78
00009766 00000117 1443.51 290.68 377.43 549.47 1601.71 507.52 1757.66 506.23 1753.86 580.60 1654.14 698.15 1776.75 698.40
00009767 00000118 1442.55 288.81 377.98 545.98 1599.80 504.13 1758.77 505.82 1751.76 576.23 1651.31 693.78 1775.13 696.56
00009768 00000119 1440.75 287.08 376.72 554.16 1599.37 501.89 1757.05 503.78 1750.87 574.51 1649.75 694.69 1773.09 697.98
00009769 00000120 1440.14 286.72 373.72 558.61 1599.25 501.99 1755.25 504.61 1745.39 570.86 1650.32 698.06 1768.69 702.19
00009770 00000121 1438.16 287.56 374.73 553.84 1592.54 495.41 1753.37 503.70 1738.47 563.32 1646.57 694.33 1764.51 702.51
00009771 00000122 1436.26 285.68 376.33 543.18 1582.32 483.79 1746.31 489.08 1726.43 547.54 1640.52 681.73 1758.38 687.22
00009772 00000123 1429.99 284.14 376.03 541.84 1575.28 475.97 1738.03 480.26 1713.36 537.28 1625.84 670.07 1746.78 674.78
00009773 00000124 1430.26 282.26 374.91 547.06 1571.90 477.75 1732.40 478.98 1698.65 536.55 1613.55 667.15 1737.92 666.80
00009774 00000125 1429.22 287.91 373.14 541.35 1576.88 489.71 1733.31 491.63 1697.86 543.13 1616.21 675.69 1736.08 676.37
00009775 00000126 1429.33 293.73 379.07 540.35 1578.54 503.60 1743.37 506.04 1707.13 567.50 1606.55 688.50 1744.81 690.05
00009776 00000127 1430.25 300.80 377.25 545.52 1579.53 515.72 1748.49 515.34 1710.05 584.44 1608.34 702.29 1750.51 700.69
00009777 00000128 1434.67 313.21 372.66 538.99 1587.92 530.30 1750.48 525.32 1717.17 605.61 1614.95 714.69 1752.36 710.08
00009778 DELETE   1432.55 324.09 368.83 540.03 1590.58 535.37 1748.83 533.99 1726.17 616.11 1619.04 723.08 1746.64 722.57
00009779 DELETE   1428.00 332.43 370.31 537.80 1589.86 544.45 1747.71 542.38 1725.73 627.53 1620.25 732.05 1745.47 730.73
00009780 00000131 1426.94 332.40 373.31 539.79 1595.71 552.05 1746.99 545.77 1726.14 632.66 1630.53 741.57 1744.29 736.12
00009781 00000132 1427.14 332.16 367.18 543.80 1596.74 552.23 1745.29 546.12 1728.53 634.60 1636.77 746.08 1740.58 740.63
00009782 00000133 1426.04 330.03 365.64 546.83 1590.00 544.02 1740.71 538.91 1721.38 628.00 1631.45 743.59 1734.55 738.73
00009783 00000134 1424.40 314.35 363.69 549.54 1583.15 533.02 1738.90 529.96 1716.50 608.90 1620.68 725.46 1738.60 722.64
00009784 DELETE   1421.90 299.06 361.25 551.30 1577.69 519.35 1735.69 519.88 1714.33 590.10 1611.13 705.16 1742.68 704.74
00009785 00000136 1420.10 296.81 357.79 546.43 1576.30 512.92 1731.95 513.49 1714.63 583.76 1607.26 696.06 1739.31 695.37
00009786 00000137 1420.93 288.31 358.52 542.50 1578.26 500.21 1728.38 496.53 1718.78 569.58 1612.98 689.14 1739.23 686.26
00009787 00000138 1420.73 277.28 356.28 543.77 1580.77 491.57 1727.51 487.93 1723.87 556.28 1624.08 684.02 1740.94 680.75
00009788 00000139 1422.47 272.38 361.86 540.94 1583.29 483.49 1729.67 478.86 1725.03 542.20 1631.47 664.99 1748.25 661.04
00009789 00000140 1420.74 272.99 363.71 527.49 1581.40 477.54 1727.24 473.42 1722.43 534.61 1633.02 655.05 1749.47 651.61
00009790 00000141 1418.19 271.32 364.10 521.60 1579.43 476.01 1725.53 471.92 1720.23 534.29 1628.85 652.92 1747.72 649.70
00009791 00000142 1414.02 275.69 363.19 524.15 1577.75 479.01 1721.47 476.42 1718.62 542.11 1625.68 660.67 1741.91 658.27
00009792 00000143 1410.52 278.25 359.71 530.99 1576.38 484.90 1717.79 479.78 1715.10 547.98 1628.82 671.55 1737.21 667.32
00009793 00000144 1412.08 281.23 350.78 531.36 1570.93 481.44 1714.92 481.38 1714.52 561.01 1625.28 680.03 1729.37 682.09
00009794 00000145 1407.29 286.64 354.66 531.37 1570.16 490.25 1717.33 494.38 1714.02 573.16 1615.85 688.01 1724.30 692.88
00009795 00000146 1395.56 290.64 358.66 557.03 1564.48 495.14 1713.37 502.23 1712.29 583.26 1602.27 708.01 1714.34 715.72
00009796 00000147 1393.19 302.72 356.70 569.94 1566.38 506.00 1714.64 515.06 1710.98 595.28 1579.88 719.51 1699.73 729.00
00009797 00000148 1393.29 307.56 356.99 562.80 1565.13 513.38 1710.75 519.15 1708.40 606.75 1573.39 723.45 1695.09 729.69
00009798 00000149 1389.36 308.23 358.19 556.11 1563.69 518.08 1705.41 519.15 1709.15 605.12 1590.10 724.39 1700.11 727.34
00009799 00000150 1388.65 310.68 353.33 543.52 1560.75 514.34 1698.29 517.13 1708.72 600.33 1598.79 718.52 1703.54 722.65
00009800 00000151 1386.69 305.20 353.99 546.53 1560.58 510.88 1697.74 516.67 1709.33 596.76 1600.98 714.32 1702.46 720.96
00009801 00000152 1382.70 305.37 354.15 546.30 1556.33 510.04 1694.33 514.85 1706.07 592.75 1602.79 715.65 1700.97 721.61
00009802 00000153 1378.86 297.33 355.72 555.95 1554.30 508.92 1693.57 512.29 1705.12 591.33 1608.82 717.91 1702.42 723.03
00009803 00000154 1375.35 293.34 359.13 562.78 1550.88 507.07 1691.73 508.45 1704.53 590.83 1610.46 720.16 1703.20 723.87
00009804 00000155 1374.99 288.70 358.29 572.41 1549.78 507.08 1692.15 508.97 1703.95 591.53 1608.88 723.25 1701.73 727.59
00009805 00000156 1376.08 290.77 355.47 579.40 1547.70 511.71 1691.31 511.64 1699.99 596.50 1606.19 730.88 1698.72 733.71
00009806 00000157 1367.93 294.78 364.80 589.65 1548.44 516.96 1692.43 517.92 1701.24 597.86 1605.77 732.68 1697.05 736.57
00009807 00000158 1368.97 296.39 359.01 597.44 1549.23 522.28 1690.57 523.41 1698.73 608.84 1606.06 742.42 1692.18 746.45
00009808 00000159 1367.37 301.86 360.22 599.00 1548.71 528.66 1691.92 533.92 1696.63 619.93 1596.03 748.62 1686.67 755.53
00009809 00000160 1368.65 310.16 359.66 596.68 1547.86 533.25 1692.46 542.77 1687.90 633.27 1572.60 754.65 1672.32 763.81
00009810 00000161 1370.70 317.36 352.75 598.08 1544.86 536.83 1690.43 549.28 1681.82 644.12 1542.27 757.08 1659.16 768.68
00009811 00000162 1376.95 324.98 347.57 586.57 1536.92 552.49 1678.91 561.69 1676.31 658.23 1523.77 758.68 1652.38 767.17
