Video ID: 	KDmVoKJXEKE
H: 	1080
W: 	1920
FPS: 	25.0

FRAME INDEX X0 Y0 W H [Landmarks (5 Points)]

00017961 00000000 768.90 265.05 400.16 623.45 1077.87 476.25 1107.16 477.51 1164.31 622.10 1015.03 714.37 1042.12 719.20
00017962 00000001 769.73 274.77 400.45 607.71 1079.61 474.67 1108.68 473.06 1165.15 624.17 1022.08 716.93 1047.48 719.47
00017963 00000002 774.23 273.03 396.76 614.72 1082.71 474.84 1107.85 472.46 1167.29 623.01 1023.00 718.70 1045.90 720.68
00017964 00000003 774.30 267.63 400.91 616.48 1086.51 478.20 1114.95 475.74 1175.34 624.34 1034.14 722.34 1055.20 724.44
00017965 00000004 771.45 269.56 408.27 618.11 1090.79 475.19 1118.50 473.44 1180.41 624.74 1037.15 726.18 1057.04 728.57
00017966 00000005 771.30 243.81 413.51 641.47 1093.22 461.17 1115.62 456.45 1189.46 607.70 1039.92 710.27 1056.73 711.64
00017967 00000006 778.49 218.73 398.00 646.08 1083.78 457.91 1113.76 455.56 1188.80 587.40 1043.90 696.48 1070.05 699.60
00017968 00000007 774.64 219.14 404.10 624.28 1084.15 442.64 1112.12 423.45 1193.76 563.25 1058.31 682.02 1077.43 672.13
00017969 DELETE   765.06 188.61 416.18 633.59 1078.84 400.22 1099.04 382.91 1192.12 525.54 1062.85 653.05 1077.38 644.48
00017970 00000009 763.57 170.63 409.06 635.72 1074.95 375.35 1082.47 348.54 1191.95 503.14 1056.67 636.93 1061.45 622.38
00017971 00000010 759.68 165.59 408.48 643.04 1061.46 366.94 1075.60 340.80 1179.80 495.57 1046.78 631.81 1058.05 619.15
00017972 00000011 734.49 140.49 425.99 665.75 1055.54 355.10 1074.63 332.48 1179.57 488.02 1045.24 624.24 1061.77 614.06
00017973 00000012 730.86 158.11 428.89 647.57 1050.72 357.88 1066.52 331.86 1175.19 490.76 1042.04 624.68 1057.76 611.34
00017974 00000013 732.31 154.17 424.10 640.37 1042.56 352.19 1064.20 329.47 1171.07 481.68 1038.12 617.13 1058.96 606.39
00017975 00000014 716.93 137.86 439.68 655.44 1038.66 348.74 1062.59 325.32 1169.09 477.98 1038.78 612.84 1061.55 600.84
00017976 00000015 716.40 138.39 440.56 654.51 1036.25 350.09 1061.88 326.84 1167.85 478.41 1036.90 612.91 1062.16 601.08
00017977 00000016 728.28 139.06 426.94 665.00 1044.49 358.60 1064.36 330.35 1171.82 489.32 1034.03 622.14 1055.25 607.31
00017978 00000017 748.14 182.52 402.91 621.49 1045.73 381.12 1068.60 361.12 1159.58 510.99 1025.75 632.01 1040.62 623.17
00017979 00000018 740.51 199.63 414.81 627.38 1054.21 404.22 1065.55 380.41 1163.90 533.54 1019.07 653.33 1029.88 639.32
00017980 00000019 750.06 201.91 404.66 621.77 1053.07 423.38 1072.26 397.70 1155.63 552.00 1016.96 667.04 1028.98 651.46
00017981 00000020 764.57 191.91 396.01 651.36 1068.04 430.03 1083.85 408.81 1165.43 564.14 1024.16 682.52 1036.32 670.66
00017982 00000021 772.78 206.25 389.40 651.29 1069.58 438.97 1089.95 430.19 1167.68 569.47 1018.62 683.45 1042.99 682.42
00017983 00000022 771.03 233.44 398.54 625.80 1070.59 453.60 1097.21 442.48 1172.26 586.12 1020.18 691.03 1047.41 688.67
00017984 00000023 764.81 236.45 402.89 633.19 1080.67 455.80 1104.49 449.46 1174.52 591.92 1025.69 698.26 1049.27 699.26
00017985 00000024 762.90 258.90 408.73 615.23 1072.98 463.68 1106.02 459.04 1171.23 604.65 1018.99 704.99 1047.52 706.88
00017986 00000025 763.50 259.30 404.52 620.01 1079.49 479.13 1108.50 474.03 1172.47 611.67 1024.27 709.47 1052.32 710.49
00017987 00000026 779.75 260.77 390.45 619.39 1085.58 482.86 1113.92 478.23 1177.56 618.63 1025.80 715.68 1052.41 717.64
00017988 00000027 777.75 263.95 396.87 621.57 1089.46 477.75 1121.16 477.29 1180.79 617.99 1028.88 715.57 1056.95 719.56
00017989 00000028 780.14 268.79 396.85 618.76 1094.95 480.11 1121.67 477.23 1183.19 618.09 1034.95 719.60 1058.85 720.97
00017990 00000029 774.58 250.66 402.85 634.49 1094.97 483.45 1128.13 480.15 1189.14 618.45 1040.27 719.37 1065.73 721.22
00017991 00000030 790.93 273.65 388.82 615.91 1101.24 484.43 1132.61 485.02 1190.00 627.95 1043.14 722.87 1068.11 726.85
00017992 00000031 789.14 281.57 384.44 607.13 1096.16 488.37 1128.90 486.91 1189.03 628.74 1043.59 726.41 1070.33 729.09
00017993 00000032 790.38 285.56 393.46 611.98 1099.22 492.41 1137.78 492.07 1192.02 640.93 1040.83 732.23 1069.84 735.49
00017994 00000033 787.56 265.73 399.54 639.50 1108.77 505.77 1139.31 503.71 1192.67 653.55 1041.55 742.27 1062.58 743.83
00017995 00000034 782.88 286.67 402.59 626.21 1112.15 517.75 1140.98 522.61 1191.58 669.01 1041.09 748.82 1066.85 755.90
00017996 00000035 775.55 271.52 411.19 641.63 1118.12 522.53 1139.85 524.97 1192.18 678.22 1035.42 753.53 1054.46 759.12
00017997 00000036 777.01 291.55 405.05 611.73 1107.57 518.43 1135.13 518.51 1186.46 668.03 1037.41 746.04 1057.89 750.09
00017998 00000037 775.64 279.96 398.27 625.77 1093.94 510.18 1127.40 510.89 1176.77 658.31 1024.69 739.82 1051.80 744.87
00017999 00000038 780.74 276.52 387.42 609.36 1084.57 501.11 1119.48 503.75 1163.70 643.67 1015.19 721.81 1045.35 727.94
00018000 00000039 762.66 256.81 391.92 611.51 1076.46 497.90 1105.48 497.67 1159.96 625.94 1023.46 706.94 1049.96 711.80
00018001 00000040 773.36 282.42 382.31 594.85 1069.07 492.66 1105.70 490.25 1152.78 625.68 1021.67 711.46 1054.01 713.41
00018002 00000041 781.89 298.33 378.93 578.75 1069.51 490.67 1112.60 488.65 1154.00 626.94 1027.62 713.44 1063.34 715.61
00018003 00000042 776.94 288.29 389.62 593.90 1079.66 492.55 1119.79 492.35 1164.24 632.77 1028.92 719.39 1058.08 723.48
00018004 00000043 773.72 283.51 397.93 609.99 1090.36 487.22 1124.83 489.67 1171.75 638.63 1025.26 724.99 1051.58 731.53
00018005 00000044 773.03 288.68 406.15 600.49 1091.13 489.66 1125.49 487.46 1178.13 636.04 1034.14 726.01 1057.82 728.88
00018006 00000045 775.17 296.43 412.14 593.13 1089.06 482.67 1121.14 474.57 1182.36 630.80 1036.10 726.11 1058.12 725.28
00018007 00000046 775.43 271.14 408.64 609.09 1092.76 476.56 1123.66 466.63 1191.92 620.53 1040.42 722.26 1060.48 720.47
00018008 00000047 788.18 270.17 399.83 606.15 1093.46 474.88 1126.29 462.18 1190.10 619.87 1037.70 721.55 1059.96 717.59
00018009 00000048 793.58 281.63 398.98 601.75 1093.00 468.98 1125.95 457.78 1191.84 615.60 1037.48 719.52 1062.08 716.65
00018010 00000049 787.64 278.94 404.46 610.47 1085.45 469.49 1130.66 463.43 1192.21 612.97 1038.09 718.77 1071.85 719.23
00018011 00000050 772.97 280.79 416.70 611.02 1082.28 472.76 1131.59 467.66 1193.97 615.13 1039.51 722.66 1074.07 724.23
00018012 00000051 774.29 265.74 419.80 626.93 1090.66 472.00 1135.16 470.12 1193.95 620.75 1035.06 721.12 1067.91 724.81
00018013 00000052 783.24 250.31 417.98 665.28 1104.29 467.96 1136.26 466.94 1202.55 621.36 1031.06 725.84 1062.44 729.69
00018014 00000053 767.07 256.57 436.16 673.33 1108.60 463.29 1134.67 469.09 1207.06 623.78 1035.10 733.01 1058.14 741.78
00018015 00000054 777.93 272.54 420.17 648.07 1100.01 469.75 1136.89 473.91 1200.73 628.12 1033.28 736.17 1063.36 744.01
00018016 00000055 785.85 279.95 402.78 623.76 1093.90 483.26 1132.28 484.64 1190.66 634.58 1036.30 735.24 1064.43 740.28
00018017 00000056 782.56 278.82 403.72 619.04 1089.92 494.41 1127.70 493.43 1185.76 636.04 1037.09 735.20 1063.50 738.94
00018018 00000057 787.27 276.23 399.95 624.01 1092.62 497.56 1129.66 498.59 1188.63 637.91 1041.41 736.20 1069.19 740.80
00018019 00000058 784.46 272.64 402.26 623.74 1091.91 495.71 1133.18 496.48 1189.18 634.94 1048.15 734.06 1076.26 737.25
00018020 00000059 780.87 275.21 406.40 619.04 1091.14 486.25 1130.38 487.34 1188.93 628.35 1043.11 730.06 1072.03 734.24
00018021 00000060 784.05 272.54 402.47 616.15 1097.22 483.02 1131.34 485.83 1192.85 623.37 1049.50 723.66 1075.04 728.84
00018022 00000061 776.19 266.48 414.14 623.44 1097.07 484.01 1130.43 484.68 1194.09 617.69 1051.42 718.38 1077.48 721.96
00018023 00000062 779.13 274.84 412.38 601.47 1092.94 479.90 1127.94 479.72 1189.75 606.47 1057.95 706.64 1085.00 709.68
00018024 00000063 781.57 272.64 413.55 599.91 1094.40 478.11 1134.07 477.80 1189.49 605.97 1057.78 703.80 1087.67 707.08
00018025 00000064 782.32 274.68 415.20 601.18 1089.68 474.05 1138.62 474.37 1189.97 605.03 1051.76 699.87 1093.27 704.00
00018026 00000065 772.96 276.12 428.37 601.91 1087.57 466.23 1137.07 469.41 1192.10 601.27 1052.13 698.46 1092.93 705.00
00018027 00000066 769.27 261.62 427.55 617.96 1096.42 467.63 1127.49 464.69 1194.49 604.84 1049.74 704.09 1073.77 705.79
00018028 00000067 767.17 267.64 428.46 612.61 1092.77 465.75 1125.73 464.73 1189.70 605.02 1045.95 704.24 1072.08 707.79
00018029 00000068 773.62 263.67 418.30 616.53 1093.18 462.58 1127.50 463.12 1191.46 604.32 1040.23 702.71 1069.01 708.20
00018030 00000069 766.50 255.02 421.36 620.64 1086.35 459.56 1122.99 457.94 1187.30 597.28 1041.57 702.72 1069.89 706.54
00018031 00000070 782.10 254.73 404.55 617.38 1084.90 459.78 1121.94 456.51 1183.93 593.77 1040.30 700.55 1071.19 703.03
00018032 00000071 773.30 235.52 413.38 630.18 1084.33 453.74 1124.37 448.64 1184.88 588.70 1046.28 697.06 1076.35 698.92
00018033 00000072 761.75 217.43 426.20 646.95 1082.02 448.95 1124.03 445.41 1195.41 576.42 1044.73 691.70 1082.45 694.28
00018034 00000073 770.99 232.72 424.10 629.08 1085.00 429.02 1122.14 407.97 1202.28 564.70 1050.17 685.83 1083.58 677.15
00018035 00000074 786.09 234.18 413.12 623.33 1084.97 414.60 1124.38 391.81 1205.56 556.94 1039.66 678.20 1077.13 668.39
00018036 00000075 790.25 230.94 404.26 606.20 1077.89 402.80 1122.10 385.77 1194.44 540.52 1043.49 658.33 1082.26 650.00
00018037 00000076 770.71 208.92 417.04 627.02 1076.46 379.03 1100.37 356.63 1193.50 519.98 1043.29 647.54 1067.30 635.42
00018038 00000077 762.33 204.32 420.74 627.94 1057.78 382.95 1089.10 356.61 1188.28 516.10 1033.76 643.83 1064.88 629.70
00018039 00000078 748.71 183.49 426.01 636.55 1048.97 378.16 1084.48 350.59 1181.21 507.81 1038.81 636.39 1071.26 621.17
00018040 00000079 750.15 210.83 420.78 595.71 1028.32 379.06 1076.26 355.29 1169.72 498.42 1040.30 626.85 1075.70 615.34
00018041 00000080 717.84 167.14 443.95 630.86 1022.54 368.70 1074.22 342.15 1172.04 489.08 1039.71 619.71 1076.27 606.08
00018042 00000081 706.30 136.75 450.95 652.76 1005.58 361.95 1055.45 340.29 1159.02 464.47 1019.90 605.34 1060.51 594.34
00018043 00000082 667.90 108.50 471.66 673.91 992.28 338.60 1061.45 322.32 1159.94 450.59 1026.61 598.93 1077.56 589.52
00018044 00000083 676.04 112.69 461.87 674.84 995.92 346.06 1052.31 326.07 1149.90 451.88 1023.38 602.44 1063.70 589.98
00018045 00000084 664.94 126.18 464.66 669.11 997.72 356.31 1042.48 340.48 1139.65 468.95 1004.44 609.03 1040.06 602.04
00018046 00000085 703.75 161.23 422.45 642.68 1008.50 383.75 1051.90 359.36 1142.16 510.07 997.81 630.46 1031.31 617.28
00018047 00000086 722.69 221.21 405.30 604.88 1006.42 405.88 1058.49 388.57 1131.54 541.72 978.13 654.39 1023.11 644.81
00018048 00000087 731.75 207.40 408.35 632.93 1039.78 424.37 1060.54 414.98 1144.95 565.95 978.83 662.13 1002.89 661.02
00018049 00000088 741.89 202.99 405.25 649.41 1056.21 429.63 1061.30 424.41 1144.96 572.79 981.83 672.22 996.36 673.58
00018050 00000089 745.34 183.89 402.71 683.30 1058.75 433.34 1062.26 430.38 1144.37 580.75 975.76 675.20 993.97 678.98
00018051 00000090 764.85 230.44 392.09 641.07 1072.92 435.35 1084.58 433.92 1154.83 581.24 989.84 679.53 1016.22 687.32
00018052 00000091 750.09 216.96 407.71 647.16 1056.88 458.40 1093.08 466.98 1153.82 591.07 999.36 681.85 1037.74 695.53
00018053 00000092 756.19 246.97 408.98 621.49 1066.79 458.92 1105.24 460.18 1163.36 596.91 1014.63 692.96 1048.82 700.39
00018054 00000093 763.81 259.51 401.46 611.35 1070.00 462.41 1105.95 464.82 1163.51 600.73 1016.40 696.00 1049.81 703.88
00018055 00000094 771.45 262.68 392.34 606.39 1078.00 463.99 1106.85 465.68 1165.87 607.89 1021.56 701.29 1047.48 707.58
00018056 00000095 771.94 257.64 389.41 608.97 1079.42 465.59 1106.40 469.73 1165.72 607.16 1028.99 701.26 1051.10 709.11
00018057 00000096 783.91 267.00 374.56 593.80 1077.56 470.60 1104.25 474.86 1162.12 607.94 1027.43 699.49 1051.03 707.28
00018058 00000097 779.09 284.51 373.19 572.59 1066.52 472.15 1101.08 470.06 1152.87 609.64 1024.63 700.23 1052.85 702.76
00018059 00000098 776.43 290.69 376.40 572.38 1061.68 469.81 1099.82 469.05 1146.79 609.49 1021.24 703.90 1052.57 706.21
00018060 DELETE   777.50 284.65 367.39 586.55 1064.38 484.39 1098.30 484.78 1139.77 621.98 1021.52 713.52 1046.70 715.97
00018061 00000100 756.70 271.68 384.62 612.68 1060.25 504.68 1099.61 504.92 1135.79 629.14 1015.40 718.17 1043.84 720.57
00018062 00000101 762.16 286.89 381.97 602.13 1070.21 507.23 1098.21 513.68 1138.68 645.03 1006.96 720.82 1034.51 728.89
00018063 DELETE   783.22 320.65 359.47 576.79 1073.21 512.65 1104.80 527.49 1136.56 659.56 1000.90 724.12 1038.61 739.70
00018064 00000103 781.02 325.13 358.62 569.94 1073.03 512.90 1105.09 526.95 1136.77 662.81 998.33 722.59 1034.68 737.71
00018065 DELETE   761.34 314.71 366.92 577.89 1056.00 519.37 1098.40 529.07 1129.42 655.12 990.15 721.34 1032.63 733.25
00018066 00000105 748.64 320.46 375.29 576.90 1053.83 522.17 1095.21 530.84 1128.38 660.02 981.49 723.46 1024.48 735.37
00018067 00000106 747.06 324.76 366.29 571.65 1039.76 538.52 1086.18 539.38 1111.91 667.62 971.44 731.09 1017.75 736.82
00018068 00000107 732.49 326.71 374.51 569.32 1027.22 528.07 1074.85 540.69 1110.09 656.88 981.38 728.67 1020.82 742.57
00018069 00000108 724.51 319.40 373.40 579.07 1023.20 521.23 1061.03 533.65 1102.92 651.28 977.06 729.15 1010.72 742.83
00018070 00000109 706.91 301.44 389.35 597.60 1015.07 516.09 1053.84 531.79 1098.93 644.51 974.51 720.21 1010.39 735.40
00018071 00000110 705.15 295.22 396.22 598.72 1026.16 500.92 1059.02 511.78 1104.78 636.95 972.24 717.45 1001.46 728.97
00018072 00000111 709.15 298.74 393.04 587.05 1029.77 497.00 1055.67 504.37 1106.18 635.65 966.24 715.99 991.71 725.88
00018073 00000112 701.74 296.29 405.74 583.96 1026.28 487.36 1058.42 494.65 1109.30 625.25 968.81 709.63 995.80 719.33
00018074 00000113 705.77 290.80 400.77 587.52 1030.26 485.62 1062.10 493.64 1110.84 624.55 971.85 709.28 998.59 718.89
00018075 00000114 698.87 303.21 413.92 579.46 1029.28 488.87 1066.48 500.33 1117.99 624.18 979.83 706.44 1011.55 719.11
00018076 00000115 720.31 316.14 404.64 565.82 1032.57 493.66 1080.13 510.74 1120.77 630.59 988.15 708.61 1025.25 725.00
00018077 00000116 748.68 289.09 385.06 589.40 1057.51 497.60 1085.61 502.81 1130.03 630.44 985.97 705.27 1021.24 714.42
00018078 00000117 767.07 278.87 368.45 599.50 1076.22 498.93 1092.58 498.66 1138.36 633.26 1002.32 710.51 1024.41 714.45
00018079 00000118 774.16 275.10 366.56 606.70 1079.86 492.78 1095.75 495.06 1139.58 629.73 1009.66 712.01 1031.33 717.29
00018080 00000119 750.93 269.41 386.25 609.27 1083.36 503.17 1093.14 503.43 1147.87 624.65 1021.73 708.28 1037.94 711.86
00018081 00000120 756.97 271.96 387.32 600.29 1087.77 502.47 1101.98 504.62 1158.74 623.49 1029.33 708.76 1048.40 714.07
00018082 00000121 766.90 284.69 394.66 587.43 1086.67 495.25 1111.30 503.87 1160.67 622.59 1032.59 705.73 1057.73 715.06
CROP_BBOX: 359 0 1509 1080
