Video ID: 	iovWFpCqHuw
H: 	1080
W: 	1920
FPS: 	25.0

FRAME INDEX X0 Y0 W H [Landmarks (5 Points)]

00002773 00000000 1055.27 148.26 437.02 655.45 1163.79 417.86 1352.46 470.54 1216.53 552.32 1139.12 631.03 1286.92 674.28
00002774 00000001 1067.20 154.15 437.16 672.29 1171.41 424.50 1362.18 475.31 1220.24 554.21 1146.95 636.59 1291.18 679.35
00002775 00000002 1069.63 154.14 435.22 680.35 1177.49 420.18 1375.62 470.08 1233.65 553.79 1149.60 635.52 1302.41 678.13
00002776 00000003 1071.43 141.45 433.71 682.46 1182.72 411.63 1373.00 457.91 1241.33 547.70 1160.84 636.98 1310.59 675.31
00002777 00000004 1079.11 146.64 435.59 665.32 1191.82 406.83 1378.17 450.90 1254.75 541.52 1174.21 626.69 1312.12 664.32
00002778 00000005 1078.97 139.95 435.03 672.05 1187.69 407.28 1378.24 445.09 1249.03 534.44 1173.44 632.52 1322.60 663.67
00002779 00000006 1082.31 145.39 438.86 669.25 1190.35 408.10 1387.12 446.32 1248.97 535.25 1171.20 628.03 1318.53 661.48
00002780 00000007 1086.41 147.76 433.18 668.93 1194.80 405.20 1390.00 443.16 1252.75 532.80 1174.36 627.30 1320.73 660.50
00002781 00000008 1089.85 150.73 436.94 667.64 1199.43 397.81 1394.42 435.47 1256.38 529.19 1179.25 622.84 1326.15 655.88
00002782 00000009 1087.57 141.44 440.90 678.13 1207.31 388.85 1400.44 431.37 1265.63 524.29 1182.68 615.69 1330.47 652.62
00002783 00000010 1089.88 123.73 440.82 694.16 1208.29 385.39 1406.02 421.79 1278.49 511.12 1199.52 619.07 1343.75 651.02
00002784 DELETE   1094.79 119.91 464.46 691.38 1230.97 373.80 1419.34 404.79 1297.57 493.74 1213.60 599.12 1361.11 625.87
00002785 DELETE   1100.14 117.76 457.78 680.89 1246.26 363.81 1436.86 392.19 1329.88 477.13 1229.20 593.08 1383.43 616.89
00002786 DELETE   1105.65 113.43 458.28 689.13 1264.05 362.30 1453.44 384.66 1361.73 468.27 1259.12 595.36 1413.58 613.34
00002787 00000014 1111.16 109.63 448.74 691.33 1268.60 363.22 1456.43 384.82 1371.64 471.43 1263.50 592.20 1423.06 609.04
00002788 DELETE   1096.46 112.98 453.60 707.66 1252.92 384.74 1441.10 404.81 1358.37 492.30 1254.48 613.76 1411.90 629.69
00002789 DELETE   1082.73 123.53 464.31 700.91 1230.35 402.52 1428.35 420.67 1330.60 520.26 1230.00 634.33 1383.16 650.32
00002790 00000017 1078.89 127.99 454.91 693.84 1219.08 418.07 1415.31 439.10 1313.97 535.19 1219.42 643.74 1367.09 662.67
00002791 00000018 1078.97 146.61 455.16 686.69 1216.80 424.52 1418.06 453.84 1300.32 556.10 1215.00 649.91 1359.74 674.97
00002792 00000019 1081.13 146.00 437.99 679.36 1216.91 432.08 1411.76 457.76 1308.14 553.25 1211.07 648.98 1358.12 671.74
00002793 00000020 1081.15 144.23 436.96 679.64 1217.25 430.58 1411.41 458.71 1307.48 552.10 1207.55 647.57 1355.75 672.30
00002794 00000021 1085.33 147.01 435.10 674.87 1218.59 430.42 1412.81 457.89 1307.77 551.37 1209.63 648.28 1357.53 672.41
00002795 00000022 1082.94 150.12 453.46 685.13 1216.19 421.94 1416.51 456.39 1292.96 555.11 1207.05 647.00 1355.48 676.77
00002796 00000023 1085.55 144.69 451.39 684.20 1220.14 426.88 1417.83 452.47 1308.02 548.54 1213.47 650.25 1367.74 672.81
00002797 00000024 1085.13 139.30 445.81 676.29 1220.24 422.80 1420.53 447.51 1311.01 544.00 1213.90 641.44 1369.05 663.12
00002798 00000025 1086.64 130.50 444.81 688.49 1222.94 419.05 1418.82 443.22 1313.67 538.85 1218.72 639.11 1371.69 659.82
00002799 00000026 1088.54 133.69 452.55 690.53 1224.87 413.93 1422.92 438.90 1314.94 535.84 1219.96 643.04 1372.62 664.70
00002800 00000027 1090.72 138.95 451.76 686.83 1228.55 411.84 1422.28 437.20 1315.99 533.76 1220.98 641.25 1369.93 663.55
00002801 00000028 1091.03 142.00 449.52 680.62 1228.76 412.03 1422.40 436.17 1317.02 533.40 1223.76 640.23 1371.41 661.54
00002802 00000029 1091.47 141.28 449.55 680.62 1229.83 412.81 1423.09 436.88 1318.55 532.21 1224.17 638.32 1373.52 659.45
00002803 00000030 1091.67 139.60 449.93 677.36 1228.46 413.54 1424.29 436.78 1318.48 533.97 1224.26 637.77 1375.96 657.94
00002804 00000031 1092.67 142.90 450.07 675.52 1229.16 413.45 1425.78 437.21 1319.30 533.68 1224.50 638.07 1377.15 658.61
00002805 00000032 1094.97 141.28 446.49 677.07 1230.22 412.01 1425.05 433.98 1320.36 532.22 1227.42 636.70 1377.38 655.85
00002806 00000033 1094.81 144.95 449.02 677.93 1232.66 410.18 1426.64 433.84 1321.23 531.14 1227.95 636.64 1377.75 657.13
00002807 00000034 1095.59 144.74 447.28 678.77 1233.47 410.66 1426.60 434.41 1321.89 530.66 1228.25 636.19 1378.44 656.77
00002808 00000035 1094.85 144.86 449.51 673.68 1231.66 412.12 1427.32 435.64 1321.01 530.75 1225.92 635.32 1378.84 655.59
00002809 00000036 1096.34 147.49 453.90 664.15 1230.56 411.79 1429.59 435.29 1319.71 532.53 1226.25 633.90 1381.36 653.79
00002810 00000037 1096.48 146.50 451.36 666.53 1231.14 411.73 1428.71 435.49 1320.58 531.49 1226.43 633.30 1381.48 653.38
00002811 00000038 1095.34 146.18 454.17 669.41 1232.06 411.61 1429.11 435.58 1320.82 529.93 1226.42 633.48 1380.55 653.79
00002812 00000039 1097.28 146.50 450.28 665.96 1233.11 409.67 1429.11 434.90 1321.12 529.49 1226.61 631.09 1380.28 652.34
00002813 00000040 1097.80 147.96 451.77 663.85 1234.11 410.29 1429.85 434.83 1321.56 528.95 1227.51 630.99 1381.53 651.63
00002814 00000041 1097.43 147.35 448.82 664.45 1234.26 410.38 1429.60 434.32 1323.41 529.21 1228.86 631.19 1383.45 651.34
00002815 00000042 1099.11 147.53 446.79 663.86 1234.31 410.54 1430.33 434.07 1323.29 529.22 1229.50 631.07 1384.45 650.70
00002816 00000043 1098.49 143.72 447.60 668.47 1233.74 407.66 1430.77 432.75 1323.11 528.55 1228.02 630.02 1383.99 651.02
00002817 00000044 1099.48 145.60 448.41 666.74 1234.59 405.31 1432.62 431.54 1323.21 526.91 1228.59 629.50 1385.67 651.40
00002818 00000045 1098.98 141.37 448.39 673.02 1235.63 405.13 1431.49 431.55 1324.33 524.99 1227.61 629.12 1384.35 651.16
00002819 00000046 1100.30 137.38 448.36 678.42 1237.41 403.41 1432.89 430.63 1325.81 524.82 1228.37 629.23 1384.04 651.99
00002820 00000047 1101.31 136.32 450.24 683.05 1238.07 401.25 1433.70 428.27 1326.89 521.45 1229.19 629.54 1386.21 652.14
00002821 00000048 1101.53 156.08 452.98 674.24 1240.19 393.97 1437.63 426.27 1328.42 522.51 1233.90 623.16 1384.14 649.02
00002822 00000049 1103.85 173.32 450.13 659.18 1240.04 391.13 1440.32 424.15 1326.67 526.50 1232.42 624.51 1385.23 650.76
00002823 00000050 1107.94 174.87 445.86 657.93 1242.73 394.67 1443.20 422.20 1333.28 530.84 1238.33 629.67 1392.16 651.09
00002824 DELETE   1098.94 142.37 451.03 674.57 1229.21 409.90 1432.65 427.32 1323.53 537.15 1229.94 639.80 1392.73 654.67
00002825 DELETE   1091.41 150.05 456.14 671.89 1206.30 405.34 1413.94 428.70 1282.27 541.82 1205.09 634.68 1361.61 655.23
00002826 DELETE   1074.27 144.50 440.15 673.16 1192.02 399.57 1387.64 424.85 1269.65 532.34 1183.56 630.20 1328.26 652.77
00002827 00000054 1069.85 141.70 445.01 677.95 1187.41 392.58 1378.64 419.87 1258.99 527.10 1177.75 624.97 1320.71 649.04
00002828 00000055 1072.61 144.52 445.38 677.83 1194.12 397.06 1387.66 424.54 1270.46 529.35 1182.99 629.06 1327.81 653.72
00002829 00000056 1081.99 144.14 438.79 680.42 1202.66 401.69 1394.45 427.94 1276.16 531.29 1189.98 632.23 1334.58 655.71
00002830 DELETE   1078.39 147.83 439.19 682.66 1198.69 401.04 1389.75 428.24 1271.59 529.20 1185.96 631.86 1329.59 656.32
00002831 DELETE   1076.32 128.69 444.28 682.24 1178.51 387.43 1363.40 415.33 1231.00 514.26 1167.28 615.20 1307.44 640.08
00002832 00000059 1070.72 124.15 448.36 666.56 1155.10 388.90 1355.95 414.53 1206.77 504.98 1143.28 608.29 1298.13 630.77
00002833 00000060 1070.35 124.58 446.69 667.68 1155.75 386.28 1353.57 412.73 1205.31 503.19 1143.50 606.68 1296.22 629.80
00002834 00000061 1071.21 131.08 448.39 674.42 1165.66 393.15 1363.24 416.31 1222.74 511.59 1155.14 613.83 1308.84 634.41
00002835 00000062 1075.96 134.38 443.76 668.47 1169.59 400.68 1367.49 429.41 1227.18 522.27 1156.85 617.92 1312.85 643.17
00002836 00000063 1076.26 131.26 435.12 671.80 1163.14 409.85 1366.89 434.84 1229.64 538.16 1155.64 633.95 1307.80 656.37
00002837 00000064 1062.10 172.88 459.68 645.42 1160.78 416.38 1367.30 440.28 1229.25 543.67 1161.13 635.98 1312.34 656.52
00002838 00000065 1069.00 141.02 435.99 676.01 1174.33 404.37 1364.00 427.35 1242.88 533.94 1170.96 628.79 1309.79 649.52
00002839 DELETE   1070.09 121.00 449.78 699.79 1177.97 392.67 1383.35 424.36 1246.16 516.45 1166.63 623.05 1325.95 651.23
00002840 00000067 1078.04 131.63 447.84 668.81 1189.80 384.89 1387.93 418.68 1256.33 508.01 1178.55 606.93 1333.09 636.04
00002841 00000068 1074.87 128.25 470.22 680.49 1198.43 380.26 1393.25 405.64 1266.07 501.28 1192.40 598.29 1346.78 620.89
00002842 00000069 1089.56 137.46 449.60 663.29 1201.55 378.00 1402.26 409.44 1270.91 503.67 1195.77 606.54 1349.49 634.08
00002843 00000070 1080.01 131.56 466.81 690.37 1205.54 378.29 1397.15 404.99 1270.21 501.32 1202.14 604.49 1347.41 628.32
00002844 00000071 1078.87 128.75 470.14 698.97 1206.85 377.16 1397.75 405.67 1267.60 499.51 1200.54 607.15 1342.32 632.80
00002845 00000072 1092.32 130.01 455.27 689.46 1216.11 381.39 1410.61 412.51 1276.33 511.50 1199.31 611.87 1348.17 639.58
00002846 00000073 1100.52 129.00 451.05 689.53 1221.28 389.10 1417.84 418.91 1286.85 525.95 1209.45 619.56 1358.72 646.01
00002847 00000074 1096.59 154.11 458.75 667.47 1219.50 394.83 1418.27 423.71 1290.82 535.31 1213.60 625.01 1362.67 650.35
00002848 00000075 1101.88 159.38 449.97 674.64 1223.03 395.11 1416.02 428.99 1293.93 532.22 1215.80 624.83 1362.88 653.34
00002849 00000076 1099.09 160.75 453.00 674.35 1223.18 391.42 1415.49 427.65 1291.85 529.26 1213.99 621.50 1360.39 652.02
00002850 00000077 1103.22 159.98 448.61 676.14 1225.40 391.61 1416.21 429.41 1291.34 529.27 1213.21 620.43 1359.91 652.21
00002851 00000078 1104.89 165.03 451.21 670.01 1226.49 395.00 1418.18 433.46 1292.25 534.78 1212.80 622.93 1361.42 654.98
00002852 00000079 1100.45 160.96 451.39 660.46 1223.40 400.86 1421.54 433.65 1293.59 542.75 1213.60 627.10 1363.15 655.71
00002853 00000080 1099.06 164.12 454.48 656.23 1222.43 400.32 1421.91 433.33 1293.05 542.50 1211.85 628.41 1360.63 657.32
00002854 00000081 1097.12 168.36 455.96 652.41 1222.25 398.35 1421.83 431.81 1293.42 541.17 1211.34 627.76 1358.73 657.12
00002855 00000082 1100.02 154.98 455.26 667.81 1224.84 396.17 1423.68 428.36 1294.72 538.78 1214.24 627.18 1362.30 655.67
00002856 00000083 1100.06 148.55 449.37 671.55 1224.96 397.83 1414.94 429.76 1294.12 531.53 1210.34 626.38 1361.21 653.59
00002857 00000084 1097.53 150.62 453.08 671.27 1222.58 397.52 1413.99 429.73 1291.45 530.35 1208.48 627.80 1360.82 655.23
00002858 00000085 1101.95 161.09 451.09 665.78 1223.65 396.35 1422.18 429.23 1290.42 539.12 1211.98 627.93 1362.19 656.88
00002859 00000086 1097.62 159.06 463.87 679.94 1225.51 401.73 1421.39 441.23 1295.05 538.50 1210.92 626.94 1365.60 659.31
00002860 00000087 1094.23 162.04 456.40 655.82 1224.58 411.71 1424.15 445.01 1298.95 541.60 1207.36 630.26 1370.78 658.28
00002861 00000088 1094.00 157.38 451.55 655.34 1223.69 416.81 1418.72 447.28 1298.71 540.75 1208.48 627.58 1371.41 653.15
00002862 00000089 1095.59 156.41 452.33 658.88 1223.77 419.30 1416.22 449.39 1297.13 540.15 1211.12 632.31 1367.55 657.89
00002863 00000090 1095.09 163.09 451.45 658.52 1223.40 419.64 1417.26 448.58 1298.28 541.93 1211.91 636.67 1367.39 661.59
00002864 00000091 1094.41 161.01 453.45 663.82 1221.78 419.45 1416.88 448.13 1296.82 543.36 1211.78 639.10 1366.68 663.83
00002865 00000092 1090.73 154.32 454.62 671.42 1221.18 421.60 1417.41 450.93 1298.69 546.58 1210.14 640.04 1366.46 665.36
00002866 00000093 1086.69 144.64 455.01 683.19 1221.12 423.23 1418.01 452.47 1302.91 549.85 1211.73 641.89 1367.16 667.03
00002867 00000094 1094.79 155.57 450.35 678.27 1225.89 428.53 1423.63 454.52 1308.05 549.72 1216.45 647.31 1377.72 669.70
00002868 00000095 1106.14 159.28 446.76 677.21 1234.65 431.13 1434.80 457.60 1320.86 553.73 1226.51 653.49 1390.65 676.18
00002869 00000096 1111.94 165.81 446.14 671.82 1239.06 432.30 1439.42 454.96 1329.50 559.97 1237.75 655.66 1405.17 674.50
00002870 00000097 1114.85 158.80 441.51 682.71 1242.65 433.03 1440.18 456.32 1332.65 560.95 1240.49 655.07 1408.58 674.11
00002871 00000098 1114.03 164.37 441.68 678.56 1240.63 432.67 1439.70 455.93 1330.40 561.15 1238.32 655.78 1407.01 675.01
00002872 00000099 1112.90 169.55 440.33 681.88 1247.44 429.86 1440.46 460.58 1332.72 561.68 1237.11 654.40 1395.54 678.86
00002873 00000100 1106.50 166.12 446.04 685.91 1243.30 428.91 1434.56 460.16 1325.50 556.82 1233.19 652.07 1388.01 677.34
00002874 00000101 1103.35 160.18 440.26 686.21 1231.82 430.47 1426.95 455.10 1316.04 552.87 1226.28 653.14 1388.32 674.14
00002875 00000102 1097.87 164.07 446.87 682.50 1227.14 431.10 1423.48 454.12 1308.98 551.19 1220.46 652.90 1381.50 673.13
00002876 00000103 1095.79 165.20 452.23 675.40 1226.37 431.42 1422.73 454.96 1307.44 550.58 1219.16 651.93 1377.46 672.81
00002877 00000104 1094.89 166.26 451.28 672.99 1225.72 432.01 1422.46 453.24 1308.97 551.08 1221.56 652.44 1379.79 671.45
00002878 00000105 1096.86 163.21 447.60 678.43 1228.30 429.86 1424.05 450.53 1311.69 548.71 1224.14 651.85 1382.65 670.29
00002879 00000106 1096.03 170.55 450.93 677.52 1228.89 427.40 1422.23 452.03 1312.54 550.69 1228.00 649.50 1378.84 669.46
00002880 00000107 1097.28 174.89 448.88 671.62 1230.09 425.56 1422.11 449.91 1312.21 549.26 1229.10 649.01 1377.93 668.81
00002881 00000108 1098.28 173.55 448.82 674.40 1231.83 424.84 1424.48 449.50 1314.79 548.55 1230.29 649.13 1380.06 669.05
00002882 00000109 1101.25 173.59 452.41 673.91 1233.50 424.75 1426.54 449.66 1315.36 548.53 1231.31 649.48 1380.97 669.51
00002883 00000110 1101.84 177.73 451.73 668.18 1233.48 424.50 1426.01 448.83 1315.82 548.35 1232.46 649.80 1381.29 669.26
00002884 00000111 1100.53 179.73 452.50 666.70 1232.58 423.71 1427.09 448.16 1316.30 548.81 1232.10 650.32 1382.38 669.78
00002885 00000112 1101.37 184.20 453.29 662.88 1232.51 422.13 1427.66 446.89 1315.91 548.55 1231.67 650.26 1382.36 670.05
00002886 00000113 1102.70 186.66 457.74 661.68 1235.14 420.26 1434.00 443.57 1321.83 549.82 1234.35 653.33 1385.67 672.00
00002887 00000114 1104.39 186.08 453.66 664.06 1237.09 423.10 1436.32 444.58 1327.78 553.29 1238.11 655.39 1391.63 672.38
00002888 00000115 1104.52 185.20 452.62 665.77 1238.90 426.14 1435.57 445.23 1329.80 554.27 1239.99 656.15 1395.40 670.87
00002889 00000116 1102.65 175.88 450.57 681.53 1237.06 429.86 1434.09 452.15 1326.12 557.00 1234.36 656.10 1393.93 673.57
00002890 00000117 1092.72 162.88 458.28 698.30 1223.66 437.48 1422.13 457.99 1314.08 559.65 1224.63 660.34 1386.03 676.90
00002891 DELETE   1088.51 159.67 453.01 685.52 1201.27 442.73 1400.33 462.11 1275.11 567.24 1204.88 657.88 1366.31 674.85
00002892 DELETE   1080.02 166.38 446.44 671.74 1185.60 444.50 1384.13 464.23 1258.56 567.94 1187.85 657.17 1344.71 674.09
00002893 00000120 1074.28 165.89 445.16 667.16 1182.22 439.44 1380.19 459.99 1255.53 564.67 1186.78 652.74 1339.50 670.22
CROP_BBOX: 649 0 1748 1049
