Video ID: 	J2UQtBdSwfw
H: 	1080
W: 	1920
FPS: 	29.892

FRAME INDEX X0 Y0 W H [Landmarks (5 Points)]

00002573 00000000 545.94 135.45 355.22 527.06 681.19 363.33 857.98 355.83 806.15 448.04 710.23 540.50 859.42 534.80
00002574 DELETE   551.79 146.55 350.93 524.95 676.55 379.54 851.87 365.07 801.89 470.06 699.41 559.24 853.33 549.60
00002575 00000002 548.66 154.07 349.94 516.20 670.44 382.97 846.06 368.33 794.39 476.71 696.29 563.93 847.37 554.31
00002576 00000003 545.02 155.69 350.65 518.60 666.78 384.26 841.96 369.17 790.40 476.94 692.09 564.78 844.95 554.75
00002577 00000004 542.66 155.00 351.97 520.61 663.84 381.02 838.83 368.33 786.27 474.36 687.72 562.78 839.89 554.70
00002578 00000005 540.67 150.65 354.14 524.83 662.55 376.78 836.99 365.40 784.00 471.86 685.34 560.75 836.79 553.63
00002579 00000006 537.03 146.53 355.69 528.02 660.52 371.11 835.64 363.10 780.18 468.31 682.28 560.13 830.01 555.48
00002580 00000007 529.58 144.68 364.58 537.27 658.30 371.48 835.35 366.57 774.36 470.29 684.15 561.58 827.10 557.93
00002581 00000008 529.55 141.87 365.22 537.36 656.37 367.30 834.23 366.59 770.03 468.28 680.20 558.42 821.65 558.56
00002582 00000009 531.94 142.69 366.99 533.53 659.50 362.20 838.62 367.52 771.21 465.94 679.36 553.40 821.88 558.58
00002583 00000010 536.17 140.19 367.10 537.96 667.93 355.05 845.21 366.57 778.52 464.26 682.75 550.82 824.85 560.85
00002584 00000011 541.88 138.55 366.49 542.73 682.17 349.90 853.77 367.25 791.43 460.86 689.09 547.38 828.24 562.56
00002585 00000012 550.36 127.29 366.17 543.67 692.17 337.65 864.73 357.13 800.60 450.84 694.70 535.97 831.17 553.69
00002586 00000013 556.83 126.54 363.21 541.31 695.61 335.67 867.48 359.97 801.24 447.51 692.89 529.87 830.68 551.74
00002587 00000014 557.01 124.28 364.19 540.94 695.05 333.41 865.69 359.38 797.73 444.00 691.64 526.44 828.01 549.63
00002588 00000015 554.13 122.21 368.92 545.89 691.33 330.79 862.82 357.59 792.28 443.13 686.83 526.74 823.69 550.56
00002589 00000016 550.51 116.50 374.55 553.42 687.58 327.14 861.51 356.75 787.75 439.83 679.11 525.40 820.21 551.51
00002590 00000017 549.33 111.02 375.58 555.41 682.72 323.82 855.65 354.42 778.14 434.51 669.88 521.60 810.91 548.41
00002591 DELETE   542.18 110.29 383.35 551.11 675.08 317.22 847.68 344.43 769.65 423.38 661.98 514.62 804.13 538.36
00002592 00000019 535.87 102.28 387.43 553.20 663.41 305.23 838.67 332.01 756.84 412.31 649.03 506.28 798.44 529.66
00002593 DELETE   534.83 104.04 383.30 535.65 654.43 296.01 832.51 318.81 742.52 399.52 648.42 501.61 789.97 522.27
00002594 00000021 530.79 102.97 384.71 535.69 646.43 289.08 824.33 312.19 731.13 391.59 639.66 495.76 781.47 516.24
00002595 00000022 527.30 98.99 381.59 532.35 640.86 286.45 814.32 309.07 723.85 385.77 636.58 489.09 771.74 508.76
00002596 00000023 524.12 96.71 378.20 529.54 633.65 284.06 810.15 307.34 716.23 383.13 628.88 484.58 769.03 504.86
00002597 00000024 520.88 95.15 378.05 530.22 627.97 285.24 805.54 309.81 710.06 383.75 622.89 483.62 766.19 504.45
00002598 00000025 519.22 97.49 378.95 529.08 623.51 287.23 802.70 309.45 704.73 385.43 619.89 485.70 764.19 504.57
00002599 00000026 517.43 99.08 378.53 539.30 622.81 288.00 799.95 308.45 703.27 385.84 620.26 491.22 759.28 509.15
00002600 00000027 515.51 102.12 377.04 538.49 619.35 290.46 796.77 310.61 700.26 391.24 615.99 493.73 760.95 511.78
00002601 00000028 515.48 104.32 377.13 539.60 618.78 293.29 796.20 313.52 698.33 393.37 612.72 496.93 759.77 515.44
00002602 00000029 513.95 103.91 379.35 543.12 617.60 294.64 795.73 315.43 696.72 395.37 610.69 499.14 758.37 518.19
00002603 00000030 514.39 102.49 378.84 549.82 618.11 294.98 798.75 315.69 698.23 395.43 610.40 501.41 762.81 520.53
00002604 00000031 514.59 105.54 377.58 540.93 618.87 297.47 798.35 316.94 699.86 397.08 611.96 500.32 764.30 518.39
00002605 00000032 516.22 105.86 376.98 541.38 620.12 297.99 800.31 317.11 701.24 397.82 613.65 501.07 766.01 518.89
00002606 00000033 517.23 107.02 377.41 539.51 621.68 298.50 802.32 316.83 703.67 398.02 616.74 502.04 767.67 519.25
00002607 00000034 518.63 107.84 379.01 534.80 622.80 299.06 803.72 314.49 706.35 397.57 621.29 502.99 769.69 517.53
00002608 00000035 519.54 105.72 380.52 534.32 623.12 299.01 803.35 311.65 709.13 395.15 625.14 500.48 772.87 512.45
00002609 00000036 523.61 98.83 376.17 532.88 622.77 296.49 806.23 312.56 707.67 393.21 624.77 499.14 773.30 513.55
00002610 00000037 523.74 96.27 376.21 533.21 622.45 295.95 807.28 312.62 708.81 393.69 624.47 498.16 775.53 513.26
00002611 00000038 525.06 96.72 375.43 532.62 623.72 296.16 808.66 311.53 710.89 393.87 626.60 498.78 778.32 512.87
00002612 00000039 527.08 96.30 374.74 532.42 625.46 296.65 809.89 309.99 712.93 393.26 628.31 498.51 780.46 511.20
00002613 00000040 528.65 97.30 372.86 529.18 629.51 295.28 811.18 307.00 717.12 389.56 632.84 495.37 781.55 506.73
00002614 00000041 531.08 98.40 371.84 525.54 633.15 291.94 813.10 303.84 720.63 384.60 637.75 492.07 783.21 503.17
00002615 00000042 533.60 93.08 369.84 524.98 633.35 291.61 813.78 304.54 722.04 383.84 639.87 489.59 786.68 501.71
00002616 00000043 537.73 93.08 365.31 524.02 640.29 294.19 815.79 309.15 730.08 384.03 645.60 486.26 791.18 500.63
00002617 00000044 539.84 97.62 366.23 522.21 644.49 300.83 819.90 307.60 740.01 382.06 655.46 490.49 802.07 498.12
00002618 00000045 540.27 95.94 366.28 528.10 650.23 302.18 825.54 304.44 752.98 387.83 665.83 497.46 809.27 501.31
00002619 00000046 541.98 99.05 366.62 525.73 656.57 305.02 828.69 303.20 762.95 388.68 675.79 497.54 817.90 497.45
00002620 00000047 546.75 98.32 360.21 520.39 660.89 307.10 834.15 304.24 768.70 386.40 681.18 495.40 824.64 494.30
00002621 00000048 547.91 97.71 358.14 517.85 662.78 307.81 836.63 300.34 773.46 380.57 686.61 493.62 831.24 488.79
00002622 00000049 550.73 98.18 353.89 515.39 664.56 306.92 836.89 296.81 776.21 375.23 689.28 490.19 834.34 483.16
00002623 00000050 552.60 97.17 350.59 513.47 665.43 305.10 837.10 295.89 777.94 370.86 692.10 488.07 837.00 481.83
00002624 00000051 552.03 93.95 349.21 514.15 664.64 302.23 836.56 293.51 779.35 366.36 694.23 486.28 838.77 480.23
00002625 00000052 550.91 91.91 349.01 511.30 662.32 300.74 836.07 290.54 779.30 363.04 695.09 484.10 841.21 476.56
00002626 00000053 548.98 87.88 348.06 516.49 660.22 301.17 836.42 289.32 779.13 363.22 694.22 485.26 843.38 476.04
00002627 00000054 547.83 88.11 348.59 517.48 658.38 302.52 834.73 288.64 776.61 365.01 691.79 486.45 841.84 475.70
00002628 00000055 545.51 89.07 350.01 516.13 658.06 304.12 832.88 288.48 776.69 367.74 691.95 487.35 839.88 475.18
00002629 00000056 544.12 88.11 350.42 520.04 655.97 305.27 830.24 289.10 774.27 370.29 690.07 490.35 837.46 477.85
00002630 00000057 540.81 88.60 351.61 522.16 653.66 305.93 826.44 291.71 771.98 371.26 687.08 491.21 833.07 480.19
00002631 00000058 539.19 87.68 348.72 522.92 651.20 307.55 825.76 293.10 769.69 374.29 685.44 493.31 833.62 481.93
00002632 00000059 536.64 88.00 347.97 522.07 649.13 308.30 824.35 293.84 768.98 378.82 683.82 495.95 831.13 484.69
00002633 00000060 531.06 88.33 352.68 531.21 647.04 312.13 821.03 299.73 769.76 386.27 681.37 502.34 826.65 492.76
00002634 00000061 527.43 91.96 356.84 540.74 647.63 316.32 817.57 301.93 770.84 395.20 683.64 507.83 825.56 496.42
00002635 00000062 527.37 92.78 357.55 554.15 647.28 317.88 817.98 307.61 769.50 401.00 679.56 513.55 823.41 506.19
00002636 00000063 526.34 92.90 355.79 560.45 646.40 323.44 814.68 314.46 767.47 406.18 677.73 518.65 819.82 512.93
00002637 00000064 526.28 96.17 352.74 555.04 644.76 327.68 813.31 316.94 765.77 411.01 674.58 519.15 819.20 511.85
00002638 00000065 524.07 99.07 355.36 552.31 644.03 331.94 813.79 321.05 764.27 414.81 675.10 520.27 820.74 512.21
00002639 00000066 523.96 103.78 354.53 537.15 644.79 334.18 814.90 322.27 764.32 415.56 676.63 518.83 819.54 509.53
00002640 00000067 522.77 104.60 355.87 535.07 644.06 335.53 814.46 323.37 761.95 416.02 677.21 518.87 819.12 509.15
00002641 00000068 521.92 103.61 356.50 539.81 642.22 337.30 814.80 325.32 760.04 418.31 675.93 521.72 819.48 512.09
00002642 00000069 521.11 105.23 356.78 543.01 640.22 342.54 814.03 331.09 759.06 425.19 676.13 528.34 820.02 518.99
00002643 00000070 519.43 109.04 356.91 544.52 637.95 346.42 811.74 334.46 756.90 432.04 674.89 535.43 817.59 525.79
00002644 00000071 515.61 109.49 359.88 550.05 636.02 351.12 810.41 338.93 756.00 438.01 675.44 541.73 816.12 531.76
00002645 00000072 512.87 111.24 362.33 545.88 634.18 352.52 808.15 340.09 753.43 440.31 675.97 544.45 813.48 534.20
00002646 00000073 512.32 111.56 361.86 544.29 633.07 353.47 807.99 339.27 752.30 442.75 675.18 545.68 813.01 533.82
00002647 00000074 509.87 111.60 362.05 545.98 631.21 353.54 808.21 340.67 751.49 443.68 672.19 546.42 812.80 535.76
00002648 00000075 507.67 110.06 364.17 550.97 630.31 354.00 806.51 340.64 750.92 444.61 672.44 547.92 812.10 536.84
00002649 00000076 504.68 110.14 364.60 552.25 629.99 354.14 804.04 339.04 751.09 447.94 673.24 549.57 809.07 537.11
00002650 00000077 504.39 110.58 365.04 555.24 629.28 355.16 804.01 339.53 750.62 449.39 671.30 549.47 809.08 536.79
00002651 00000078 500.85 113.90 366.86 550.00 627.88 356.59 801.22 339.33 749.04 451.77 671.00 550.18 806.09 536.17
00002652 00000079 498.15 115.05 367.31 551.94 625.39 359.07 799.24 340.96 747.78 453.36 668.34 550.60 806.64 535.86
00002653 00000080 495.36 118.38 366.05 550.19 623.14 362.59 795.27 345.55 744.53 455.20 668.24 553.67 802.93 539.80
00002654 00000081 490.41 122.40 369.39 553.50 620.83 364.43 793.41 346.89 742.84 456.81 664.46 556.21 801.64 542.06
00002655 00000082 487.61 124.31 370.81 553.13 618.46 368.32 789.86 348.17 740.87 458.25 662.86 558.34 800.19 541.98
00002656 00000083 486.67 125.23 370.63 554.11 617.88 371.05 789.24 349.60 739.92 461.95 660.92 559.31 799.97 541.96
00002657 00000084 487.20 124.70 370.65 555.23 617.78 371.51 789.21 349.63 739.56 462.93 660.18 559.87 799.67 542.13
00002658 00000085 488.21 126.71 370.52 548.78 619.68 371.49 790.77 348.80 741.54 461.30 662.33 557.81 801.09 539.44
00002659 00000086 492.04 124.74 368.17 547.21 622.99 367.77 794.90 348.81 744.93 459.25 663.40 553.89 803.35 538.45
00002660 00000087 499.76 122.46 366.06 544.45 627.51 360.56 801.72 344.40 749.06 454.88 668.37 550.94 808.09 537.92
00002661 00000088 508.21 116.64 365.23 545.10 632.96 355.89 807.44 342.21 752.20 447.54 671.71 547.23 811.32 536.16
00002662 00000089 517.49 113.12 361.14 543.26 639.01 351.37 812.83 339.06 757.71 439.16 676.45 541.31 816.08 531.51
00002663 00000090 523.59 108.79 356.74 543.01 644.17 345.29 818.61 336.07 763.28 430.47 676.40 533.16 820.22 526.17
00002664 00000091 527.77 107.45 356.56 537.46 649.97 338.10 824.79 329.48 770.93 423.86 682.08 526.11 826.84 519.72
00002665 00000092 532.77 105.35 354.44 529.10 655.08 328.26 830.18 321.29 775.24 416.43 685.62 518.23 827.77 513.18
00002666 00000093 535.30 101.64 351.78 529.87 659.79 324.91 828.97 324.15 778.20 412.39 684.38 511.66 822.59 512.20
00002667 00000094 540.08 100.45 348.44 528.20 663.57 323.94 831.56 323.34 781.28 409.32 684.47 508.08 825.54 509.10
00002668 00000095 542.74 97.93 346.69 528.03 664.08 317.36 834.20 319.06 779.40 404.02 681.84 503.19 825.72 506.39
00002669 00000096 541.30 94.68 348.77 528.49 661.99 312.21 836.04 315.61 778.06 399.79 678.49 499.58 825.15 504.10
00002670 00000097 541.24 92.45 348.16 527.81 660.44 309.18 834.61 312.58 776.47 397.33 676.34 497.10 823.49 501.90
00002671 00000098 540.33 92.90 350.11 525.98 659.52 307.33 832.56 309.75 774.13 393.16 675.74 494.99 820.79 498.99
00002672 00000099 538.45 94.44 352.27 527.15 658.45 306.73 830.01 307.88 773.36 391.43 674.92 494.13 819.81 496.95
00002673 00000100 536.74 96.14 354.58 528.25 658.15 305.77 827.27 306.40 772.52 390.29 675.06 494.16 817.00 496.43
00002674 00000101 534.59 95.36 355.83 531.54 657.29 304.62 825.41 306.67 772.63 390.01 673.64 493.93 815.03 497.28
00002675 00000102 534.26 95.05 355.08 532.12 656.73 304.09 823.88 306.49 771.68 389.08 674.07 494.03 813.83 497.67
00002676 00000103 534.08 95.14 354.88 530.74 656.39 303.45 823.37 305.92 771.22 389.11 673.68 493.53 812.88 497.26
00002677 00000104 533.32 94.94 354.57 529.49 655.67 303.05 823.42 305.99 770.52 388.54 673.24 493.47 812.02 497.52
00002678 00000105 533.27 95.09 353.97 529.99 655.19 303.00 823.11 305.61 769.61 389.00 673.36 494.71 811.36 498.46
00002679 00000106 531.65 93.16 353.91 531.03 653.22 303.94 823.24 307.12 768.48 390.94 671.94 496.16 811.56 500.35
00002680 00000107 531.40 92.94 353.05 529.52 650.92 304.24 822.77 306.86 765.94 390.71 671.63 497.00 811.70 500.64
00002681 00000108 529.67 92.16 353.51 530.44 649.14 304.27 821.09 306.61 764.84 390.30 670.95 497.55 810.44 500.98
00002682 00000109 527.67 91.49 355.19 533.97 647.85 305.09 819.20 306.23 762.78 393.11 671.37 499.94 809.60 501.93
00002683 00000110 526.31 93.26 356.30 534.60 645.46 307.19 814.63 308.01 758.05 395.31 667.44 500.80 805.25 502.41
00002684 00000111 525.80 93.45 355.26 536.21 641.14 310.85 811.11 312.40 751.42 397.20 662.74 502.62 802.70 505.07
00002685 00000112 523.08 93.84 355.95 538.19 635.14 314.41 808.78 317.27 745.48 401.22 656.03 506.85 800.40 510.39
00002686 00000113 517.58 98.07 357.41 539.83 625.47 318.69 799.42 320.90 732.16 405.66 645.18 509.27 791.86 512.61
00002687 00000114 510.69 102.41 361.66 542.05 615.26 323.98 789.98 322.71 720.97 412.60 636.27 514.14 785.27 515.24
00002688 00000115 502.84 106.97 367.10 545.64 606.99 328.94 779.79 329.91 708.89 419.60 626.70 518.84 776.19 521.13
00002689 00000116 496.86 109.73 370.42 544.39 597.89 334.68 771.00 339.95 691.25 428.33 616.32 521.67 764.19 526.91
00002690 00000117 490.36 113.51 373.84 544.66 589.79 340.22 764.15 344.43 680.89 437.73 607.74 531.40 751.06 535.96
00002691 DELETE   487.66 116.10 375.78 549.07 585.30 342.62 763.80 350.17 674.75 444.15 602.78 536.23 748.53 543.30
00002692 00000119 485.81 118.57 376.72 546.17 582.03 348.39 763.77 359.52 670.86 452.98 598.06 539.56 746.27 549.04
00002693 00000120 483.36 123.18 376.42 543.21 579.37 354.71 759.84 366.17 667.50 461.29 593.80 543.10 741.67 552.57
00002694 00000121 480.66 127.00 377.81 546.52 577.32 361.53 756.47 372.93 666.10 468.66 592.85 547.57 739.25 557.04
00002695 00000122 480.86 137.21 379.59 552.66 576.59 366.13 753.57 380.09 663.87 474.86 587.50 551.23 735.25 563.58
00002696 00000123 480.86 145.56 377.75 546.91 576.34 373.22 752.81 385.85 663.42 482.07 587.58 558.27 732.06 570.23
00002697 00000124 481.70 151.54 375.61 540.97 576.59 377.49 752.82 390.66 663.16 488.08 586.45 563.33 726.92 576.12
00002698 00000125 480.36 160.89 374.99 534.12 576.46 383.36 752.84 396.08 661.88 494.84 585.61 568.61 724.77 581.02
00002699 00000126 479.65 163.76 376.10 535.49 577.23 389.91 752.73 400.70 664.27 502.87 591.24 576.08 726.52 586.98
00002700 00000127 481.26 174.19 374.04 529.08 578.00 397.09 753.47 405.57 664.37 510.87 592.50 582.77 726.13 591.62
00002701 00000128 475.68 169.11 375.05 531.70 575.18 400.72 748.70 408.13 660.83 517.08 589.26 594.32 726.79 601.36
00002702 00000129 474.31 175.63 377.23 536.63 576.86 410.14 747.04 414.45 663.97 525.68 598.30 603.05 729.67 606.75
00002703 DELETE   476.90 178.75 377.34 533.96 584.09 416.78 759.25 425.85 674.65 527.92 600.24 607.02 738.74 614.57
00002704 DELETE   477.05 176.98 378.21 538.05 584.51 419.90 761.80 427.47 678.38 532.32 605.12 611.71 746.07 617.84
00002705 00000132 477.65 181.60 379.37 541.86 586.27 422.22 765.48 425.66 683.93 537.50 612.03 615.69 752.66 618.38
00002706 00000133 478.84 182.19 379.69 535.23 588.43 424.88 766.40 425.87 688.20 539.63 618.17 618.27 756.78 618.70
00002707 00000134 481.07 183.55 380.55 536.27 591.64 427.75 768.86 426.90 691.03 540.48 621.34 618.88 760.50 617.84
00002708 00000135 484.97 185.95 377.50 533.41 595.03 428.14 771.51 426.17 694.76 540.94 625.54 619.21 763.43 617.64
00002709 00000136 488.23 183.26 376.43 534.31 597.97 427.29 773.17 426.36 696.90 538.76 627.50 616.81 765.84 616.15
00002710 00000137 490.28 181.61 376.54 534.27 600.88 425.62 775.52 424.24 700.15 537.12 630.08 615.56 767.92 614.62
00002711 00000138 492.93 183.37 376.25 530.48 602.85 423.76 776.92 421.29 700.91 537.62 630.99 614.22 768.08 612.66
00002712 00000139 496.09 182.80 374.43 530.08 604.78 422.44 779.38 419.98 703.11 534.18 633.09 613.72 768.37 612.32
00002713 00000140 499.45 182.69 372.22 531.38 606.38 420.08 779.75 417.50 703.29 533.09 633.34 609.77 767.16 608.77
00002714 00000141 501.63 182.22 370.73 531.05 607.74 415.33 780.45 413.45 704.19 528.39 633.96 605.83 768.38 605.67
00002715 00000142 503.95 181.70 369.00 533.22 609.58 412.07 781.45 412.44 705.35 520.82 632.01 600.82 768.96 602.67
00002716 00000143 507.53 176.02 368.46 534.05 610.35 405.12 780.87 406.86 704.31 513.54 630.35 594.84 769.27 597.51
00002717 00000144 505.63 168.27 371.24 533.35 612.59 401.25 785.96 402.84 709.20 510.04 628.40 582.08 767.17 584.92
00002718 00000145 508.28 163.65 369.33 535.02 612.60 396.07 784.64 399.11 706.72 503.66 628.23 575.49 767.66 579.48
00002719 00000146 509.99 159.55 369.01 534.68 614.26 388.63 785.42 394.84 705.57 496.98 627.73 568.63 766.77 575.35
00002720 00000147 513.82 152.79 369.02 533.82 610.94 381.18 783.02 384.38 702.00 491.49 622.73 573.37 768.78 576.50
00002721 00000148 514.65 150.64 369.56 536.67 612.77 376.58 785.87 381.14 704.22 483.95 623.41 567.26 773.18 571.56
00002722 00000149 516.05 146.01 367.70 542.88 615.57 371.87 787.41 377.63 706.94 476.08 623.56 563.65 771.71 569.35
00002723 00000150 517.69 138.59 366.67 546.40 617.23 366.86 788.17 373.49 708.96 470.02 625.67 558.55 771.38 564.68
00002724 00000151 515.72 131.71 365.77 549.26 619.13 367.29 793.79 374.54 712.45 469.35 632.79 550.96 776.63 558.23
00002725 00000152 516.18 127.98 366.25 548.13 619.87 363.24 793.94 370.84 713.13 466.26 634.53 548.13 776.18 555.66
00002726 00000153 517.51 126.44 365.87 544.79 620.31 360.45 794.29 368.79 712.60 462.43 635.46 546.06 775.58 554.19
00002727 00000154 518.10 122.44 366.26 547.27 619.91 357.10 794.78 365.95 711.36 459.35 635.69 544.10 776.60 552.61
00002728 00000155 518.67 121.32 365.94 546.04 619.63 354.28 794.13 364.39 709.02 457.88 634.84 542.55 773.99 552.23
00002729 00000156 518.70 124.54 366.75 540.77 618.86 352.65 792.70 362.97 706.72 455.73 633.84 540.42 770.97 550.43
00002730 00000157 518.85 126.19 366.67 537.51 617.45 351.66 791.70 361.37 704.66 454.10 633.43 540.02 769.27 549.55
00002731 00000158 518.70 125.61 366.86 535.90 616.21 350.39 790.82 359.65 702.67 452.87 632.20 538.94 767.89 548.14
00002732 00000159 519.07 125.59 366.49 534.79 616.03 348.78 790.06 359.28 700.65 450.79 630.18 536.39 766.74 546.67
00002733 00000160 518.90 123.89 366.79 535.77 615.50 347.74 789.27 359.13 698.52 447.64 627.81 534.82 764.94 545.88
00002734 00000161 518.72 125.27 367.24 530.25 616.37 345.81 788.75 358.31 697.55 445.68 626.92 532.37 762.45 544.51
00002735 00000162 518.96 123.49 367.91 531.30 616.15 344.22 789.51 356.22 697.97 443.98 626.76 532.13 762.70 543.82
00002736 00000163 518.99 123.87 367.79 531.82 616.46 343.57 789.49 356.35 698.25 443.24 626.24 531.20 762.50 543.54
00002737 00000164 518.92 123.45 367.81 532.47 615.81 343.01 788.81 355.58 697.57 441.85 626.03 531.29 761.90 543.46
00002738 00000165 519.04 122.60 367.74 532.84 615.80 342.73 788.24 355.93 696.66 441.90 625.78 530.96 761.58 543.61
00002739 00000166 519.05 121.98 367.77 533.90 615.83 342.22 787.60 355.69 696.06 441.30 624.79 530.86 760.09 543.78
00002740 00000167 518.14 122.85 368.22 533.10 615.16 341.94 786.74 355.64 695.13 440.51 623.67 530.68 758.73 543.81
00002741 00000168 517.51 123.29 367.70 532.63 614.30 341.93 785.13 355.47 694.26 440.29 622.86 530.38 757.58 543.39
00002742 00000169 515.98 123.07 367.88 533.57 612.77 342.07 782.43 355.51 692.03 440.32 620.99 530.28 755.08 543.25
00002743 00000170 513.23 124.35 367.99 533.22 610.75 343.01 780.31 356.45 691.18 441.92 619.78 530.57 754.52 543.43
00002744 00000171 510.37 123.48 369.82 533.38 608.53 344.31 778.31 357.22 688.67 442.69 618.65 531.87 752.16 544.23
