Video ID: 	RfZxyR5AHjA
H: 	1080
W: 	1920
FPS: 	59.94006309148265

FRAME INDEX X0 Y0 W H [Landmarks (5 Points)]

00058374 00000000 717.80 76.90 468.18 744.67 799.59 324.87 1029.37 333.43 865.68 447.25 797.43 602.37 1000.62 609.03
00058375 00000001 717.77 76.70 468.21 745.01 799.67 324.82 1029.54 333.25 865.48 447.38 797.47 602.51 1000.76 609.06
00058376 00000002 714.08 71.84 469.04 753.85 790.37 321.28 1025.19 324.78 857.61 445.28 792.38 607.91 997.69 610.30
00058377 00000003 714.28 70.89 468.96 754.91 790.17 321.28 1025.14 324.72 857.11 445.18 792.22 607.87 997.77 610.21
00058378 DELETE   715.38 60.98 466.10 765.05 783.79 321.41 1023.10 326.91 856.08 435.80 790.80 614.09 991.96 620.64
00058379 DELETE   715.22 60.95 466.61 765.22 783.60 321.38 1022.98 326.68 855.66 435.92 790.67 614.03 991.71 620.44
00058380 00000006 714.03 63.44 466.30 760.55 780.94 323.79 1018.74 326.56 853.65 441.53 791.38 619.24 987.05 623.67
00058381 00000007 714.05 63.39 466.35 760.55 780.85 323.85 1018.91 326.47 853.65 441.44 791.54 619.47 987.10 623.76
00058382 00000008 708.40 72.47 471.04 743.88 781.42 323.43 1014.94 318.71 851.51 450.36 795.43 618.80 986.09 614.54
00058383 00000009 708.51 72.21 471.10 744.33 781.48 323.73 1015.11 318.67 851.66 450.19 795.58 619.11 986.47 614.55
00058384 00000010 706.41 72.95 472.30 735.58 780.20 325.66 1013.73 318.72 852.58 450.71 797.32 618.37 984.62 612.51
00058385 00000011 706.30 73.10 472.39 735.60 779.78 325.95 1013.63 318.77 852.53 450.67 797.26 618.65 985.05 612.57
00058386 00000012 705.92 70.74 472.64 736.18 779.25 325.52 1013.71 317.72 852.53 449.39 795.26 616.19 985.18 609.72
00058387 00000013 705.67 70.95 472.90 735.40 779.10 325.72 1013.41 317.83 852.46 449.54 795.17 616.16 984.94 609.61
00058388 00000014 705.55 66.94 472.58 737.80 777.82 325.48 1012.93 317.37 851.15 447.48 791.26 613.80 984.81 607.14
00058389 00000015 705.48 67.29 472.95 736.67 777.62 325.79 1013.20 317.88 851.10 448.24 790.72 613.75 984.44 607.31
00058390 00000016 704.00 69.31 473.33 733.26 776.08 325.78 1013.05 319.20 851.47 447.68 788.36 612.93 983.87 607.67
00058391 00000017 704.24 69.16 473.03 733.55 776.02 325.91 1012.88 319.34 851.14 447.66 788.35 612.94 984.11 607.66
00058392 00000018 704.80 71.47 466.28 729.36 773.17 331.00 1011.25 326.22 854.35 445.01 785.00 614.86 980.45 613.06
00058393 00000019 704.88 71.38 466.25 729.18 773.08 331.03 1011.06 326.17 854.19 445.19 784.95 614.96 980.24 613.09
00058394 00000020 701.97 72.10 469.25 732.70 772.80 332.35 1011.61 329.37 854.14 448.35 782.49 616.33 977.41 616.28
00058395 00000021 702.03 72.57 469.27 732.58 772.91 332.22 1011.46 329.24 853.90 448.20 782.58 616.26 977.06 616.21
00058396 00000022 699.22 72.92 471.81 735.15 770.36 336.76 1009.76 333.41 849.68 450.85 779.98 621.19 975.30 620.92
00058397 00000023 699.34 73.86 471.87 734.23 770.52 336.86 1009.79 333.49 849.73 450.85 779.98 621.23 975.34 620.94
00058398 00000024 697.08 72.47 471.86 736.04 768.79 340.32 1009.44 338.02 847.52 458.23 779.50 625.64 976.67 626.22
00058399 00000025 697.25 72.47 471.79 736.24 768.96 340.39 1009.33 337.99 847.32 458.34 779.63 625.78 976.78 626.29
00058400 00000026 695.51 73.81 472.74 733.61 766.69 342.30 1009.89 340.04 844.45 465.90 779.01 628.35 977.94 628.64
00058401 00000027 695.39 73.77 473.44 733.60 766.61 342.34 1009.52 340.12 843.96 465.84 778.96 628.37 977.65 628.73
00058402 00000028 693.05 67.68 476.81 741.52 773.51 346.37 1006.22 349.40 841.12 483.14 785.11 626.73 975.67 629.38
00058403 00000029 694.55 67.49 473.18 742.26 767.39 344.87 1007.66 346.68 841.58 478.29 780.91 625.47 976.08 626.14
00058404 00000030 692.16 65.18 475.85 744.39 765.42 346.24 1004.70 348.04 838.71 484.19 780.28 627.03 973.79 627.81
00058405 00000031 692.20 65.73 475.80 743.97 765.40 346.24 1004.76 348.09 838.75 484.19 780.22 627.03 973.79 627.88
00058406 00000032 687.13 67.10 482.63 745.92 770.82 346.85 1003.31 352.24 838.38 489.88 781.71 628.38 973.65 633.02
00058407 00000033 687.27 68.06 482.31 745.03 770.56 346.75 1003.52 352.27 838.81 490.08 781.26 628.14 973.74 632.89
00058408 00000034 688.51 67.31 477.90 751.11 763.28 345.97 1000.30 349.80 834.84 491.36 778.09 628.09 971.03 630.81
00058409 00000035 688.60 67.24 477.64 751.29 763.34 346.06 1000.37 349.97 834.90 491.41 777.86 628.17 970.83 630.99
00058410 00000036 686.81 68.54 477.89 752.21 762.99 350.46 996.92 356.35 832.78 496.70 775.12 627.46 968.51 631.76
00058411 00000037 686.88 69.34 477.85 751.41 763.13 350.70 997.35 356.60 833.16 496.51 775.05 627.45 968.87 631.80
00058412 00000038 688.47 74.45 474.45 744.80 763.15 358.49 992.10 365.45 831.40 506.88 776.60 629.29 967.57 634.21
00058413 00000039 688.44 74.04 474.59 745.29 763.23 358.65 992.07 365.69 831.47 507.05 776.59 629.19 967.62 634.19
00058414 00000040 688.05 73.84 477.41 747.91 766.04 369.37 988.70 377.05 829.89 512.16 778.54 632.54 967.72 638.11
00058415 00000041 688.16 73.79 477.05 747.50 766.00 369.26 988.95 376.76 830.35 512.18 778.62 632.43 968.01 637.85
00058416 00000042 688.36 69.45 477.08 754.97 767.48 375.63 989.65 384.11 831.44 512.27 778.73 635.21 967.77 641.61
00058417 00000043 688.40 69.67 477.00 754.70 767.45 375.70 989.45 384.17 831.32 512.25 778.61 634.98 967.69 641.35
00058418 00000044 682.29 67.95 481.98 764.11 763.47 371.68 987.53 377.91 830.23 510.18 775.48 636.43 965.31 641.36
00058419 00000045 689.67 69.09 476.40 768.41 765.64 368.28 987.97 377.39 829.39 507.09 774.76 636.18 963.96 644.36
00058420 00000046 682.49 73.73 479.23 761.77 761.52 366.07 990.02 371.71 832.35 508.64 772.76 634.92 967.74 639.38
00058421 00000047 682.03 72.72 479.55 762.73 761.23 366.01 989.85 371.53 832.11 508.41 772.67 635.09 967.73 639.45
00058422 00000048 684.50 77.17 476.21 760.09 761.15 363.52 992.16 369.19 833.72 508.79 772.53 635.41 968.28 639.90
00058423 00000049 684.35 77.17 476.56 760.13 761.20 363.48 992.05 369.04 833.89 508.53 772.60 635.24 967.86 639.59
00058424 00000050 684.10 77.32 476.65 758.19 761.05 359.12 991.17 367.27 831.44 506.84 770.73 633.91 961.86 640.25
00058425 00000051 684.15 76.90 476.71 758.80 761.49 359.06 991.33 367.27 831.70 506.61 771.09 633.80 962.05 640.14
00058426 00000052 684.84 78.55 474.84 750.90 759.77 356.24 990.56 366.91 828.37 507.09 770.84 637.17 952.61 645.99
00058427 00000053 684.89 78.44 474.73 751.16 759.77 356.14 990.41 366.84 828.10 506.98 770.70 637.18 952.45 646.00
00058428 00000054 688.91 75.72 469.79 738.98 757.87 353.69 993.07 367.30 826.63 507.58 769.38 639.82 945.42 651.00
00058429 00000055 688.91 75.74 469.72 738.97 757.82 353.76 993.04 367.17 826.62 507.49 769.30 639.90 945.36 650.92
00058430 00000056 690.74 74.79 468.52 735.23 759.25 349.85 995.70 365.30 826.44 504.62 768.13 638.83 944.44 651.44
00058431 00000057 690.56 73.92 468.75 736.42 759.21 349.83 995.81 365.29 826.46 504.71 768.16 638.78 944.53 651.46
00058432 00000058 690.09 72.80 469.85 735.54 760.85 346.91 996.77 362.08 825.99 500.65 768.39 635.81 943.51 648.45
00058433 00000059 690.35 73.62 469.73 734.62 760.78 346.87 996.65 362.34 825.59 500.64 768.13 635.56 943.19 648.42
00058434 00000060 688.99 67.68 472.59 734.34 760.72 342.32 996.16 354.85 826.12 493.17 767.56 632.88 940.85 643.92
00058435 00000061 688.88 67.65 473.29 735.26 760.45 342.21 996.14 354.92 825.58 492.98 767.09 632.78 940.77 644.01
00058436 00000062 686.34 67.12 474.18 735.05 764.76 335.60 1002.82 346.92 826.72 483.81 770.03 630.94 944.08 641.90
00058437 00000063 686.57 66.98 473.81 735.47 765.07 335.80 1002.81 347.01 826.67 483.93 770.64 631.21 944.11 642.08
00058438 00000064 687.71 62.80 476.41 736.95 766.61 330.84 1005.17 339.91 827.87 473.37 771.24 624.83 946.10 633.81
00058439 00000065 687.68 62.22 476.52 736.78 766.44 330.57 1005.41 339.85 827.84 473.31 771.09 624.50 946.14 633.64
00058440 00000066 693.88 66.61 472.29 730.65 766.11 324.09 1003.50 330.51 833.59 456.81 771.57 618.94 949.09 628.13
00058441 00000067 694.01 66.84 472.36 730.76 766.18 323.99 1003.54 330.60 833.41 456.69 771.26 618.92 948.97 628.28
00058442 00000068 693.94 65.01 476.49 748.66 769.44 324.31 1007.21 329.33 836.55 452.96 775.05 620.98 953.55 628.66
00058443 00000069 693.88 63.96 476.66 750.14 769.69 324.16 1007.79 329.51 836.74 453.04 775.03 620.89 953.78 628.87
00058444 00000070 694.06 64.96 480.19 759.64 771.58 326.71 1010.66 332.95 837.90 454.94 776.46 624.73 960.80 633.03
00058445 00000071 693.86 65.57 480.40 759.34 771.78 327.09 1010.77 333.24 838.38 454.98 776.73 624.99 961.10 633.21
00058446 00000072 696.35 66.58 478.02 756.39 773.65 328.17 1012.09 335.38 842.09 461.09 778.84 624.80 964.20 633.85
00058447 00000073 696.29 66.70 478.22 756.14 773.45 328.34 1011.79 335.63 841.65 461.31 778.64 624.54 964.20 633.61
00058448 00000074 697.37 67.19 477.29 740.68 771.36 329.04 1013.33 336.28 845.55 460.27 775.96 620.64 968.63 629.70
00058449 00000075 697.13 66.65 477.54 740.95 771.35 329.37 1013.56 336.78 846.10 460.30 775.92 620.69 968.75 629.89
00058450 00000076 699.68 62.98 475.75 733.96 770.26 327.48 1014.26 333.12 848.58 459.82 777.76 618.79 971.79 626.57
00058451 00000077 699.80 62.34 475.76 734.57 770.11 327.45 1014.43 332.75 848.67 459.87 778.06 619.08 972.29 626.58
00058452 00000078 700.31 61.36 475.67 734.44 769.64 326.10 1014.54 331.73 849.12 459.34 777.18 618.12 972.57 625.93
00058453 00000079 700.30 61.63 475.58 734.14 769.73 326.10 1014.56 331.71 849.23 459.28 777.33 618.06 972.68 625.85
00058454 00000080 701.00 59.33 475.61 737.35 770.91 324.84 1014.90 330.66 849.31 456.77 777.60 615.75 971.74 623.60
00058455 00000081 701.07 58.37 475.88 738.76 771.33 324.48 1015.41 330.37 849.59 457.29 778.00 615.79 972.03 623.75
00058456 00000082 699.40 51.81 479.14 743.76 778.04 319.26 1019.32 327.50 846.98 462.35 784.47 613.14 972.96 621.07
00058457 00000083 699.32 52.25 478.95 743.18 778.20 319.42 1019.55 327.66 847.57 462.62 784.70 613.08 973.07 621.01
00058458 00000084 703.37 51.05 476.61 736.84 779.48 320.94 1022.07 327.70 850.31 457.73 784.93 610.57 974.93 617.50
00058459 00000085 702.92 51.33 477.22 736.76 779.30 321.05 1022.50 327.70 850.52 457.46 784.75 610.78 975.11 617.62
00058460 00000086 706.47 51.35 475.60 734.53 781.11 321.60 1023.68 327.69 852.59 458.20 787.03 609.48 978.75 615.84
00058461 00000087 706.43 51.34 475.61 734.17 781.30 321.49 1023.87 327.71 852.59 458.21 787.24 609.60 978.54 616.12
00058462 00000088 709.91 52.49 472.07 732.15 785.27 321.70 1028.81 330.66 858.25 461.02 791.28 609.07 979.86 618.10
00058463 00000089 709.96 52.66 472.10 732.19 785.35 321.90 1028.79 330.64 858.20 460.81 791.29 609.11 979.97 617.94
00058464 00000090 709.88 60.58 474.60 724.80 788.91 325.78 1032.41 336.90 864.63 466.03 794.62 610.89 976.35 622.26
00058465 00000091 709.99 60.73 474.55 724.56 788.91 325.77 1032.35 336.92 864.62 465.96 794.58 610.92 976.29 622.30
00058466 00000092 714.06 67.08 470.94 720.98 792.22 331.95 1033.47 344.67 870.12 473.38 797.84 616.75 970.45 629.99
00058467 00000093 713.71 66.75 471.31 721.39 792.24 331.89 1033.57 344.50 870.64 473.59 798.19 617.01 970.51 630.18
00058468 00000094 714.95 70.24 472.15 727.29 794.81 335.38 1036.37 346.21 871.39 480.38 803.84 624.49 973.65 636.08
00058469 00000095 714.88 70.07 472.20 727.59 795.00 335.79 1036.58 346.20 871.15 480.07 803.90 624.77 973.59 636.03
00058470 00000096 717.04 66.11 471.94 738.01 796.57 339.61 1037.54 347.65 870.13 485.03 806.43 631.83 973.27 641.46
00058471 00000097 716.66 65.35 472.31 738.74 796.75 339.27 1037.89 347.41 870.10 485.05 806.37 631.87 972.79 641.63
00058472 00000098 719.60 66.55 470.24 746.69 799.32 340.98 1036.62 348.51 869.02 486.76 810.76 635.25 971.25 644.71
00058473 00000099 719.60 66.57 470.42 747.07 799.40 341.02 1036.61 348.53 869.05 486.67 810.59 635.16 971.21 644.59
00058474 00000100 716.43 63.43 479.04 773.48 802.80 338.08 1037.40 344.99 871.24 481.67 815.31 643.12 968.06 651.86
00058475 00000101 717.28 62.68 478.24 774.34 803.02 338.09 1037.29 345.11 870.86 481.73 815.23 643.15 968.09 652.02
00058476 00000102 721.93 63.44 475.51 778.43 805.25 335.52 1039.55 340.78 873.52 477.95 818.60 644.24 970.74 651.57
00058477 00000103 722.33 63.39 475.25 778.25 805.15 335.82 1039.72 340.72 873.62 477.79 818.55 644.55 970.65 651.64
00058478 00000104 724.03 64.64 477.41 773.78 806.76 333.47 1041.54 339.01 875.68 473.20 817.09 639.91 972.68 647.68
00058479 00000105 723.96 64.77 477.69 773.45 806.54 333.68 1041.33 339.13 875.98 473.22 817.20 639.89 972.76 647.59
00058480 00000106 729.48 68.60 473.26 762.50 804.33 332.59 1041.99 339.30 876.78 474.48 815.57 637.45 985.08 645.33
00058481 00000107 728.80 68.27 473.57 762.66 804.34 332.92 1041.77 339.31 876.36 474.14 815.91 637.32 985.21 644.90
00058482 00000108 733.87 69.70 469.79 757.60 807.34 333.97 1045.91 342.94 878.89 472.41 815.02 631.90 994.97 641.26
00058483 00000109 734.20 69.90 469.57 757.75 807.44 334.01 1046.09 342.87 878.95 472.02 815.06 631.99 995.31 641.22
00058484 00000110 735.90 69.51 468.70 757.30 806.57 335.79 1046.60 346.86 880.57 471.94 810.40 628.81 998.09 639.80
00058485 00000111 735.57 69.46 469.14 757.28 806.51 336.11 1046.35 346.81 880.53 471.84 810.48 628.99 998.09 639.66
00058486 00000112 735.75 70.81 465.99 749.40 802.71 335.17 1048.66 352.52 878.59 479.96 803.22 628.80 997.20 645.22
00058487 00000113 735.99 71.16 465.98 748.71 802.48 335.66 1048.64 352.57 878.68 480.13 803.26 629.24 997.18 645.32
00058488 00000114 735.67 67.96 467.89 753.16 802.61 334.91 1048.93 352.86 877.40 483.54 803.69 629.99 997.35 646.98
00058489 00000115 735.37 67.40 468.24 753.90 802.61 335.05 1048.76 352.82 877.25 483.32 803.63 630.20 997.45 647.02
00058490 00000116 735.55 68.52 468.99 752.27 803.99 331.87 1049.91 351.90 877.55 481.20 802.34 626.76 995.76 645.60
00058491 00000117 735.22 67.83 469.28 753.00 803.86 332.10 1050.03 351.92 877.84 481.21 802.23 626.81 995.89 645.48
00058492 00000118 732.45 64.30 474.12 762.88 805.07 330.85 1048.09 349.68 877.29 482.67 804.79 625.87 997.24 643.49
00058493 00000119 732.36 63.97 474.66 763.06 805.33 331.10 1048.27 349.92 877.24 482.52 804.80 625.89 997.36 643.51
00058494 00000120 730.97 63.09 475.60 773.17 804.75 338.76 1045.67 354.15 874.05 484.48 804.20 629.05 998.26 643.43
00058495 00000121 731.49 63.34 474.91 772.87 804.93 338.92 1045.63 354.35 873.79 484.55 804.20 629.03 998.46 643.45
00058496 00000122 729.27 63.31 473.55 783.80 804.99 342.39 1042.96 360.19 871.82 492.08 804.03 630.99 1000.07 647.33
00058497 00000123 729.12 63.68 473.76 783.28 805.17 342.18 1042.84 360.05 872.02 491.92 804.26 630.94 999.93 647.31
00058498 00000124 726.94 66.33 474.21 794.34 803.76 346.56 1043.89 363.95 872.78 499.81 805.81 640.92 1003.17 656.79
00058499 00000125 727.35 66.59 473.56 794.51 803.61 346.94 1043.78 364.07 872.70 499.84 806.04 641.25 1003.22 656.91
00058500 00000126 723.57 76.19 473.18 797.95 804.55 349.49 1043.31 364.56 866.25 505.99 803.66 649.63 1010.84 663.10
00058501 00000127 723.50 76.23 473.30 798.13 804.64 349.53 1043.34 364.65 866.35 505.98 803.63 649.73 1010.88 663.24
00058502 00000128 718.13 74.39 477.98 803.83 800.68 355.94 1035.95 368.36 864.60 514.29 805.05 657.68 1007.38 668.76
00058503 00000129 717.93 74.63 478.28 803.79 800.53 356.10 1035.90 368.39 864.81 514.57 805.06 657.82 1007.42 668.75
00058504 00000130 714.83 78.12 478.54 792.56 794.64 374.93 1024.14 381.30 859.04 516.07 803.38 661.70 996.33 668.23
00058505 00000131 713.51 80.32 479.39 789.32 797.64 372.18 1023.33 379.10 859.88 521.15 804.53 661.07 1000.60 667.51
00058506 00000132 715.26 76.94 478.41 779.77 794.78 387.17 1018.09 393.32 857.20 520.92 800.33 656.88 990.81 663.40
00058507 00000133 715.18 76.11 478.54 780.81 794.69 387.18 1018.10 393.34 857.35 521.05 800.14 656.90 991.03 663.41
CROP_BBOX: 371 0 1530 1043
