Video ID: 	_vVaEbnf0_c
H: 	1080
W: 	1920
FPS: 	25.0

FRAME INDEX X0 Y0 W H [Landmarks (5 Points)]

00022341 00000000 755.27 194.51 470.35 675.96 894.79 466.45 1114.75 446.49 1029.12 605.18 902.50 668.91 1137.98 651.02
00022342 00000001 762.83 188.85 463.71 673.23 900.73 465.41 1122.27 449.10 1032.82 603.66 911.78 664.92 1139.51 652.07
00022343 00000002 765.67 186.41 466.17 678.98 906.40 464.79 1128.69 448.81 1040.82 605.06 915.73 665.12 1145.50 652.83
00022344 00000003 771.51 191.45 470.23 677.74 917.29 466.10 1136.38 448.77 1054.99 603.64 925.70 664.97 1154.94 651.76
00022345 00000004 786.90 202.43 464.89 674.39 930.41 463.63 1148.36 441.62 1070.92 603.01 939.83 668.92 1163.42 649.62
00022346 00000005 792.52 191.22 465.12 683.88 945.18 464.17 1157.92 436.85 1096.31 603.37 948.02 671.94 1179.18 650.54
00022347 00000006 798.59 190.95 471.48 683.22 963.93 462.41 1167.33 433.73 1115.71 599.91 962.86 668.77 1189.37 646.04
00022348 00000007 803.13 182.17 470.23 689.02 977.44 449.10 1181.64 424.92 1131.56 583.91 973.92 659.80 1198.69 640.14
00022349 00000008 806.90 175.78 472.03 686.18 979.19 433.31 1189.72 413.02 1136.21 567.12 983.38 653.80 1202.90 636.44
00022350 00000009 808.02 163.36 469.80 691.29 987.64 426.65 1193.25 407.72 1140.97 554.65 994.28 646.64 1203.67 629.99
00022351 00000010 809.09 158.41 468.27 688.45 989.52 424.73 1191.59 409.81 1139.84 545.24 997.37 640.51 1201.91 626.98
00022352 00000011 808.87 156.08 469.95 685.14 989.70 421.82 1192.28 407.59 1139.67 541.31 1001.38 638.61 1201.33 625.59
00022353 00000012 813.54 141.41 463.90 685.34 994.85 420.85 1191.07 404.15 1141.65 536.31 1001.19 635.51 1199.05 622.19
00022354 00000013 816.45 139.96 465.04 671.86 999.19 415.83 1195.05 402.00 1145.74 526.69 1007.80 624.98 1201.95 613.66
00022355 DELETE   829.44 132.81 464.00 665.96 1008.18 411.17 1208.89 399.68 1157.41 512.90 1021.08 612.38 1214.10 603.54
00022356 00000015 832.29 125.73 462.31 670.42 1016.13 401.83 1215.03 395.13 1166.16 506.79 1030.13 608.10 1217.23 603.36
00022357 00000016 835.47 126.05 462.03 672.97 1026.26 395.29 1222.52 393.18 1181.15 509.08 1038.53 607.66 1222.68 606.81
00022358 00000017 834.32 133.20 463.90 664.75 1040.02 391.12 1224.55 392.12 1188.80 510.47 1040.40 611.22 1221.70 612.15
00022359 00000018 837.72 134.16 467.01 663.13 1051.11 392.05 1229.95 392.45 1199.94 511.41 1051.34 611.00 1227.57 611.71
00022360 00000019 844.62 134.60 467.11 662.44 1064.10 391.87 1239.89 391.01 1217.38 512.30 1060.03 609.35 1236.70 609.73
00022361 00000020 850.13 139.71 465.55 657.34 1069.38 390.45 1248.86 387.85 1229.22 515.34 1058.30 608.10 1243.56 608.01
00022362 00000021 854.15 140.32 463.30 657.71 1069.97 392.07 1249.92 386.77 1230.81 516.86 1059.52 608.88 1246.44 606.65
00022363 00000022 850.68 140.47 465.69 660.37 1066.18 392.70 1244.96 386.24 1224.90 519.81 1055.35 610.26 1242.93 607.04
00022364 00000023 846.80 142.54 465.35 660.64 1056.87 396.01 1239.71 387.72 1213.21 525.03 1046.63 613.57 1236.27 609.08
00022365 00000024 843.84 145.13 460.75 662.62 1046.89 401.27 1230.51 387.91 1203.11 532.56 1037.22 617.97 1230.09 609.42
00022366 00000025 840.50 146.88 460.10 668.88 1040.00 405.82 1226.33 395.89 1192.13 538.24 1039.16 626.52 1225.46 619.78
00022367 00000026 836.52 151.77 460.00 677.02 1032.49 408.44 1220.42 404.37 1180.35 542.33 1041.93 639.18 1219.69 636.69
00022368 00000027 831.26 161.04 465.14 674.04 1027.91 409.64 1222.04 406.68 1175.58 546.12 1037.71 643.81 1215.02 641.04
00022369 00000028 830.67 161.90 461.87 673.53 1025.96 411.24 1220.90 407.78 1175.27 547.39 1039.01 647.27 1213.44 643.97
00022370 00000029 834.55 156.18 454.75 679.08 1029.37 416.52 1218.96 413.82 1176.54 550.84 1041.78 651.07 1212.46 650.00
00022371 00000030 836.37 163.20 454.64 672.92 1034.04 421.22 1225.05 416.73 1185.24 552.24 1051.45 658.19 1216.22 655.88
00022372 00000031 841.56 162.40 453.58 673.89 1046.73 424.20 1230.87 413.63 1200.81 555.34 1067.68 662.36 1225.92 655.09
00022373 00000032 843.80 165.37 455.11 674.27 1056.23 425.67 1234.33 412.23 1213.55 556.14 1087.41 668.72 1236.46 658.40
00022374 00000033 847.11 171.87 463.31 668.05 1064.01 416.13 1251.74 412.63 1222.69 549.83 1091.15 665.99 1246.47 660.28
00022375 00000034 848.91 170.05 462.75 673.83 1065.58 417.05 1253.81 411.51 1227.79 549.89 1091.35 667.89 1248.34 660.78
00022376 00000035 846.04 166.93 455.13 675.54 1058.48 428.50 1237.92 411.17 1220.87 558.36 1092.18 674.85 1240.00 661.68
00022377 00000036 840.03 168.41 453.82 677.03 1048.10 429.99 1230.94 413.90 1209.60 558.26 1079.38 672.41 1233.03 660.53
00022378 00000037 834.18 163.65 451.84 683.33 1035.47 434.87 1223.39 422.35 1197.18 561.87 1058.72 670.50 1221.04 661.55
00022379 00000038 821.94 181.09 458.97 682.01 1024.19 437.50 1215.82 421.82 1186.31 570.35 1041.49 681.36 1211.12 668.15
00022380 00000039 813.27 182.44 462.54 686.45 1015.16 441.56 1206.99 423.19 1176.74 579.38 1028.52 682.99 1204.92 667.47
00022381 00000040 805.83 186.72 464.83 684.15 1006.70 446.32 1198.26 428.34 1169.13 583.52 1019.18 684.02 1198.44 668.66
00022382 00000041 799.71 188.25 465.71 682.29 1001.27 450.53 1190.64 434.71 1160.86 586.61 1015.72 684.96 1194.29 671.11
00022383 00000042 795.62 186.97 464.01 682.65 996.05 454.90 1185.56 438.02 1153.20 594.00 1006.97 683.92 1189.40 669.50
00022384 00000043 794.92 187.54 463.13 681.22 993.02 459.57 1182.59 438.89 1148.98 601.69 1010.26 692.92 1185.52 675.30
00022385 00000044 792.03 190.40 464.03 678.31 990.63 463.15 1180.57 438.28 1147.54 606.67 1012.36 697.20 1185.94 676.36
00022386 00000045 791.93 192.91 464.80 675.02 990.89 464.37 1181.59 438.36 1149.40 607.01 1011.84 696.12 1189.11 674.52
00022387 00000046 795.59 193.45 461.64 672.06 992.69 461.93 1183.10 437.63 1152.79 601.01 1011.88 692.12 1191.28 671.81
00022388 00000047 795.81 192.32 461.87 673.19 994.54 459.22 1184.62 436.79 1155.42 597.93 1006.63 685.96 1190.52 667.56
00022389 00000048 793.61 191.91 464.32 673.69 993.88 453.63 1183.26 436.20 1154.16 589.30 1005.80 680.64 1189.99 665.98
00022390 00000049 791.25 189.55 465.82 677.43 990.77 451.23 1181.95 432.31 1152.73 585.73 1000.49 677.26 1190.26 661.52
00022391 00000050 788.08 188.58 466.97 679.11 984.28 451.85 1177.01 429.24 1147.45 586.56 995.26 678.55 1188.18 659.75
00022392 00000051 785.23 189.31 467.65 675.87 975.43 455.00 1171.81 428.62 1138.52 588.94 988.40 680.38 1184.60 658.58
00022393 00000052 783.42 186.69 464.30 675.27 965.17 458.69 1163.74 429.02 1125.66 592.20 979.42 680.55 1178.24 655.83
00022394 00000053 781.87 182.78 459.77 671.84 949.00 462.80 1158.59 433.35 1106.92 590.58 971.77 675.46 1171.44 653.27
00022395 00000054 777.91 186.86 462.19 670.38 939.42 464.21 1156.01 437.41 1092.71 598.35 959.44 674.05 1167.13 653.99
00022396 00000055 774.82 190.15 464.27 667.34 934.60 468.66 1150.91 442.79 1083.25 604.73 954.87 676.01 1160.37 656.74
00022397 00000056 771.85 192.29 465.30 664.63 931.89 472.72 1147.32 446.10 1078.87 607.00 954.25 677.58 1158.10 657.37
00022398 00000057 769.26 189.62 466.10 664.66 929.18 474.45 1143.41 446.42 1075.71 607.25 952.55 677.62 1154.85 656.13
00022399 00000058 765.86 190.29 463.31 669.16 926.49 478.41 1139.34 451.25 1072.01 610.56 944.86 680.17 1149.24 659.03
00022400 00000059 763.44 198.82 462.25 666.58 924.99 481.60 1135.43 458.58 1066.60 616.87 936.85 682.14 1141.79 664.64
00022401 00000060 752.14 204.32 464.78 666.30 918.82 480.85 1130.43 448.77 1068.91 622.96 934.27 694.41 1142.58 667.78
00022402 DELETE   747.09 198.39 458.60 667.91 903.84 481.17 1120.59 446.04 1057.04 620.56 922.50 693.46 1135.39 664.56
00022403 DELETE   736.56 194.00 459.69 666.71 871.26 473.67 1092.11 445.12 1011.75 616.33 898.05 683.95 1110.25 661.31
00022404 DELETE   713.65 186.81 465.56 677.45 834.81 470.61 1059.80 450.53 964.05 619.56 866.64 686.72 1077.88 670.89
00022405 00000064 695.39 193.16 470.92 672.41 813.45 472.48 1033.05 451.51 936.35 615.98 847.65 699.10 1048.61 679.57
00022406 00000065 694.17 193.87 472.97 679.35 815.06 475.92 1033.50 450.57 941.87 616.77 855.99 705.69 1053.47 682.00
00022407 00000066 708.53 191.10 466.70 694.24 822.83 466.71 1042.78 444.63 953.03 619.55 876.57 717.21 1061.71 699.10
00022408 00000067 713.72 187.48 466.13 698.10 832.01 471.39 1051.35 448.06 963.52 623.64 883.28 715.62 1069.65 696.50
00022409 00000068 715.31 201.43 465.86 680.99 834.27 480.06 1054.88 456.10 964.94 631.84 884.39 718.76 1070.32 699.27
00022410 00000069 707.70 202.98 470.38 687.98 833.35 485.55 1050.76 468.97 963.70 636.06 874.47 723.04 1065.61 709.18
00022411 00000070 716.23 209.24 466.52 675.59 833.52 485.52 1052.27 466.19 958.02 636.19 875.38 717.19 1063.43 701.40
00022412 00000071 715.80 201.38 468.78 676.25 829.22 473.75 1048.69 453.64 952.57 623.29 874.72 709.45 1064.63 692.85
00022413 00000072 716.44 188.68 466.14 688.12 824.33 460.57 1042.88 442.26 946.92 610.70 869.66 704.96 1058.90 690.08
00022414 00000073 712.63 183.54 465.97 691.37 819.78 456.07 1039.81 440.30 941.08 607.75 858.74 699.15 1054.31 686.27
00022415 00000074 711.33 184.06 466.84 694.85 820.25 457.57 1039.37 442.58 940.71 609.16 859.70 701.38 1052.75 689.23
00022416 00000075 714.09 184.91 468.00 696.29 822.53 458.36 1042.94 442.53 943.85 610.89 864.81 705.38 1055.45 692.66
00022417 00000076 712.38 189.22 470.23 685.02 824.60 457.56 1044.48 440.28 946.29 606.73 866.36 700.15 1057.16 686.26
00022418 00000077 715.30 185.29 468.86 689.99 827.78 455.50 1047.17 437.11 950.54 605.32 869.71 698.96 1062.07 684.07
00022419 00000078 715.52 184.67 467.72 695.25 831.19 455.46 1049.59 438.39 956.18 604.41 873.01 700.15 1065.79 686.09
00022420 00000079 717.82 179.33 468.02 699.74 838.66 452.02 1058.00 434.08 969.69 593.64 876.85 692.87 1075.72 677.90
00022421 DELETE   726.77 173.08 460.25 693.80 853.55 450.72 1066.89 429.51 985.06 579.22 886.68 677.42 1089.07 659.64
00022422 DELETE   734.59 166.19 455.57 693.14 869.25 450.74 1084.44 430.12 1004.72 575.07 898.38 671.05 1103.93 653.60
00022423 DELETE   741.20 173.27 458.47 686.03 883.94 454.11 1096.43 429.26 1028.76 578.46 910.82 673.54 1118.52 650.91
00022424 00000083 746.58 173.65 462.52 683.33 897.71 447.61 1112.30 422.50 1045.63 576.69 921.48 671.08 1128.82 648.58
00022425 00000084 753.01 171.20 471.27 682.74 907.14 445.83 1126.93 415.57 1061.91 572.57 934.00 672.78 1142.22 645.98
00022426 00000085 761.38 164.96 467.25 682.34 917.86 445.62 1130.69 423.10 1065.83 568.34 946.00 663.97 1147.60 645.92
00022427 00000086 765.99 174.62 467.50 674.81 923.09 446.81 1137.88 424.88 1071.47 571.41 952.38 664.56 1154.33 647.25
00022428 00000087 771.33 172.29 465.97 674.32 929.92 449.61 1142.89 427.77 1078.45 573.85 959.99 665.53 1158.87 648.43
00022429 00000088 778.64 178.86 461.48 667.44 938.04 451.50 1149.63 426.00 1089.10 576.94 971.83 671.82 1163.54 652.05
00022430 00000089 781.78 176.69 461.45 667.97 946.95 451.49 1156.32 423.42 1103.06 575.22 985.77 676.17 1170.86 654.28
00022431 00000090 786.27 171.04 461.46 669.34 953.12 449.72 1160.82 421.34 1109.39 569.68 993.33 675.73 1176.22 653.27
00022432 00000091 786.43 173.99 464.99 667.60 958.55 447.68 1164.19 420.14 1115.90 569.98 1000.33 675.36 1180.23 653.49
00022433 00000092 789.03 174.25 462.72 675.17 965.58 445.04 1169.28 421.31 1123.91 571.13 1006.62 680.40 1182.49 661.34
00022434 00000093 791.17 176.23 461.57 671.00 972.00 447.00 1173.49 423.59 1128.80 574.10 1011.53 683.15 1182.46 664.44
00022435 00000094 794.70 178.55 460.04 666.97 977.97 446.40 1177.57 422.75 1133.83 575.58 1017.15 683.82 1185.66 664.66
00022436 00000095 796.18 182.59 460.32 661.38 981.46 445.29 1180.09 420.79 1137.79 577.53 1017.88 682.27 1185.36 662.82
00022437 00000096 798.63 181.54 458.57 660.19 984.90 444.86 1181.60 422.37 1139.75 579.15 1017.74 681.28 1182.74 663.74
00022438 00000097 799.38 181.87 457.64 654.51 982.53 442.67 1179.79 421.64 1135.25 575.98 1013.36 677.01 1179.90 660.73
00022439 00000098 797.97 181.54 457.99 653.79 979.14 441.21 1179.48 420.28 1133.54 574.27 1008.45 675.23 1178.86 659.26
00022440 00000099 797.58 177.97 458.69 660.90 980.87 438.25 1180.15 420.10 1134.06 573.31 1005.82 672.91 1179.18 659.01
00022441 00000100 797.46 178.35 459.36 663.55 984.08 436.85 1181.19 419.21 1136.92 573.19 1011.59 675.81 1180.29 662.13
00022442 00000101 796.27 185.18 462.46 662.86 989.46 432.68 1187.75 422.10 1143.64 574.81 1011.76 673.07 1186.87 662.54
00022443 00000102 798.49 183.40 461.27 665.72 990.63 433.39 1189.54 423.70 1144.73 574.57 1012.63 672.76 1188.50 662.88
00022444 00000103 797.82 182.69 460.65 670.93 991.06 433.75 1186.58 428.00 1140.76 577.32 1009.03 674.14 1182.11 667.55
00022445 00000104 795.90 181.52 461.30 678.19 988.03 430.42 1184.22 430.08 1136.03 576.18 999.42 676.10 1174.52 674.17
00022446 00000105 797.37 174.39 462.89 679.39 981.45 434.06 1183.99 428.33 1129.40 575.54 999.10 674.69 1176.08 670.61
00022447 00000106 799.06 178.80 461.85 681.46 988.10 433.09 1186.72 434.54 1133.73 578.60 1000.34 675.83 1176.36 675.06
00022448 00000107 801.04 179.01 463.07 679.83 992.20 434.54 1191.93 435.00 1139.45 582.14 1006.80 677.56 1180.28 675.89
00022449 00000108 803.85 178.56 462.43 681.06 995.12 436.92 1196.11 434.90 1144.18 586.00 1012.84 681.34 1184.74 677.46
00022450 00000109 803.90 178.50 462.69 680.70 992.49 434.83 1194.36 437.69 1137.43 585.05 1007.59 681.44 1177.57 681.76
00022451 00000110 799.84 174.11 463.93 676.50 981.17 435.80 1186.73 437.01 1123.15 583.60 997.25 678.67 1168.62 680.37
00022452 00000111 797.86 171.93 463.03 676.00 973.86 433.13 1179.16 439.54 1110.87 582.80 984.67 675.83 1156.36 682.15
00022453 00000112 792.98 174.24 463.58 673.14 967.25 433.46 1173.21 442.75 1101.00 585.63 973.86 670.81 1148.72 679.88
00022454 00000113 793.40 172.80 462.20 671.86 966.67 433.26 1173.46 444.82 1097.83 586.16 972.33 668.81 1148.18 679.46
00022455 00000114 798.34 173.34 462.31 670.85 973.98 434.02 1179.76 442.23 1107.86 586.73 982.49 669.53 1160.08 677.26
00022456 00000115 804.87 177.73 458.84 665.85 980.56 441.29 1185.34 442.72 1118.29 592.45 994.73 674.26 1169.89 675.86
00022457 00000116 800.95 181.50 460.04 662.97 972.41 442.16 1178.97 438.55 1111.94 592.89 992.34 678.12 1165.78 675.72
00022458 DELETE   790.68 185.10 458.52 661.69 952.42 445.17 1166.69 439.13 1092.36 598.98 969.97 679.07 1148.73 675.97
00022459 DELETE   773.86 180.67 460.90 665.33 930.00 446.61 1144.15 443.25 1061.52 597.46 942.73 674.98 1123.44 674.11
00022460 DELETE   763.63 171.50 459.42 676.95 914.16 446.37 1131.55 444.12 1043.58 597.34 928.46 678.39 1113.16 677.56
00022461 00000120 752.92 178.32 460.79 681.75 902.99 448.99 1116.37 437.55 1041.50 599.28 930.17 691.56 1113.27 680.20
00022462 00000121 742.88 177.35 463.03 685.42 895.09 452.16 1107.27 436.99 1038.75 601.80 924.77 690.26 1110.31 675.79
00022463 DELETE   736.59 183.84 455.98 664.74 882.00 463.16 1092.25 445.89 1014.55 602.70 911.43 683.32 1092.85 669.50
00022464 DELETE   721.36 177.86 457.28 670.63 860.31 460.15 1073.10 442.55 989.55 596.42 890.61 676.46 1077.98 662.34
00022465 00000124 711.51 167.40 461.11 677.83 849.93 452.92 1063.64 436.05 977.79 589.45 880.48 674.35 1066.84 661.14
00022466 00000125 709.38 160.35 461.25 689.80 850.13 445.69 1062.02 426.72 984.43 579.65 887.60 678.00 1070.65 662.94
CROP_BBOX: 281 0 1490 1080
