Video ID: 	ibSljIZtFGE
H: 	1080
W: 	1920
FPS: 	25.0

FRAME INDEX X0 Y0 W H [Landmarks (5 Points)]

00006447 00000000 830.50 164.94 389.88 576.13 904.64 396.39 1061.95 396.50 962.31 503.50 926.30 604.18 1038.91 605.06
00006448 00000001 826.96 162.94 390.49 578.05 898.29 396.05 1055.25 395.95 953.07 503.81 919.42 600.08 1033.83 600.56
00006449 00000002 827.68 163.66 386.00 572.07 902.82 396.06 1056.85 397.69 961.03 503.64 924.18 596.45 1039.59 598.28
00006450 DELETE   828.58 162.77 385.79 581.62 912.31 394.27 1064.52 397.58 977.30 498.47 937.07 597.48 1051.70 601.01
00006451 DELETE   832.44 160.48 395.69 583.26 923.45 388.92 1081.27 393.51 997.49 495.81 951.73 596.79 1069.92 600.96
00006452 DELETE   836.32 153.11 393.77 594.26 936.99 386.12 1099.10 391.49 1019.99 495.97 965.31 601.13 1083.72 606.22
00006453 00000006 851.64 151.45 389.32 601.64 962.24 381.64 1125.56 387.10 1045.44 490.26 984.41 600.21 1101.56 604.95
00006454 00000007 855.71 151.21 389.46 597.82 975.47 377.70 1133.11 383.60 1061.76 485.15 996.84 595.72 1109.24 600.94
00006455 00000008 860.59 148.91 387.69 598.03 985.74 374.39 1139.42 379.45 1071.84 481.15 1005.02 591.19 1117.48 595.31
00006456 00000009 861.72 148.76 389.96 595.47 990.21 371.30 1143.44 377.09 1076.30 477.65 1007.15 587.85 1121.16 592.60
00006457 00000010 861.77 151.48 390.92 577.63 988.45 372.88 1142.46 378.02 1078.62 477.46 1009.83 583.57 1121.95 588.14
00006458 00000011 861.90 146.80 391.84 582.73 984.04 373.77 1146.67 379.53 1080.69 473.23 1003.15 580.36 1133.03 585.07
00006459 00000012 861.14 148.35 391.27 575.49 985.81 371.78 1144.43 377.38 1079.45 471.48 1005.42 575.70 1127.68 580.47
00006460 00000013 860.27 147.11 392.35 587.01 987.26 372.74 1145.93 379.01 1081.44 475.46 1004.22 581.06 1129.62 586.33
00006461 00000014 858.43 147.52 393.08 593.30 985.49 373.51 1145.29 379.68 1078.88 476.95 1002.42 584.06 1129.20 588.91
00006462 00000015 855.55 150.51 393.44 585.84 982.09 374.68 1142.65 380.31 1076.75 480.06 998.60 581.92 1125.56 586.58
00006463 00000016 847.08 153.22 394.76 587.99 973.07 376.95 1135.74 385.02 1067.84 484.88 990.17 584.10 1119.45 590.55
00006464 00000017 844.18 154.18 393.89 583.97 966.55 378.14 1131.43 386.76 1060.96 483.57 984.52 582.04 1115.33 589.36
00006465 00000018 839.45 153.69 392.79 579.79 959.94 378.27 1128.74 387.27 1056.58 484.26 980.44 582.92 1111.57 590.61
00006466 00000019 834.59 154.01 396.85 585.92 952.69 379.59 1123.36 386.91 1050.86 487.72 975.34 585.70 1109.53 591.90
00006467 00000020 830.91 155.20 396.93 583.49 947.57 380.44 1117.60 388.70 1044.39 489.94 969.04 585.34 1102.75 592.31
00006468 00000021 827.27 157.34 396.73 585.43 941.99 384.41 1108.36 392.46 1035.32 494.08 962.59 588.20 1096.94 595.11
00006469 00000022 827.07 157.21 396.59 586.13 941.57 384.09 1107.53 392.36 1034.74 495.23 961.76 588.25 1095.19 595.35
00006470 00000023 829.47 158.42 394.85 581.43 942.41 381.32 1108.60 389.36 1035.70 491.85 964.62 584.98 1097.02 591.80
00006471 00000024 831.43 157.45 395.84 583.72 946.88 378.59 1114.35 387.37 1041.04 489.84 968.21 584.65 1099.33 592.13
00006472 00000025 837.89 157.11 391.51 580.48 955.87 377.89 1120.50 386.77 1049.31 489.64 977.32 584.88 1102.99 592.66
00006473 00000026 847.06 155.30 389.41 588.43 974.59 375.36 1134.59 384.61 1068.40 485.31 988.64 583.19 1120.05 590.46
00006474 00000027 848.82 153.09 391.14 587.28 979.40 376.03 1137.21 382.52 1075.58 481.34 996.54 582.04 1125.48 587.15
00006475 00000028 852.86 150.97 388.11 581.04 982.08 378.10 1138.92 385.60 1076.73 479.19 998.09 578.42 1126.09 584.66
00006476 00000029 855.91 151.49 385.10 577.93 982.07 377.54 1137.14 385.09 1073.87 477.05 996.01 575.52 1124.16 582.12
00006477 00000030 855.20 149.02 386.03 585.02 983.43 375.85 1135.26 385.92 1071.88 478.28 996.72 576.50 1119.81 585.07
00006478 00000031 854.40 151.05 387.75 588.02 982.49 373.20 1134.45 384.32 1069.93 476.64 995.39 576.98 1119.42 586.06
00006479 00000032 856.15 149.60 390.86 593.46 983.40 372.45 1140.33 383.03 1071.74 481.72 996.10 582.60 1120.92 591.03
00006480 00000033 857.41 149.64 391.83 599.42 986.91 376.14 1143.55 386.83 1074.20 486.81 999.68 588.80 1123.94 596.96
00006481 00000034 857.25 149.82 395.23 604.05 989.72 381.32 1147.55 391.35 1079.40 492.71 1004.11 595.93 1127.62 603.41
00006482 00000035 857.06 151.26 398.82 601.83 990.62 387.54 1149.02 397.18 1083.25 496.90 1008.49 599.91 1133.54 607.06
00006483 00000036 859.02 148.39 398.63 611.16 992.15 388.21 1155.88 399.85 1086.76 498.91 1007.33 603.38 1139.62 611.86
00006484 00000037 861.46 148.95 398.94 602.94 991.85 388.16 1159.14 397.82 1088.78 497.56 1008.50 600.84 1143.02 607.83
00006485 00000038 861.12 147.85 399.46 603.73 991.50 386.34 1158.37 396.78 1088.15 496.09 1006.74 599.82 1140.30 607.58
00006486 00000039 860.66 148.90 398.45 605.08 995.15 383.18 1154.91 394.24 1085.47 493.46 1008.20 596.47 1135.58 604.47
00006487 00000040 860.36 145.73 398.78 614.81 993.34 381.60 1155.88 391.96 1084.64 493.00 1004.78 596.23 1139.94 603.46
00006488 00000041 860.03 146.75 397.60 611.65 989.61 380.53 1153.92 389.43 1080.82 490.03 999.34 593.01 1139.51 599.09
00006489 00000042 860.88 148.35 392.94 603.40 981.89 378.97 1145.96 386.58 1072.76 485.02 991.46 586.02 1135.80 591.47
00006490 00000043 860.30 150.13 391.48 596.29 977.20 377.22 1142.06 384.69 1067.92 482.85 987.39 583.29 1130.62 588.92
00006491 00000044 860.60 151.39 390.27 586.90 973.97 375.50 1138.51 382.60 1064.79 478.28 985.73 578.60 1125.84 584.54
00006492 00000045 860.38 150.92 390.41 585.14 973.03 373.99 1138.52 381.22 1063.30 473.75 984.88 575.92 1125.82 582.02
00006493 00000046 860.75 150.41 388.70 578.26 973.19 371.11 1139.33 377.72 1064.29 468.36 987.42 573.11 1124.53 578.88
00006494 00000047 863.65 147.55 386.38 573.82 979.22 368.71 1141.30 375.34 1070.70 460.33 994.48 566.61 1126.95 572.41
00006495 00000048 865.14 147.46 385.29 569.08 982.74 367.01 1142.84 373.94 1075.41 459.28 998.87 563.05 1128.28 569.19
00006496 00000049 866.80 144.51 384.57 568.59 984.84 365.49 1147.51 371.31 1081.41 459.43 1002.60 563.09 1133.64 568.05
00006497 00000050 868.70 145.93 383.41 559.77 986.42 363.66 1149.68 369.52 1082.91 458.70 1003.54 559.20 1134.55 564.02
00006498 00000051 869.18 145.54 382.92 552.61 986.94 362.08 1150.81 367.44 1084.69 458.26 1005.29 556.69 1135.94 560.87
00006499 00000052 868.12 146.40 383.42 554.27 986.23 362.11 1149.11 370.32 1080.94 458.43 1000.59 556.05 1130.53 562.86
00006500 00000053 867.27 146.64 383.65 558.21 985.28 364.15 1147.93 372.52 1080.23 458.28 1000.34 557.58 1133.02 564.57
00006501 00000054 866.29 147.22 383.23 556.62 984.32 366.25 1144.21 372.46 1078.36 459.46 1001.92 558.47 1130.50 563.80
00006502 00000055 865.43 150.12 383.67 554.61 983.75 367.40 1141.96 373.52 1076.93 460.23 1000.78 558.99 1128.58 564.43
00006503 00000056 864.71 149.16 384.16 558.49 983.25 367.81 1142.16 375.54 1075.99 463.15 998.53 562.50 1126.29 569.31
00006504 00000057 863.73 149.52 385.26 563.68 984.27 368.34 1142.03 376.44 1074.80 467.68 1000.37 565.56 1123.55 572.57
00006505 00000058 864.29 149.90 385.36 569.17 985.86 369.20 1142.97 378.79 1075.47 469.62 999.47 567.45 1124.61 575.55
00006506 00000059 863.40 150.46 386.59 569.67 985.94 369.38 1142.95 379.74 1076.31 471.26 999.14 568.10 1125.27 576.80
00006507 00000060 864.26 150.27 386.33 570.65 986.64 369.45 1143.96 380.58 1076.93 471.37 999.98 569.99 1124.85 579.23
00006508 00000061 864.99 150.95 386.53 571.73 987.59 370.88 1144.43 381.57 1078.09 472.86 1001.12 570.77 1127.01 579.67
00006509 00000062 866.97 148.23 382.92 573.57 987.63 374.50 1138.74 384.47 1073.77 472.65 999.44 568.99 1124.62 577.48
00006510 00000063 864.79 150.90 385.75 581.16 982.60 372.60 1135.92 385.26 1064.70 468.44 990.38 568.21 1120.64 578.94
00006511 DELETE   864.11 150.73 379.88 577.32 969.87 369.62 1125.18 380.65 1047.95 463.32 980.47 567.55 1105.36 577.63
00006512 DELETE   858.52 153.67 379.88 571.48 959.58 364.86 1119.95 376.20 1036.28 462.73 973.55 567.24 1096.52 577.61
00006513 00000066 855.29 154.19 380.17 581.04 949.69 360.00 1114.25 370.39 1020.80 461.29 967.25 570.53 1090.96 579.66
00006514 00000067 849.85 147.93 378.79 596.95 941.02 360.68 1102.02 371.22 1008.20 462.84 957.48 579.38 1075.13 588.68
00006515 00000068 847.95 145.65 379.74 600.75 939.00 360.54 1100.06 371.17 1006.47 462.73 955.65 580.57 1072.77 589.91
00006516 00000069 846.51 145.80 379.91 597.33 939.63 360.76 1099.55 371.37 1007.83 462.30 957.49 578.80 1072.27 588.19
00006517 00000070 847.00 146.81 382.44 595.86 942.67 359.86 1104.96 370.84 1011.72 460.95 960.16 577.08 1077.56 586.76
00006518 00000071 848.37 147.64 382.93 596.30 947.43 360.92 1113.39 371.49 1021.94 461.26 966.79 576.65 1089.10 585.82
00006519 00000072 854.59 145.69 385.62 598.26 960.34 365.44 1128.31 374.71 1043.19 467.84 977.13 580.94 1103.51 588.83
00006520 00000073 856.20 146.50 383.44 598.68 964.75 367.28 1131.68 377.08 1047.82 470.79 980.61 583.96 1103.69 592.41
00006521 00000074 857.24 145.97 380.46 604.68 970.00 370.34 1133.13 379.44 1053.47 478.07 985.98 589.62 1106.15 597.34
00006522 00000075 856.72 150.23 381.70 590.16 970.41 374.17 1132.25 384.48 1056.36 484.98 986.45 588.03 1104.23 597.52
00006523 00000076 855.72 151.25 383.65 591.93 973.20 376.89 1133.88 387.33 1060.24 488.30 988.17 589.85 1107.78 599.13
00006524 00000077 852.18 148.42 387.59 599.85 973.03 380.47 1135.81 391.34 1062.41 492.19 987.56 593.10 1113.29 602.18
00006525 00000078 850.65 149.65 387.17 596.61 966.41 381.75 1130.82 390.35 1056.21 490.68 983.94 591.53 1113.09 598.65
00006526 00000079 850.37 151.22 384.72 583.20 959.17 377.53 1124.20 385.55 1047.59 485.35 979.07 583.51 1107.77 590.37
00006527 00000080 847.14 150.62 384.46 579.11 953.52 373.95 1117.16 384.89 1039.32 479.55 971.57 575.81 1102.12 585.11
00006528 00000081 844.30 148.07 386.06 580.90 946.52 371.57 1112.98 382.45 1033.31 476.24 962.73 573.55 1099.40 582.90
00006529 00000082 837.26 149.67 386.20 567.55 937.99 371.95 1097.84 382.82 1018.40 467.73 946.89 565.79 1081.74 575.64
00006530 00000083 835.95 147.72 386.54 580.45 933.64 368.18 1094.78 380.77 1011.82 467.33 945.32 567.85 1077.59 579.11
00006531 00000084 835.98 151.63 387.07 582.18 933.30 372.22 1096.85 383.86 1012.41 474.14 944.14 571.89 1083.66 581.92
00006532 00000085 838.23 153.88 385.21 579.16 937.68 378.51 1098.94 391.40 1015.68 480.17 948.20 574.23 1086.92 585.17
00006533 00000086 840.25 153.73 385.22 580.83 942.86 379.78 1102.46 392.49 1022.69 478.99 952.51 573.56 1092.33 584.28
00006534 00000087 842.67 150.19 385.45 568.85 951.05 369.67 1113.30 382.13 1038.05 467.64 965.32 565.45 1099.18 576.09
00006535 00000088 845.92 145.11 384.61 565.63 957.72 361.59 1119.00 373.39 1045.68 456.96 972.23 558.22 1099.22 569.08
00006536 00000089 851.15 142.61 383.11 557.03 961.72 357.51 1124.44 367.89 1051.02 455.00 975.70 553.15 1104.19 562.77
00006537 00000090 852.36 140.12 383.61 555.69 964.57 353.50 1129.08 362.85 1055.92 447.35 978.61 550.63 1107.17 559.39
00006538 00000091 852.66 139.64 383.78 559.15 966.58 351.05 1130.51 360.64 1058.13 443.97 981.11 548.57 1108.41 557.69
00006539 00000092 854.45 143.45 380.56 572.32 969.08 353.49 1129.28 363.48 1057.75 448.71 989.14 561.57 1101.15 570.85
00006540 00000093 852.15 145.84 382.88 572.56 969.17 359.74 1129.53 370.67 1057.64 455.53 988.69 567.00 1100.91 577.20
00006541 00000094 853.55 150.04 381.82 571.40 974.34 368.65 1128.99 382.22 1058.54 459.86 989.83 569.12 1102.99 581.41
00006542 00000095 852.60 148.96 381.94 577.30 976.81 371.64 1127.10 384.38 1060.46 465.17 992.14 572.00 1105.92 583.54
00006543 00000096 852.30 150.30 382.70 577.27 978.26 370.37 1129.89 382.98 1062.84 464.99 992.71 571.84 1108.00 583.22
00006544 00000097 850.71 150.59 386.56 564.31 973.44 366.65 1130.47 375.01 1063.36 461.38 993.01 567.52 1108.60 575.40
00006545 00000098 849.20 150.52 387.22 560.09 971.63 365.15 1127.77 371.39 1062.91 457.21 994.38 562.64 1109.45 568.64
00006546 00000099 849.76 151.43 386.56 555.13 970.43 363.72 1127.33 369.00 1061.69 455.02 993.26 559.81 1109.26 565.15
00006547 00000100 848.77 150.76 386.71 555.63 967.32 361.29 1126.97 368.78 1058.19 456.12 988.83 558.05 1107.25 565.09
00006548 00000101 846.74 151.70 387.38 559.09 965.15 362.20 1124.65 372.46 1054.56 458.38 984.59 558.59 1104.78 567.91
00006549 00000102 842.76 153.00 389.65 562.95 961.42 361.99 1123.62 375.51 1050.93 463.58 977.81 559.79 1103.28 571.55
00006550 00000103 840.38 152.91 390.43 564.25 960.42 362.90 1123.44 376.58 1051.44 466.59 975.38 560.87 1103.26 572.66
00006551 00000104 840.48 155.52 389.27 560.30 962.71 365.82 1126.38 379.89 1055.40 469.70 974.23 562.20 1105.87 574.66
00006552 00000105 845.18 155.22 385.09 555.08 971.48 367.40 1132.59 379.04 1066.64 471.12 978.31 560.83 1113.08 571.69
00006553 00000106 849.07 152.16 383.34 555.93 981.23 368.92 1140.19 375.78 1082.45 470.71 989.46 562.35 1125.90 569.22
00006554 00000107 855.28 150.52 381.83 561.79 1001.77 370.66 1159.19 381.97 1107.48 472.63 1006.79 564.76 1139.85 574.70
00006555 00000108 858.72 152.59 383.71 566.26 1009.70 376.34 1166.00 389.92 1115.85 480.26 1015.47 572.04 1142.72 583.62
00006556 00000109 861.10 155.17 381.14 560.68 1013.46 381.20 1165.83 393.18 1116.88 483.32 1020.19 574.38 1142.29 584.74
00006557 00000110 859.74 157.04 379.54 565.29 1008.59 385.11 1158.83 395.50 1110.09 483.37 1018.15 576.21 1139.62 585.31
00006558 00000111 856.76 155.49 379.67 566.87 999.71 384.74 1151.94 392.76 1102.19 481.91 1012.61 576.74 1136.28 583.93
00006559 00000112 841.71 151.54 385.81 570.02 986.05 375.82 1138.41 383.83 1085.40 482.05 1002.83 575.88 1120.44 582.95
00006560 00000113 838.64 154.51 385.63 565.22 977.05 372.98 1135.38 381.07 1079.14 480.76 993.92 573.82 1116.47 581.10
00006561 00000114 835.14 155.22 386.63 562.75 968.98 371.03 1130.52 380.09 1072.23 478.80 986.24 573.23 1111.10 581.74
00006562 00000115 831.88 153.72 388.89 561.92 962.97 370.07 1127.02 379.21 1065.52 474.87 981.32 569.32 1108.91 577.79
00006563 00000116 830.17 153.93 388.71 558.55 958.16 369.82 1122.31 377.47 1060.23 472.80 977.00 567.03 1106.13 574.32
00006564 00000117 827.02 154.62 389.70 558.01 951.05 369.48 1113.04 377.98 1048.60 471.81 968.18 561.81 1099.36 569.75
00006565 00000118 824.49 153.45 390.03 565.22 947.13 371.82 1110.20 380.16 1045.63 478.25 967.14 569.44 1094.05 577.31
00006566 00000119 823.86 154.68 391.59 572.35 943.93 376.61 1110.39 385.29 1042.31 486.75 965.75 578.11 1093.81 586.19
00006567 00000120 822.35 153.51 393.60 585.95 943.10 380.71 1109.98 389.84 1041.04 495.36 963.26 585.88 1093.17 594.19
00006568 00000121 820.84 152.48 394.44 591.63 942.43 384.25 1109.56 394.07 1040.20 498.61 960.35 590.03 1093.57 598.73
00006569 00000122 817.96 152.60 394.33 591.27 939.61 384.64 1107.22 394.94 1037.23 499.52 955.88 590.45 1090.38 599.52
00006570 00000123 816.30 151.39 393.78 591.25 937.50 383.63 1105.49 394.28 1035.30 496.43 952.06 590.28 1087.41 599.87
00006571 00000124 814.82 151.55 391.03 589.12 937.10 384.91 1102.69 393.33 1028.25 495.17 950.19 588.71 1088.18 594.87
00006572 00000125 812.02 150.47 391.19 592.77 936.94 382.98 1099.70 392.09 1027.34 493.49 948.70 586.90 1087.33 593.42
00006573 00000126 811.77 149.18 390.38 589.96 934.94 382.48 1097.80 390.84 1025.97 491.46 947.05 584.27 1086.58 590.18
00006574 00000127 811.19 146.11 389.48 581.20 927.89 378.78 1094.52 384.34 1022.62 483.59 945.17 579.05 1085.82 582.95
00006575 00000128 811.90 145.14 389.42 578.52 924.07 377.79 1094.12 381.87 1020.37 480.51 942.89 577.44 1087.00 580.47
00006576 00000129 812.83 144.56 390.41 575.42 923.78 379.14 1094.69 384.10 1019.69 484.05 943.82 577.85 1087.33 581.23
00006577 00000130 816.90 146.90 389.52 570.46 925.96 385.61 1099.14 390.30 1020.91 491.27 946.84 583.96 1088.68 587.90
00006578 00000131 818.54 152.55 391.56 585.30 929.38 394.42 1104.79 399.79 1022.19 504.54 949.81 598.30 1092.34 602.44
00006579 00000132 825.36 160.47 395.68 589.73 939.07 398.17 1110.94 409.21 1030.73 514.63 951.60 603.26 1091.79 612.85
00006580 00000133 825.71 158.45 395.54 591.90 941.14 396.86 1111.25 409.03 1031.91 511.54 952.92 601.40 1092.04 611.88
00006581 00000134 826.32 157.20 394.50 588.89 942.54 392.58 1110.75 405.15 1033.89 505.82 955.74 598.18 1089.81 609.37
00006582 00000135 827.00 156.71 395.16 590.30 945.21 388.69 1112.57 401.77 1037.52 500.85 959.93 595.55 1089.88 607.35
00006583 00000136 830.89 150.74 397.59 601.54 953.45 388.02 1119.80 398.93 1049.60 500.51 965.18 593.58 1104.06 602.96
00006584 DELETE   851.00 149.41 388.55 594.89 996.02 384.95 1152.70 403.79 1094.94 494.49 997.08 583.68 1131.46 599.40
00006585 DELETE   857.91 151.95 388.09 592.88 1009.58 388.20 1166.01 404.26 1115.05 494.21 1015.40 588.07 1145.91 601.16
00006586 00000139 864.77 155.86 386.67 592.73 1024.28 391.31 1180.26 407.93 1133.19 499.37 1030.25 592.50 1159.68 606.18
CROP_BBOX: 556 0 1533 948
