Video ID: 	LBixzDAXwyU
H: 	2160
W: 	3840
FPS: 	23.976023976023978

FRAME INDEX X0 Y0 W H [Landmarks (5 Points)]

00006060 00000000 2222.03 223.73 603.66 812.84 2347.84 561.74 2603.43 538.83 2456.32 715.35 2400.48 855.67 2599.44 839.55
00006061 00000001 2226.19 223.99 605.84 815.99 2352.64 565.99 2612.61 547.37 2464.88 726.12 2402.92 860.08 2605.33 847.22
00006062 00000002 2234.38 226.23 605.29 816.31 2356.94 570.91 2625.43 553.14 2474.80 726.36 2407.92 870.28 2616.40 857.02
00006063 00000003 2235.28 238.19 609.32 811.83 2363.50 578.75 2635.21 562.71 2483.60 738.64 2414.69 877.17 2627.33 864.36
00006064 DELETE   2240.73 251.08 606.74 819.86 2372.89 599.06 2641.98 575.56 2500.38 764.77 2424.69 896.52 2646.90 877.73
00006065 00000005 2245.21 275.76 604.02 815.19 2380.53 612.97 2642.74 594.78 2501.08 790.37 2425.51 901.43 2656.33 884.90
00006066 00000006 2250.20 277.89 601.29 818.40 2385.46 615.90 2646.56 599.48 2504.07 795.65 2426.76 902.00 2659.60 886.49
00006067 00000007 2254.37 272.73 602.12 817.61 2387.90 610.57 2650.54 592.35 2508.67 788.94 2431.69 900.42 2662.46 883.54
00006068 00000008 2261.12 274.01 599.93 806.63 2390.95 605.48 2655.31 586.85 2512.94 781.23 2434.84 892.60 2667.43 875.05
00006069 00000009 2266.96 266.00 598.52 799.47 2392.03 604.60 2659.68 586.66 2516.55 781.44 2434.39 895.07 2668.99 879.60
00006070 00000010 2269.31 271.22 599.01 787.09 2394.87 604.81 2663.89 587.81 2521.50 783.66 2439.85 890.31 2672.46 875.00
00006071 00000011 2273.28 275.43 598.28 781.50 2395.27 606.43 2664.82 588.99 2521.41 786.04 2439.73 892.78 2674.18 877.22
00006072 00000012 2275.00 274.98 598.57 780.15 2396.03 606.95 2664.75 589.33 2521.49 786.53 2441.18 895.84 2673.03 880.70
00006073 00000013 2275.09 273.67 598.29 782.95 2397.46 605.39 2666.19 586.32 2524.84 783.94 2446.88 902.83 2671.68 887.10
00006074 00000014 2274.88 266.16 598.69 791.50 2398.08 602.79 2667.61 583.96 2525.90 781.48 2445.64 905.67 2672.04 890.63
00006075 00000015 2271.09 256.76 604.03 808.38 2400.31 599.21 2669.74 577.87 2527.69 770.54 2453.76 904.99 2671.68 887.81
00006076 00000016 2267.37 237.88 605.63 823.85 2404.71 590.53 2672.94 568.02 2532.91 742.39 2463.28 894.71 2665.67 877.39
00006077 DELETE   2266.12 218.30 610.23 833.56 2406.45 568.24 2675.14 541.43 2537.56 708.69 2472.29 872.30 2665.07 850.49
00006078 00000018 2268.61 212.67 613.59 811.08 2410.71 543.09 2677.06 510.58 2547.14 681.16 2484.67 843.07 2679.85 815.76
00006079 00000019 2265.34 206.32 615.01 809.52 2406.59 528.33 2670.90 492.04 2545.65 666.69 2486.58 826.15 2685.75 795.87
00006080 00000020 2265.22 209.43 614.48 802.50 2403.40 523.01 2670.22 486.05 2542.19 664.58 2481.31 820.22 2687.91 789.11
00006081 00000021 2265.14 199.22 603.54 809.08 2405.57 530.29 2661.89 491.03 2533.16 660.74 2468.19 820.83 2684.58 788.61
00006082 00000022 2256.51 200.65 610.95 818.09 2398.34 535.79 2657.92 493.49 2527.93 664.74 2459.52 820.41 2678.48 790.00
00006083 00000023 2251.91 203.02 611.83 819.83 2394.56 544.57 2651.87 500.98 2522.54 671.79 2453.87 824.76 2674.22 793.69
00006084 00000024 2241.94 204.59 617.11 826.20 2387.23 547.96 2644.88 505.41 2515.11 683.12 2446.77 831.02 2666.73 800.19
00006085 00000025 2238.71 216.77 623.28 809.77 2372.52 547.34 2642.60 508.66 2509.46 695.43 2441.99 839.48 2661.04 806.39
00006086 00000026 2230.97 219.47 623.40 808.64 2363.96 555.05 2636.51 517.66 2502.11 705.04 2432.17 843.95 2652.62 811.63
00006087 00000027 2225.36 216.02 621.32 826.74 2359.05 571.59 2629.70 533.73 2492.79 715.71 2422.92 857.09 2644.74 826.31
00006088 00000028 2214.90 231.03 627.22 831.24 2352.09 583.51 2619.31 546.81 2482.27 731.72 2416.78 877.81 2637.30 847.62
00006089 00000029 2199.93 246.37 637.41 828.78 2339.78 601.84 2608.72 559.02 2475.79 752.24 2409.22 903.56 2634.73 868.94
00006090 00000030 2200.56 255.64 630.46 819.06 2331.32 615.07 2601.27 569.58 2469.82 773.41 2396.48 911.08 2633.54 872.96
00006091 00000031 2196.25 267.30 628.69 823.19 2329.21 624.01 2601.15 580.44 2468.44 789.37 2396.43 922.59 2629.58 885.92
00006092 00000032 2195.24 279.56 630.75 824.00 2328.19 630.41 2600.59 591.85 2466.44 805.63 2394.87 933.52 2626.64 900.80
00006093 00000033 2193.36 289.46 634.62 823.89 2328.19 638.15 2601.24 601.05 2466.81 814.23 2395.14 939.18 2626.40 907.78
00006094 00000034 2188.95 297.94 639.63 809.30 2328.01 647.71 2603.18 609.18 2471.70 821.22 2397.39 943.92 2629.46 911.82
00006095 00000035 2189.41 307.06 636.79 806.94 2325.89 651.90 2605.14 621.60 2466.38 825.46 2397.93 950.58 2618.35 926.46
00006096 00000036 2190.16 306.59 633.41 811.64 2325.81 656.47 2603.49 627.02 2462.82 830.68 2397.09 955.67 2613.87 932.44
00006097 00000037 2189.83 305.64 633.86 819.72 2324.44 659.17 2601.63 630.52 2459.11 833.59 2394.28 957.56 2612.17 935.03
00006098 00000038 2191.35 301.83 631.95 829.04 2322.70 658.79 2602.39 633.81 2455.53 837.68 2389.43 959.00 2610.39 939.14
00006099 00000039 2190.45 300.70 633.14 833.14 2320.42 658.01 2599.73 635.67 2450.37 838.09 2384.22 958.21 2604.98 940.51
00006100 00000040 2190.76 297.24 633.01 836.81 2319.66 655.37 2598.27 635.18 2447.93 837.29 2381.30 958.42 2600.00 942.57
00006101 00000041 2192.03 296.92 631.17 827.97 2320.83 653.23 2598.42 635.45 2448.13 833.54 2381.80 953.45 2597.12 939.65
00006102 00000042 2196.18 291.03 628.33 825.19 2321.06 649.78 2601.73 633.22 2450.37 831.42 2381.11 948.39 2602.30 935.01
00006103 00000043 2202.17 289.92 622.04 824.65 2325.14 646.67 2605.26 632.08 2453.55 830.51 2382.91 947.20 2604.88 935.12
00006104 00000044 2202.29 290.54 624.67 824.52 2328.77 640.17 2609.06 626.69 2458.47 827.52 2384.96 944.49 2606.51 933.53
00006105 00000045 2204.43 277.43 624.54 843.14 2334.67 638.05 2609.60 621.70 2461.76 821.72 2391.77 945.10 2606.55 932.75
00006106 00000046 2203.96 276.18 623.92 837.61 2336.10 631.56 2612.11 613.79 2466.22 814.50 2395.23 942.54 2608.98 928.93
00006107 00000047 2204.23 266.21 620.56 832.40 2336.94 627.00 2607.99 608.23 2466.03 805.26 2395.77 933.88 2608.13 919.48
00006108 00000048 2203.49 253.89 617.10 824.56 2334.28 619.92 2602.11 591.29 2465.65 785.74 2393.87 925.96 2609.48 903.88
00006109 00000049 2198.46 247.36 616.35 817.14 2331.04 608.74 2596.73 572.74 2462.55 764.18 2396.51 915.47 2607.73 886.94
00006110 00000050 2188.78 236.30 624.41 829.34 2325.36 593.32 2595.11 555.93 2459.27 742.47 2395.81 899.15 2606.49 868.53
00006111 00000051 2186.55 221.06 622.61 833.32 2321.73 582.33 2589.83 541.64 2457.47 732.55 2396.63 887.51 2605.75 853.73
00006112 00000052 2184.74 211.59 620.41 838.04 2319.75 573.44 2585.30 530.21 2451.75 713.24 2397.10 874.41 2602.95 838.87
00006113 00000053 2182.38 220.75 626.25 829.90 2315.02 559.87 2583.62 518.52 2451.11 704.43 2402.36 864.12 2605.24 830.76
00006114 00000054 2184.61 215.97 621.98 832.73 2314.50 548.99 2581.10 507.12 2448.33 690.87 2404.32 854.06 2605.35 820.33
00006115 00000055 2185.34 220.52 617.34 820.68 2313.30 543.17 2579.14 499.41 2448.52 680.03 2406.62 846.01 2606.29 810.57
00006116 00000056 2184.42 221.32 616.81 814.40 2311.97 538.54 2574.58 493.46 2446.70 669.24 2406.95 837.12 2605.38 801.15
00006117 00000057 2181.99 223.74 616.42 812.70 2308.96 534.32 2568.95 487.66 2443.58 662.02 2407.59 834.24 2602.13 796.95
00006118 00000058 2180.35 225.60 613.48 804.81 2305.03 533.93 2562.81 485.69 2439.16 656.49 2401.25 831.98 2593.20 793.24
00006119 00000059 2174.57 221.26 615.24 803.75 2297.55 535.04 2553.91 483.61 2427.54 651.80 2393.69 830.78 2582.24 789.38
00006120 00000060 2166.95 208.48 608.71 820.98 2297.83 543.53 2540.81 484.32 2416.25 655.53 2384.19 835.60 2578.91 790.75
00006121 00000061 2158.39 205.26 611.72 821.29 2291.59 545.66 2532.25 484.35 2411.27 651.09 2379.77 838.98 2569.06 791.92
00006122 00000062 2146.25 212.33 617.63 806.87 2281.33 548.64 2525.72 488.19 2406.74 656.60 2372.22 842.37 2560.03 795.46
00006123 00000063 2137.26 220.39 615.07 793.25 2267.72 556.32 2518.71 494.90 2398.53 670.47 2364.07 851.19 2551.34 803.38
00006124 00000064 2128.57 217.37 618.25 805.68 2259.56 569.19 2511.18 504.13 2391.06 685.06 2362.47 863.16 2545.08 813.18
00006125 00000065 2121.98 214.44 618.15 815.39 2251.63 582.21 2501.25 516.27 2383.47 698.31 2360.46 876.18 2541.56 825.84
00006126 00000066 2121.48 231.31 613.20 811.22 2245.24 596.05 2493.92 527.59 2373.63 715.24 2348.69 885.54 2542.29 833.37
00006127 00000067 2122.37 243.55 605.67 796.61 2240.73 605.09 2488.32 538.54 2368.00 726.52 2331.34 886.66 2541.66 834.95
00006128 00000068 2120.96 249.76 603.26 793.02 2237.93 607.03 2485.77 540.80 2366.65 728.79 2325.95 888.98 2540.22 837.26
00006129 00000069 2118.83 251.10 604.28 794.70 2235.29 606.95 2482.91 540.74 2362.83 725.96 2323.57 888.46 2534.76 837.02
00006130 00000070 2116.20 252.55 605.95 800.28 2234.27 610.73 2480.87 545.40 2361.11 730.30 2325.81 892.14 2530.16 841.40
00006131 00000071 2109.65 255.69 611.39 807.64 2231.50 614.92 2479.27 548.53 2358.64 736.44 2322.76 901.59 2531.11 849.55
00006132 00000072 2107.68 258.69 611.14 805.81 2230.16 616.18 2476.45 548.88 2357.07 737.40 2321.54 901.68 2531.93 848.75
00006133 00000073 2106.34 255.26 609.10 801.60 2228.52 612.98 2473.90 546.88 2355.61 734.15 2318.50 897.58 2526.85 845.78
00006134 00000074 2106.07 254.91 608.80 795.81 2228.10 610.28 2470.94 544.44 2355.00 731.33 2320.89 891.08 2525.14 839.45
00006135 00000075 2104.55 255.59 609.03 794.07 2226.54 609.15 2468.71 541.81 2354.25 729.58 2322.36 891.37 2525.46 838.69
00006136 00000076 2103.81 256.26 609.36 796.90 2225.99 611.10 2467.02 542.26 2353.31 730.59 2321.56 894.17 2526.55 840.33
00006137 00000077 2102.85 256.08 609.85 807.96 2227.71 611.76 2468.81 542.00 2354.88 732.41 2323.88 897.88 2531.18 842.93
00006138 00000078 2100.71 264.14 611.53 797.35 2227.99 616.34 2466.23 544.92 2354.48 730.92 2325.92 894.32 2533.45 838.03
00006139 00000079 2100.11 259.12 611.31 786.00 2226.19 615.37 2466.11 542.44 2355.73 724.60 2327.86 888.64 2527.82 832.20
00006140 00000080 2098.56 245.41 609.89 793.27 2223.13 609.97 2464.39 534.61 2354.00 715.94 2327.31 885.65 2521.87 828.53
00006141 00000081 2093.49 242.87 613.27 793.14 2219.48 604.52 2459.20 529.42 2349.92 713.30 2326.32 883.30 2517.57 826.15
00006142 00000082 2088.52 241.19 616.71 796.74 2215.81 601.91 2456.03 524.83 2348.72 706.92 2328.86 882.22 2515.28 823.58
00006143 00000083 2086.22 241.43 618.46 793.95 2211.50 599.94 2451.80 523.41 2344.32 704.85 2324.95 881.64 2508.44 823.44
00006144 00000084 2081.95 239.04 619.11 795.73 2209.93 599.07 2450.73 522.92 2344.45 703.88 2321.95 881.41 2504.92 823.38
00006145 00000085 2080.13 234.37 622.95 800.64 2208.95 596.08 2450.84 518.38 2345.04 701.40 2324.35 879.96 2508.57 820.54
00006146 00000086 2079.60 237.22 620.50 796.85 2208.65 599.74 2448.47 519.94 2345.67 702.70 2323.15 879.78 2511.56 818.59
00006147 00000087 2077.16 238.05 621.90 793.21 2204.63 601.87 2446.05 520.01 2343.77 707.59 2314.52 878.92 2512.15 815.72
00006148 00000088 2079.17 241.23 621.21 795.52 2204.36 602.56 2445.17 520.01 2342.03 710.24 2311.72 878.22 2515.24 814.07
00006149 00000089 2077.94 251.50 619.02 795.41 2204.44 609.53 2443.24 527.34 2338.92 712.68 2312.85 880.78 2515.73 816.51
00006150 00000090 2078.53 252.69 618.62 799.56 2206.41 610.26 2442.74 528.30 2338.30 713.24 2316.84 884.29 2517.19 820.10
00006151 00000091 2079.41 251.94 618.90 798.78 2207.49 607.46 2444.70 526.19 2340.14 711.82 2318.47 883.33 2519.43 819.92
00006152 00000092 2078.25 247.57 618.05 794.15 2205.49 607.50 2442.83 525.12 2339.90 712.51 2317.13 881.83 2517.74 817.78
00006153 00000093 2080.36 242.44 617.81 789.41 2205.49 604.90 2442.89 521.04 2341.38 712.01 2316.83 876.27 2520.84 811.07
00006154 00000094 2083.50 242.69 617.09 780.23 2206.25 603.30 2446.47 520.71 2343.53 712.94 2315.10 872.31 2520.60 808.13
00006155 00000095 2084.52 240.22 616.43 781.69 2205.63 601.90 2446.73 519.53 2342.13 711.53 2312.58 873.63 2518.07 809.89
00006156 00000096 2084.90 240.63 618.79 779.40 2206.54 601.59 2447.75 519.09 2343.34 710.81 2315.53 870.93 2518.61 807.11
00006157 00000097 2084.52 240.60 620.01 782.41 2206.93 601.65 2448.62 519.01 2344.23 711.04 2316.29 871.85 2519.87 807.78
00006158 00000098 2085.46 240.78 617.75 780.47 2207.76 601.97 2448.66 518.82 2345.47 710.85 2317.52 870.30 2521.72 805.81
00006159 00000099 2084.50 243.36 620.44 782.69 2209.97 604.64 2449.20 521.59 2347.58 714.75 2321.68 873.40 2523.30 808.83
00006160 00000100 2084.19 242.38 619.08 783.95 2209.63 605.17 2448.36 521.81 2346.90 715.68 2320.27 872.67 2524.42 807.78
00006161 00000101 2083.99 243.15 619.05 786.12 2209.42 605.68 2448.05 521.88 2346.62 715.53 2319.62 874.03 2525.46 808.79
00006162 00000102 2084.92 247.56 617.98 782.26 2209.55 606.66 2448.40 522.59 2347.00 716.70 2319.97 875.32 2526.91 809.71
00006163 00000103 2084.79 248.09 617.04 780.92 2209.22 606.45 2447.32 522.52 2346.11 717.20 2319.89 873.94 2526.54 808.27
00006164 00000104 2084.10 247.09 619.13 784.50 2210.28 608.98 2449.39 526.49 2346.41 718.56 2319.93 876.36 2525.50 812.11
00006165 00000105 2084.15 246.75 620.18 783.57 2210.39 608.37 2449.27 526.87 2345.78 720.10 2319.63 874.32 2525.12 810.61
00006166 00000106 2083.97 247.39 618.54 784.02 2208.59 607.85 2448.71 527.38 2344.46 722.80 2314.82 876.05 2523.10 812.92
00006167 00000107 2084.02 247.24 616.97 777.95 2207.84 608.43 2450.66 528.96 2344.54 721.39 2311.72 875.53 2518.20 813.64
00006168 00000108 2084.14 246.59 617.09 770.33 2206.22 608.52 2452.06 530.18 2344.21 723.48 2306.12 874.85 2519.02 814.04
00006169 00000109 2083.07 245.98 616.46 765.08 2203.54 608.05 2451.46 529.72 2343.14 725.28 2302.01 871.78 2519.17 810.88
00006170 00000110 2081.95 247.40 619.44 761.54 2204.05 607.96 2451.20 529.39 2344.28 725.86 2302.96 868.59 2521.39 807.40
00006171 00000111 2083.73 244.91 616.12 765.62 2205.35 606.49 2452.36 530.28 2343.51 723.78 2305.50 873.31 2515.96 814.35
00006172 00000112 2084.98 244.87 614.91 767.27 2205.87 608.15 2450.93 530.64 2342.75 724.18 2307.26 877.74 2516.13 817.97
00006173 00000113 2082.28 240.47 616.89 781.35 2207.63 609.02 2451.75 531.95 2344.48 723.63 2313.70 877.13 2512.03 817.72
00006174 00000114 2082.35 245.74 616.75 785.79 2207.41 611.46 2450.30 534.02 2343.08 726.04 2312.41 885.94 2512.33 826.23
00006175 00000115 2081.42 245.17 618.05 790.15 2207.27 612.18 2450.30 534.04 2343.48 726.50 2313.84 886.01 2512.28 825.66
00006176 00000116 2079.19 246.88 620.85 790.85 2205.91 614.12 2449.20 533.66 2344.38 727.45 2314.95 890.06 2515.05 827.85
00006177 00000117 2078.34 244.88 621.29 792.67 2206.32 613.52 2447.80 533.12 2344.08 727.35 2315.11 886.32 2516.33 823.93
00006178 00000118 2076.62 249.27 623.09 796.15 2207.94 614.38 2449.18 535.40 2344.63 726.05 2319.69 892.88 2515.69 831.49
00006179 00000119 2076.03 252.68 624.08 794.65 2207.03 615.04 2448.88 535.01 2345.16 727.30 2319.61 895.11 2518.06 832.69
00006180 00000120 2076.69 253.27 623.19 788.25 2206.51 615.62 2448.62 535.17 2344.61 726.93 2318.48 893.10 2517.97 830.50
00006181 00000121 2076.30 254.00 622.77 787.36 2207.34 615.39 2449.39 535.61 2345.32 728.70 2318.32 893.45 2518.03 831.21
00006182 00000122 2077.15 254.35 621.23 786.85 2207.54 615.62 2449.47 535.76 2345.39 728.42 2318.05 892.97 2518.04 830.67
00006183 00000123 2077.11 253.77 621.51 788.39 2207.39 615.37 2449.67 536.04 2344.94 727.92 2317.73 893.30 2517.35 831.44
00006184 00000124 2076.82 254.94 622.00 787.29 2206.86 615.38 2449.76 535.72 2345.17 727.63 2317.30 893.50 2517.61 831.36
00006185 00000125 2077.08 254.00 621.04 789.13 2206.64 615.61 2449.53 535.36 2345.09 727.52 2317.28 894.57 2518.33 832.01
00006186 00000126 2077.20 254.15 620.35 790.96 2207.40 615.69 2449.74 535.58 2345.39 727.35 2318.21 894.15 2518.75 831.67
00006187 00000127 2077.05 253.96 620.78 789.59 2207.62 614.97 2449.88 535.36 2345.33 727.59 2318.52 893.67 2518.14 831.55
00006188 00000128 2077.84 251.00 619.59 792.92 2208.47 614.67 2450.18 535.36 2345.84 726.85 2318.84 892.96 2517.79 831.22
00006189 00000129 2077.81 250.91 620.03 792.27 2208.57 614.54 2450.52 535.01 2346.32 726.87 2319.63 892.48 2518.95 830.51
00006190 00000130 2077.33 249.85 620.34 792.75 2206.77 616.08 2449.39 535.28 2344.52 726.89 2315.95 893.70 2518.58 830.91
00006191 00000131 2078.06 250.44 617.85 785.79 2204.12 615.64 2448.23 534.58 2343.01 728.44 2310.79 891.58 2515.45 828.63
00006192 00000132 2078.79 250.70 617.38 785.65 2204.35 615.73 2449.37 535.05 2342.70 727.78 2308.43 892.15 2515.39 829.62
00006193 00000133 2079.14 249.46 617.16 786.11 2203.70 615.32 2448.87 534.76 2341.57 726.71 2305.44 890.64 2514.58 828.29
00006194 00000134 2078.93 248.95 616.42 784.78 2203.87 615.56 2448.97 535.06 2341.68 726.22 2306.89 891.77 2513.54 829.62
00006195 00000135 2078.93 249.81 617.09 782.75 2204.57 615.21 2449.74 534.99 2343.08 727.25 2307.82 889.78 2515.61 827.63
00006196 00000136 2078.81 251.77 617.14 782.78 2203.91 616.58 2448.43 536.71 2341.71 728.84 2307.35 891.13 2513.83 829.19
00006197 00000137 2078.63 251.33 617.36 785.58 2203.63 616.48 2448.70 536.84 2341.10 726.97 2306.39 892.02 2512.43 830.38
00006198 00000138 2077.70 255.44 617.99 779.24 2203.29 617.58 2449.08 537.91 2342.00 728.31 2308.54 894.37 2511.86 832.64
00006199 00000139 2080.89 257.89 616.65 779.73 2205.49 617.56 2453.64 540.09 2347.33 732.49 2313.37 905.48 2515.06 845.21
00006200 00000140 2087.03 262.88 616.29 793.05 2211.16 620.66 2459.88 544.51 2349.85 746.71 2319.54 919.49 2522.16 859.98
00006201 00000141 2087.75 271.84 622.85 819.97 2216.55 630.03 2465.50 561.40 2347.81 763.81 2315.02 927.82 2525.33 873.20
00006202 00000142 2084.83 274.57 627.62 821.10 2220.65 640.21 2469.49 568.86 2355.81 773.16 2320.99 925.75 2536.01 868.54
00006203 00000143 2084.49 271.78 626.70 824.73 2219.61 641.78 2468.20 570.06 2354.37 776.69 2319.52 927.14 2537.69 869.49
00006204 00000144 2085.44 270.65 625.10 814.72 2218.57 642.41 2467.61 569.67 2354.80 773.47 2321.69 930.24 2529.61 873.07
00006205 00000145 2082.83 270.31 622.56 792.12 2212.64 638.37 2463.84 566.17 2353.42 770.89 2321.22 932.70 2518.88 876.28
00006206 00000146 2082.72 267.16 618.40 791.97 2208.77 633.75 2460.67 561.30 2350.16 767.24 2315.95 931.68 2516.13 874.97
00006207 00000147 2080.08 274.78 621.03 785.76 2204.02 631.05 2455.29 556.22 2345.18 762.33 2312.46 927.75 2516.76 868.88
00006208 00000148 2074.26 277.53 625.70 785.56 2198.99 628.89 2450.55 551.47 2340.79 759.43 2308.64 925.37 2515.86 864.06
00006209 00000149 2069.33 270.77 626.42 787.99 2194.85 629.26 2443.41 550.97 2333.04 755.76 2306.57 919.51 2505.38 857.91
00006210 00000150 2066.08 265.97 627.29 792.02 2191.96 626.77 2439.77 547.72 2329.39 747.77 2303.59 914.06 2499.69 852.11
00006211 00000151 2066.55 265.15 625.77 795.62 2191.39 621.95 2439.18 541.90 2328.33 741.87 2304.54 911.72 2502.41 848.91
00006212 00000152 2066.72 266.00 625.83 797.93 2192.16 618.99 2432.95 536.53 2325.36 735.01 2308.09 901.61 2510.26 836.27
00006213 00000153 2067.71 262.71 625.93 804.21 2193.80 615.41 2432.45 532.57 2323.62 729.06 2309.49 897.02 2512.44 831.19
00006214 00000154 2070.84 260.82 621.12 793.32 2194.01 613.14 2429.05 530.42 2322.13 728.18 2307.74 887.96 2511.08 822.27
00006215 00000155 2071.87 259.26 619.29 792.18 2194.15 613.68 2427.75 530.21 2321.75 728.15 2303.87 884.82 2511.14 818.39
00006216 00000156 2073.69 262.66 615.82 788.12 2194.63 614.75 2429.07 530.90 2323.44 728.72 2303.48 885.24 2512.26 818.51
00006217 00000157 2074.37 266.62 617.09 783.52 2196.96 615.50 2429.58 532.09 2325.78 731.93 2307.06 883.21 2515.54 816.20
00006218 00000158 2074.81 264.11 617.45 791.39 2198.99 614.41 2432.32 532.61 2327.32 731.78 2308.02 884.78 2516.00 819.03
00006219 00000159 2076.30 258.05 618.49 798.71 2201.18 614.44 2432.80 530.98 2328.06 730.85 2309.66 883.06 2520.78 815.30
00006220 00000160 2076.65 255.79 618.79 802.92 2202.08 614.53 2433.83 530.97 2328.63 731.32 2309.90 882.57 2522.30 814.46
00006221 00000161 2075.58 261.92 619.90 795.34 2201.51 615.51 2434.58 532.18 2330.48 733.11 2310.67 883.22 2523.36 815.33
00006222 00000162 2073.00 262.38 622.16 796.50 2200.52 618.29 2435.09 533.68 2332.01 735.86 2311.09 885.89 2526.22 816.61
