Video ID: 	UncRFYymchg
H: 	1080
W: 	1920
FPS: 	23.976023976023978

FRAME INDEX X0 Y0 W H [Landmarks (5 Points)]

00027178 00000000 976.53 238.90 461.84 618.58 1055.14 482.45 1245.56 493.07 1115.99 607.65 1070.65 687.03 1237.27 694.58
00027179 00000001 978.08 236.68 464.50 615.67 1059.95 479.58 1250.69 489.90 1121.47 604.84 1075.98 684.26 1241.84 691.84
00027180 00000002 979.94 238.79 452.47 606.08 1062.50 477.57 1255.16 490.98 1125.31 602.49 1069.53 681.33 1241.46 690.30
00027181 00000003 979.92 231.90 452.09 603.72 1062.99 473.41 1254.25 486.62 1124.30 595.21 1068.02 674.68 1238.73 683.41
00027182 00000004 983.17 224.09 450.35 603.87 1062.01 469.03 1254.45 480.08 1122.55 587.67 1065.95 668.64 1241.88 675.64
00027183 00000005 985.68 216.83 450.13 607.79 1061.83 463.93 1254.20 471.46 1123.11 577.33 1069.89 666.36 1243.67 670.47
00027184 00000006 983.81 193.10 458.76 633.15 1058.47 448.68 1250.04 456.21 1119.45 568.31 1076.48 656.59 1242.55 662.06
00027185 DELETE   984.84 186.16 456.78 632.21 1057.84 438.40 1241.57 441.21 1112.14 555.82 1080.45 648.44 1238.40 649.74
00027186 00000008 982.72 181.69 460.08 624.05 1049.92 426.55 1229.70 426.50 1103.66 548.16 1076.96 636.33 1231.23 636.15
00027187 00000009 981.21 174.87 458.35 619.48 1050.38 416.14 1227.05 416.11 1100.80 538.28 1076.05 625.58 1227.70 625.69
00027188 00000010 978.81 170.36 459.53 613.82 1046.58 408.74 1228.03 407.18 1099.62 534.42 1072.65 617.61 1228.91 616.48
00027189 00000011 976.07 167.19 458.85 613.12 1042.23 408.03 1224.47 403.31 1097.75 534.60 1072.51 616.84 1229.44 612.94
00027190 00000012 975.10 168.78 460.47 612.78 1039.40 409.46 1221.45 402.11 1095.06 533.01 1073.29 618.38 1228.43 612.26
00027191 00000013 976.15 168.29 461.67 616.02 1040.27 409.48 1221.74 400.73 1095.14 533.60 1075.74 620.02 1231.11 612.37
00027192 00000014 977.60 165.73 462.94 614.75 1042.44 408.16 1223.94 399.75 1097.06 532.78 1078.13 617.74 1233.01 610.20
00027193 00000015 978.29 162.33 462.09 615.39 1044.19 407.27 1226.48 398.71 1099.76 531.38 1079.76 616.33 1234.98 608.50
00027194 00000016 980.25 162.09 462.12 621.42 1045.95 407.23 1226.68 397.43 1100.36 530.50 1080.90 617.96 1237.83 608.89
00027195 00000017 979.80 165.16 463.60 627.44 1049.25 406.98 1226.35 396.49 1102.08 528.52 1085.60 622.83 1235.59 613.33
00027196 00000018 980.62 167.62 463.44 626.09 1048.70 409.08 1225.42 397.75 1101.50 531.84 1086.75 624.01 1238.05 613.74
00027197 00000019 980.88 169.00 463.00 620.29 1046.35 411.27 1225.99 398.82 1101.32 534.27 1083.41 622.06 1240.31 610.91
00027198 00000020 982.66 169.24 463.36 614.48 1047.88 410.93 1230.64 398.19 1105.02 534.88 1083.87 620.50 1240.79 609.19
00027199 00000021 985.59 165.60 464.63 617.73 1053.46 410.09 1237.04 397.75 1112.12 531.81 1086.86 619.11 1242.64 608.06
00027200 00000022 987.67 161.28 466.31 626.94 1060.95 407.17 1245.01 392.62 1121.93 523.01 1093.35 619.76 1249.09 606.55
00027201 00000023 992.13 158.37 464.55 634.55 1067.41 402.62 1250.60 390.69 1126.15 518.79 1096.31 620.83 1251.34 609.62
00027202 00000024 996.09 157.13 466.23 632.12 1068.46 404.67 1253.03 394.76 1126.78 520.32 1098.78 622.45 1254.21 614.60
00027203 00000025 995.65 160.51 466.61 626.57 1067.43 406.25 1252.24 397.56 1126.96 523.81 1098.13 620.83 1253.86 614.04
00027204 00000026 994.07 160.67 465.90 624.36 1065.39 407.04 1250.46 399.03 1125.84 526.00 1096.74 619.60 1254.05 613.16
00027205 00000027 992.03 162.18 468.16 620.70 1063.11 407.93 1249.26 399.90 1124.18 526.71 1094.81 618.34 1253.55 611.80
00027206 00000028 990.12 163.26 467.77 618.52 1061.41 411.15 1247.60 401.90 1123.14 526.68 1093.35 619.94 1251.96 612.27
00027207 00000029 988.19 165.29 465.76 616.50 1060.85 413.25 1244.81 405.05 1120.07 527.21 1091.57 620.63 1249.71 613.50
00027208 00000030 985.88 167.56 463.74 615.65 1057.88 411.58 1242.05 403.84 1116.23 530.60 1085.87 616.58 1243.73 609.44
00027209 00000031 981.92 166.79 465.07 614.02 1053.98 412.04 1240.13 403.17 1114.18 531.15 1082.90 614.31 1245.97 606.24
00027210 00000032 978.77 165.35 465.06 612.68 1050.72 412.44 1237.64 403.98 1111.03 527.59 1079.99 612.46 1242.16 604.95
00027211 00000033 976.44 159.25 465.12 617.95 1047.45 408.26 1234.36 397.36 1108.33 523.33 1078.34 611.07 1240.86 601.55
00027212 00000034 972.47 153.11 463.48 622.86 1043.32 403.46 1229.01 391.77 1103.91 519.57 1076.74 610.83 1236.60 600.84
00027213 00000035 969.77 150.42 462.27 619.00 1038.56 400.82 1222.73 390.04 1095.95 513.14 1070.91 606.95 1228.77 597.80
00027214 00000036 966.94 146.76 458.67 620.27 1035.66 404.27 1214.52 393.48 1089.01 507.77 1063.05 605.46 1217.78 596.42
00027215 00000037 960.08 144.78 460.50 621.56 1027.71 399.94 1208.15 390.53 1082.17 508.04 1054.73 604.79 1210.46 597.15
00027216 00000038 953.14 143.55 463.69 628.24 1019.91 398.77 1202.55 388.23 1076.88 510.97 1050.67 610.18 1207.93 601.61
00027217 00000039 948.17 148.11 464.80 627.39 1015.60 401.56 1196.42 390.35 1072.58 512.83 1048.23 611.73 1203.58 602.67
00027218 00000040 942.54 151.56 466.53 626.12 1010.24 403.96 1193.80 393.17 1069.09 518.72 1042.66 614.34 1198.51 605.69
00027219 00000041 936.31 157.69 468.42 619.73 1004.27 407.16 1190.51 397.76 1065.22 524.47 1036.86 616.40 1195.78 609.05
00027220 00000042 931.72 160.77 468.27 619.44 1000.54 409.53 1185.27 402.22 1060.87 530.84 1032.46 617.72 1193.13 611.95
00027221 00000043 928.82 167.02 465.90 616.63 997.80 413.36 1180.51 405.18 1055.69 531.83 1029.43 619.93 1189.87 613.41
00027222 00000044 925.74 165.65 465.16 619.86 994.20 411.72 1175.46 404.36 1047.59 529.25 1024.49 619.59 1184.32 613.40
00027223 00000045 922.21 168.52 461.08 617.57 992.04 410.88 1174.26 402.03 1046.75 526.19 1018.15 615.35 1179.03 606.66
00027224 00000046 920.04 170.22 459.49 615.74 988.76 411.76 1170.42 403.23 1043.89 527.77 1016.13 616.37 1176.17 608.21
00027225 00000047 917.40 177.85 459.73 610.94 985.64 414.64 1165.38 406.40 1039.95 531.99 1014.88 617.91 1174.63 610.02
00027226 00000048 914.80 183.79 460.72 609.94 984.36 416.46 1162.76 409.33 1038.60 535.69 1014.80 622.28 1173.08 615.46
00027227 00000049 912.75 186.74 461.24 615.85 982.59 419.53 1158.78 411.35 1035.48 537.90 1015.58 629.84 1168.93 622.46
00027228 00000050 912.23 187.09 460.30 621.25 978.40 423.60 1155.96 414.23 1030.62 540.99 1013.75 638.38 1164.37 630.08
00027229 00000051 909.78 186.39 460.63 623.66 975.61 426.42 1152.40 417.89 1027.65 544.36 1012.15 642.86 1158.50 635.44
00027230 00000052 909.74 185.68 458.74 625.02 973.32 432.52 1150.83 423.68 1026.61 551.14 1010.00 645.73 1159.36 638.08
00027231 00000053 909.54 185.13 456.67 620.60 971.93 435.10 1150.76 429.79 1025.83 554.10 1005.38 644.18 1155.94 639.72
00027232 00000054 908.57 181.87 456.54 621.17 969.88 436.09 1147.62 430.02 1023.08 555.06 1003.34 645.28 1152.94 640.32
00027233 00000055 907.26 181.50 456.11 622.23 968.47 437.23 1146.72 430.70 1022.60 557.56 1002.00 646.67 1153.25 641.40
00027234 00000056 908.15 185.28 455.40 626.23 970.55 442.45 1144.37 433.81 1021.79 557.33 1004.86 652.61 1153.24 645.39
00027235 00000057 906.74 193.06 457.50 629.37 972.26 448.28 1144.51 438.64 1022.88 561.78 1006.90 658.98 1154.04 650.66
00027236 00000058 905.59 194.62 456.93 627.71 971.99 451.25 1146.41 442.60 1025.97 567.67 1006.29 660.25 1156.44 652.75
00027237 00000059 903.41 194.50 457.07 627.43 970.59 450.16 1147.91 442.79 1026.70 569.65 1003.92 659.73 1157.20 653.38
00027238 00000060 902.57 193.49 456.10 624.97 969.91 449.16 1146.79 442.79 1026.01 568.23 1001.92 655.90 1155.99 650.53
00027239 00000061 901.91 193.65 456.39 623.45 968.74 448.63 1145.05 442.65 1024.63 567.34 1000.17 654.30 1155.55 649.23
00027240 00000062 902.62 191.62 454.66 625.41 968.78 448.43 1144.20 441.54 1023.39 563.53 999.09 654.27 1153.81 648.51
00027241 00000063 902.43 191.60 456.16 627.77 968.66 448.18 1143.06 439.90 1022.46 560.41 999.23 655.84 1147.56 649.17
00027242 00000064 904.37 186.47 454.61 632.02 968.67 442.09 1148.04 434.91 1024.34 556.81 998.40 655.73 1144.08 650.62
00027243 00000065 905.10 189.39 458.79 632.01 969.41 442.93 1153.10 435.82 1027.53 558.68 999.92 659.39 1147.48 654.17
00027244 00000066 906.81 198.59 454.22 623.12 973.80 447.86 1171.12 444.64 1040.28 559.75 993.09 665.38 1158.51 661.42
00027245 00000067 904.90 190.91 461.43 635.39 978.56 446.42 1172.73 439.91 1042.56 560.36 1004.10 664.19 1165.44 658.30
00027246 00000068 904.84 188.07 466.15 624.65 980.79 438.33 1179.83 436.67 1050.58 558.82 1003.36 654.45 1170.67 652.57
00027247 00000069 909.45 187.07 464.75 616.52 987.56 424.36 1188.74 429.21 1058.49 547.80 1002.60 639.85 1173.02 644.36
00027248 00000070 907.78 184.23 465.49 614.15 995.75 424.31 1197.43 428.11 1071.68 541.91 1008.55 636.82 1182.25 639.89
00027249 00000071 907.84 188.71 455.00 614.07 996.93 418.74 1200.38 429.47 1071.64 542.21 1000.99 634.47 1182.53 642.61
00027250 00000072 900.93 192.31 466.09 621.01 990.79 425.84 1196.86 434.92 1068.62 552.53 998.82 642.48 1178.04 650.84
00027251 00000073 889.87 196.83 465.09 620.70 981.27 434.85 1191.20 445.86 1062.48 565.84 990.24 649.87 1170.74 658.47
00027252 00000074 876.49 207.59 469.89 620.98 969.50 443.05 1177.83 453.09 1053.50 579.46 982.47 657.35 1165.40 666.46
00027253 00000075 869.93 214.34 466.47 619.86 962.47 453.08 1170.31 462.27 1049.07 585.34 972.26 662.25 1160.99 670.58
00027254 00000076 861.40 216.36 466.87 622.84 955.80 457.99 1163.27 463.87 1044.30 588.93 966.67 667.38 1156.80 672.69
00027255 00000077 851.06 217.86 466.09 626.97 945.44 460.66 1154.32 465.51 1034.24 593.48 957.59 670.42 1149.61 674.92
00027256 DELETE   839.56 229.48 457.71 615.85 936.60 465.27 1139.73 468.38 1024.45 592.42 940.24 668.34 1145.68 669.37
00027257 DELETE   833.38 228.92 460.05 620.26 926.42 465.88 1127.98 471.57 1008.04 598.27 928.00 669.15 1132.70 672.09
00027258 DELETE   824.12 231.30 464.05 620.51 918.47 464.66 1118.09 477.15 994.10 600.39 916.75 667.75 1118.35 676.30
00027259 00000081 814.48 226.72 469.45 624.47 902.21 460.22 1101.26 478.52 972.28 601.11 906.48 666.55 1100.97 681.15
00027260 00000082 812.20 222.01 470.40 624.09 898.94 453.58 1096.11 477.61 960.92 593.68 901.41 661.55 1089.99 681.12
00027261 00000083 813.36 215.91 467.18 621.53 897.02 449.57 1092.22 471.53 958.29 586.77 900.16 660.70 1081.88 678.69
00027262 00000084 818.02 209.21 463.09 624.47 899.97 448.40 1094.94 466.08 962.46 577.68 904.08 659.41 1079.09 674.18
00027263 00000085 826.18 215.15 458.10 620.10 910.63 445.90 1106.74 465.25 971.84 569.53 906.92 655.35 1085.24 670.17
00027264 00000086 833.76 214.62 458.11 618.48 918.61 443.96 1114.06 461.70 979.48 569.33 916.42 655.93 1093.95 669.20
00027265 00000087 837.71 214.47 460.46 621.22 925.17 446.48 1119.58 462.43 985.72 569.24 923.83 657.60 1100.48 668.91
00027266 00000088 839.80 203.54 467.71 638.36 921.15 448.22 1116.63 463.83 979.04 574.13 929.59 661.40 1103.32 674.20
00027267 00000089 847.43 210.00 466.71 630.94 926.08 458.96 1122.37 470.27 984.29 578.12 934.52 669.86 1103.91 679.25
00027268 00000090 855.02 208.99 466.32 626.63 930.31 458.19 1125.04 469.78 986.17 579.39 938.96 670.01 1104.45 679.94
00027269 00000091 860.76 203.23 464.48 625.48 930.55 451.86 1127.58 465.39 984.84 569.33 937.35 663.14 1102.90 675.15
00027270 00000092 869.46 200.65 460.90 623.87 937.93 442.29 1128.65 457.72 984.47 561.01 943.38 657.55 1101.72 671.19
00027271 00000093 882.66 198.26 457.22 629.21 948.90 439.18 1128.95 451.55 986.19 554.99 957.28 658.79 1102.05 670.19
00027272 00000094 893.14 193.45 453.93 631.05 958.55 434.07 1134.81 447.36 991.17 548.52 964.45 653.48 1109.89 665.51
00027273 00000095 898.21 194.34 451.37 622.79 965.69 435.85 1147.78 445.84 1007.19 544.01 971.88 649.71 1127.68 658.79
00027274 00000096 901.73 187.21 455.58 629.84 970.84 431.86 1154.06 440.48 1006.29 536.88 977.04 646.98 1136.46 652.73
00027275 00000097 908.18 186.05 456.06 629.40 979.63 427.97 1160.57 437.53 1015.21 531.72 985.31 642.11 1141.98 649.04
00027276 00000098 918.37 180.67 456.21 632.69 989.96 424.11 1168.80 435.93 1024.99 526.35 993.36 637.48 1147.55 647.03
00027277 00000099 924.77 180.64 459.96 630.11 997.50 419.25 1174.93 432.94 1029.92 522.98 998.63 631.65 1154.29 643.13
00027278 00000100 930.21 182.21 463.18 627.61 1002.25 418.41 1180.88 432.98 1034.43 522.58 1002.32 629.80 1159.17 642.29
00027279 00000101 936.19 185.47 461.28 627.06 1008.09 420.10 1186.61 433.93 1039.69 522.55 1005.05 630.02 1162.75 642.28
00027280 00000102 942.27 180.60 458.42 631.94 1014.53 418.37 1191.47 434.36 1044.93 523.32 1009.80 628.47 1168.27 642.56
00027281 00000103 949.83 182.53 454.36 628.99 1019.71 418.28 1193.01 436.31 1046.44 524.06 1013.44 627.02 1168.66 642.83
00027282 00000104 955.45 183.07 452.29 632.70 1024.47 417.22 1197.41 436.58 1049.33 523.97 1017.17 627.92 1173.03 644.91
00027283 00000105 959.88 179.52 451.77 638.28 1026.80 422.38 1201.23 439.44 1052.13 523.86 1020.86 630.52 1177.75 645.80
00027284 00000106 963.45 180.61 451.32 638.67 1031.77 424.02 1204.86 441.99 1055.75 524.86 1026.15 631.90 1180.98 647.81
00027285 00000107 965.04 182.17 451.78 638.75 1034.02 425.38 1208.33 443.80 1059.08 526.71 1028.47 633.96 1183.79 650.17
00027286 00000108 965.39 183.17 454.04 638.89 1035.01 427.44 1211.00 445.86 1062.85 529.75 1030.55 636.27 1187.86 652.35
00027287 00000109 966.40 184.90 451.63 634.57 1035.50 429.35 1210.75 449.20 1063.35 532.96 1030.03 636.37 1186.50 653.71
00027288 00000110 966.63 183.32 452.32 633.48 1034.83 431.37 1209.92 452.22 1062.52 536.17 1030.55 635.52 1189.23 653.37
00027289 00000111 967.64 182.59 454.23 632.92 1035.84 432.32 1210.89 452.88 1063.61 537.22 1032.38 635.62 1191.47 653.07
00027290 00000112 969.44 182.84 453.19 632.81 1036.85 432.73 1212.49 454.14 1065.76 539.76 1033.74 635.91 1194.34 654.05
00027291 00000113 971.02 183.69 452.25 632.29 1036.88 433.68 1211.33 455.75 1065.11 542.89 1034.32 636.39 1194.50 655.14
00027292 00000114 972.59 183.75 451.14 632.61 1037.18 437.05 1210.96 459.54 1063.38 545.83 1034.18 638.09 1192.79 657.25
00027293 00000115 976.26 188.99 443.98 622.02 1043.17 437.52 1217.43 460.37 1067.04 546.68 1038.40 636.81 1198.40 653.76
00027294 00000116 978.48 189.50 442.44 623.51 1044.08 441.26 1219.11 462.89 1069.32 550.28 1040.66 640.89 1201.34 656.91
00027295 00000117 977.40 198.04 448.19 617.20 1043.84 444.79 1230.88 469.32 1076.17 561.08 1035.17 649.28 1200.96 668.41
00027296 00000118 979.48 200.61 446.33 615.62 1045.41 446.31 1230.61 470.03 1078.01 562.34 1038.33 650.86 1202.13 669.11
00027297 00000119 979.00 201.35 446.83 615.36 1046.03 447.33 1232.29 471.11 1080.71 563.77 1039.20 650.74 1205.10 668.84
00027298 00000120 980.99 195.48 442.83 623.77 1048.36 446.94 1224.06 468.45 1074.92 556.42 1046.25 647.01 1207.34 662.90
00027299 00000121 979.72 208.75 446.72 614.76 1047.72 450.36 1232.86 472.87 1083.64 566.65 1041.10 654.13 1208.65 670.89
00027300 00000122 978.90 210.02 448.42 617.15 1047.57 452.76 1232.98 472.92 1084.83 567.84 1041.79 656.71 1211.34 671.39
00027301 00000123 976.89 212.28 448.74 616.73 1046.44 453.09 1231.26 473.54 1083.44 569.01 1039.78 656.70 1211.14 671.60
00027302 00000124 974.60 212.14 450.37 619.97 1044.62 452.60 1228.86 472.80 1080.65 569.71 1038.18 657.24 1209.57 671.95
00027303 00000125 971.90 214.05 451.25 619.97 1042.95 453.34 1226.23 473.10 1078.50 569.51 1036.84 657.77 1207.70 672.18
00027304 00000126 968.84 212.56 452.46 622.41 1040.48 453.49 1223.54 473.05 1075.67 568.94 1034.23 658.66 1203.98 673.10
00027305 00000127 966.64 211.64 451.87 624.27 1038.43 453.75 1220.89 472.99 1073.41 568.72 1031.79 658.41 1201.47 672.78
00027306 00000128 965.75 202.35 450.74 633.77 1033.69 454.22 1209.33 471.28 1067.30 565.97 1035.17 659.65 1196.71 673.67
00027307 00000129 961.42 201.51 451.35 635.86 1028.12 453.81 1205.49 470.44 1063.78 566.99 1029.26 660.96 1192.77 674.66
00027308 00000130 959.46 206.42 451.64 632.68 1023.66 459.52 1199.75 475.48 1052.65 562.20 1025.07 659.01 1186.69 672.53
00027309 00000131 952.54 205.27 455.69 633.99 1017.47 454.19 1200.08 469.54 1049.86 559.66 1019.93 659.77 1184.36 672.58
00027310 00000132 948.46 204.52 454.54 633.69 1013.31 450.21 1194.48 468.07 1044.90 561.73 1015.62 657.34 1179.91 672.25
00027311 00000133 945.23 201.30 455.05 636.07 1012.24 446.00 1192.94 467.49 1043.43 561.08 1013.09 655.41 1174.34 673.30
00027312 00000134 942.89 199.67 454.23 635.17 1010.34 442.72 1191.62 463.79 1042.89 559.11 1012.00 654.97 1171.03 672.57
00027313 00000135 941.42 197.90 454.06 636.29 1008.52 441.20 1191.38 462.63 1041.80 556.86 1008.86 654.60 1167.32 672.67
00027314 00000136 941.08 197.31 452.83 635.10 1008.61 439.54 1190.13 460.57 1041.02 555.24 1009.59 654.45 1163.70 672.29
00027315 00000137 939.09 196.97 452.12 627.46 1008.27 438.72 1189.58 459.33 1042.66 553.52 1009.04 651.94 1159.46 669.48
00027316 00000138 937.94 195.01 453.28 622.90 1006.06 435.32 1187.00 457.60 1040.53 551.64 1005.77 644.80 1159.98 663.57
00027317 00000139 936.57 193.91 453.17 621.24 1005.53 432.05 1185.38 455.44 1039.80 547.15 1004.36 643.34 1155.00 663.21
00027318 00000140 936.42 186.76 452.03 623.76 1004.49 427.10 1183.82 452.47 1036.34 542.68 1002.15 641.06 1151.73 662.49
00027319 00000141 938.09 189.36 449.30 619.04 1005.94 425.34 1185.00 451.59 1037.40 539.90 1002.43 640.74 1147.53 663.14
00027320 00000142 937.86 188.37 448.98 615.79 1006.20 422.37 1185.53 449.74 1038.37 539.48 1002.86 639.16 1145.18 662.47
00027321 00000143 937.81 187.99 448.38 613.82 1005.16 420.72 1186.37 448.83 1038.47 538.75 1000.76 636.26 1146.25 660.33
00027322 00000144 938.60 190.00 448.91 609.95 1006.41 420.33 1187.61 448.06 1039.62 536.51 1000.79 634.98 1146.94 658.70
00027323 00000145 938.79 187.85 449.47 612.87 1007.01 420.77 1187.44 448.39 1039.55 535.61 1001.56 634.66 1148.43 658.30
00027324 00000146 939.77 187.11 450.29 612.38 1007.24 427.36 1186.32 451.84 1039.79 535.60 1001.81 634.38 1150.15 655.51
00027325 00000147 940.05 184.68 450.28 614.84 1009.56 427.98 1186.37 454.62 1041.05 534.16 1003.15 631.59 1150.06 654.43
00027326 00000148 941.47 182.88 449.05 620.68 1010.23 426.69 1189.22 452.70 1041.48 534.06 1002.07 632.97 1152.09 655.56
00027327 00000149 941.74 183.28 452.16 623.74 1010.15 424.18 1186.21 450.12 1038.75 534.79 1003.82 635.15 1152.68 657.53
00027328 00000150 942.63 190.20 450.74 620.98 1012.29 421.66 1187.63 448.85 1039.24 533.48 1006.04 634.99 1150.46 658.56
00027329 00000151 943.62 188.04 449.32 623.71 1012.38 417.86 1186.39 446.98 1035.80 529.88 1003.83 633.04 1147.11 658.32
00027330 00000152 940.81 185.17 450.61 627.41 1011.12 415.26 1185.79 444.96 1034.01 526.98 1002.42 631.28 1146.30 656.93
00027331 00000153 939.75 183.04 450.68 629.07 1010.19 413.97 1184.30 444.90 1033.19 527.72 1001.74 630.77 1145.56 657.34
00027332 00000154 938.62 184.42 452.84 628.02 1007.82 415.32 1183.84 446.62 1031.35 530.99 1000.10 631.79 1148.94 658.50
00027333 00000155 938.18 187.22 451.96 623.84 1007.10 417.71 1181.04 448.29 1029.25 532.79 1000.66 631.78 1150.46 657.62
00027334 00000156 937.72 184.57 451.22 622.24 1006.72 417.12 1179.59 449.22 1029.04 533.59 1000.09 628.99 1149.15 655.98
00027335 00000157 937.50 183.91 451.28 620.56 1006.83 414.73 1179.78 447.37 1029.12 531.17 998.95 627.60 1143.98 655.20
00027336 00000158 938.79 181.59 451.23 622.58 1007.06 413.95 1180.71 446.97 1029.46 532.20 999.05 629.21 1142.00 657.28
00027337 00000159 942.62 185.20 445.35 626.28 1008.84 420.74 1181.09 451.19 1030.10 540.05 1002.44 640.33 1136.67 666.63
00027338 00000160 938.49 187.30 446.67 634.97 1002.04 431.51 1177.92 461.10 1025.27 555.37 998.52 651.81 1137.30 676.91
00027339 00000161 936.26 195.22 445.57 634.12 998.40 439.03 1177.76 468.12 1022.22 561.64 993.70 661.31 1133.81 685.93
00027340 00000162 934.09 202.36 441.84 628.46 995.65 440.90 1173.03 469.20 1017.41 563.52 993.42 662.24 1132.37 685.61
00027341 00000163 932.16 200.24 440.81 629.32 996.72 442.29 1172.81 473.43 1015.74 559.50 989.72 659.75 1127.09 685.49
00027342 00000164 930.39 195.72 441.66 631.71 995.76 443.01 1171.20 472.91 1013.88 554.26 988.03 661.46 1120.48 686.71
