Video ID: 	iTqoxrcFVTA
H: 	1080
W: 	1920
FPS: 	29.97002997002997

FRAME INDEX X0 Y0 W H [Landmarks (5 Points)]

00006659 00000000 595.68 162.10 385.50 554.44 720.23 405.90 888.02 412.89 822.78 513.85 732.05 587.51 874.09 593.70
00006660 00000001 594.60 162.80 385.65 553.69 718.23 406.30 886.88 413.63 820.06 513.09 728.49 585.61 873.59 592.23
00006661 00000002 594.00 162.35 385.80 553.31 716.02 406.89 884.86 414.61 817.05 513.63 724.56 582.64 872.63 589.65
00006662 00000003 593.28 163.13 385.03 552.41 714.27 406.51 883.10 414.79 814.22 512.07 723.04 582.15 870.72 589.57
00006663 00000004 591.40 161.89 386.32 554.56 712.45 405.06 881.79 414.82 811.73 509.82 720.10 581.67 868.59 590.23
00006664 00000005 590.39 160.03 386.61 556.82 712.88 404.95 881.59 414.83 812.38 508.57 721.24 582.36 867.64 590.79
00006665 00000006 589.63 159.88 386.74 555.44 711.88 404.03 881.44 414.72 811.20 507.48 720.21 582.18 866.44 591.21
00006666 00000007 588.62 159.18 387.19 556.69 711.07 403.33 880.73 414.45 809.95 505.65 719.90 582.27 865.49 591.45
00006667 00000008 587.17 160.22 382.89 558.32 711.20 406.51 878.72 412.43 806.09 508.79 716.72 581.08 863.71 585.92
00006668 00000009 586.57 161.38 382.08 552.02 708.75 406.91 877.38 411.44 803.23 509.24 715.71 580.01 861.87 583.84
00006669 00000010 585.85 160.38 382.62 552.28 708.23 406.25 877.01 410.22 803.05 507.82 716.49 579.77 862.11 583.06
00006670 00000011 586.02 159.03 383.03 554.16 708.31 405.80 876.48 409.53 803.15 506.87 718.08 580.91 862.13 583.98
00006671 00000012 586.32 158.10 382.91 555.71 708.57 404.51 876.64 408.76 803.52 505.65 718.67 581.57 862.08 585.13
00006672 00000013 586.31 157.97 382.63 555.79 709.36 403.69 876.95 407.29 804.85 505.42 720.72 582.70 862.21 585.82
00006673 00000014 586.58 159.17 380.39 554.20 710.05 406.10 875.61 408.74 805.50 505.02 721.72 582.65 862.49 585.00
00006674 00000015 585.74 153.27 380.46 558.17 709.03 402.25 875.23 403.27 804.77 499.17 723.17 581.49 861.50 582.72
00006675 00000016 585.41 151.33 380.82 556.02 708.60 396.70 874.66 399.46 803.82 492.83 723.84 578.26 859.33 581.05
00006676 00000017 585.83 149.59 381.17 556.12 708.47 392.06 873.74 397.22 802.72 487.81 723.04 575.23 856.77 580.03
00006677 00000018 587.59 144.07 383.33 556.32 703.67 383.30 870.54 387.75 802.38 478.23 720.69 570.96 857.84 574.03
00006678 00000019 587.44 134.49 382.79 559.50 700.51 374.22 870.85 376.99 800.88 470.94 719.73 565.81 857.43 567.43
00006679 DELETE   587.33 131.44 383.82 555.92 697.50 365.02 872.50 367.77 795.44 458.66 715.45 556.01 854.83 557.95
00006680 00000021 585.51 125.18 382.21 552.40 699.37 357.33 873.54 363.56 790.82 448.01 715.08 545.39 852.50 551.07
00006681 00000022 587.50 126.66 378.98 543.59 699.49 355.03 869.42 363.87 786.29 439.06 712.42 538.07 848.55 545.87
00006682 00000023 585.73 117.95 380.53 548.33 695.17 352.26 865.54 360.84 780.74 433.16 707.90 534.84 845.88 542.03
00006683 00000024 583.93 113.32 381.32 549.89 695.38 348.71 863.00 357.37 782.59 428.27 709.30 531.02 845.16 538.21
00006684 00000025 583.99 109.86 380.38 550.59 695.65 344.82 860.93 355.06 782.11 423.80 710.00 528.11 843.39 536.60
00006685 00000026 583.83 109.40 380.12 549.42 694.91 343.24 859.18 353.95 780.61 422.11 709.21 525.95 841.68 534.85
00006686 00000027 582.37 104.27 381.60 554.95 693.04 341.37 857.19 353.39 778.98 421.27 707.54 524.48 841.37 534.23
00006687 00000028 581.48 104.66 381.76 548.54 690.89 339.77 857.82 354.62 776.46 420.30 703.64 520.37 841.03 532.43
00006688 00000029 579.05 107.87 381.79 543.60 688.56 339.16 856.15 355.18 773.30 420.35 700.07 517.31 839.58 530.48
00006689 00000030 575.86 108.00 383.14 546.14 686.04 339.84 855.56 357.76 770.20 421.52 695.76 516.31 838.89 531.01
00006690 00000031 571.41 107.18 384.70 549.28 682.73 341.16 855.10 360.36 768.29 424.39 691.62 517.23 837.66 532.96
00006691 00000032 568.66 107.67 383.07 553.62 678.96 344.66 852.85 363.76 765.71 428.24 687.26 517.82 836.90 533.36
00006692 00000033 564.15 108.68 383.31 558.69 674.97 349.86 848.04 367.90 761.83 435.62 686.99 522.04 834.57 536.36
00006693 00000034 560.61 112.68 381.41 555.45 672.74 352.97 840.75 367.52 758.56 440.75 687.54 528.07 824.03 539.76
00006694 00000035 555.94 108.13 380.97 560.31 669.29 351.62 833.58 366.28 753.39 442.49 686.38 534.25 812.23 546.47
00006695 00000036 551.60 107.23 383.57 560.65 665.60 347.94 830.56 360.90 752.16 436.83 684.17 534.10 809.72 545.31
00006696 00000037 549.46 106.81 384.47 554.62 665.35 342.86 827.96 357.19 750.33 432.70 683.09 526.38 809.43 538.58
00006697 00000038 550.06 104.19 382.62 553.62 663.41 340.16 827.88 355.04 748.50 428.00 680.10 520.21 812.13 532.56
00006698 00000039 550.05 104.26 381.89 553.80 662.33 340.71 827.88 355.22 747.02 431.74 678.04 520.03 812.83 532.09
00006699 00000040 550.08 104.11 382.69 557.90 659.80 346.52 829.41 357.89 745.41 436.78 676.67 526.13 813.55 535.73
00006700 00000041 549.15 112.04 384.61 553.36 656.02 347.58 829.37 353.64 743.47 441.02 675.11 531.01 814.33 536.50
00006701 00000042 548.85 111.78 383.87 554.32 654.60 349.17 829.50 355.34 742.88 440.87 674.06 532.61 814.87 538.10
00006702 00000043 548.69 107.31 382.86 556.03 654.96 348.95 828.07 357.37 742.40 439.45 674.23 531.10 814.02 538.30
00006703 00000044 547.53 106.22 383.37 553.42 655.49 346.81 827.21 357.25 741.96 437.27 673.47 527.61 813.00 536.36
00006704 00000045 546.83 105.46 381.87 549.24 657.22 349.09 814.35 348.62 739.14 440.06 674.24 525.15 804.60 524.62
00006705 00000046 544.99 105.51 381.89 545.90 655.89 346.89 812.35 347.48 737.47 436.56 672.34 522.34 803.27 522.55
00006706 00000047 543.94 104.51 380.43 543.35 651.98 345.27 810.26 346.73 733.58 436.95 667.19 519.74 802.43 520.79
00006707 00000048 538.59 111.89 383.06 537.08 641.77 351.26 815.77 356.63 726.38 435.47 660.28 527.13 804.71 531.22
00006708 00000049 537.54 113.79 381.76 536.05 639.96 352.39 813.12 358.28 722.70 435.26 657.83 527.16 801.64 531.68
00006709 00000050 535.05 114.45 382.78 536.60 638.22 353.76 811.14 358.73 721.29 436.56 658.32 529.81 799.63 533.52
00006710 00000051 535.25 116.09 382.58 537.32 637.89 355.16 809.95 358.61 720.45 437.93 660.11 533.05 798.92 535.54
00006711 00000052 535.87 116.75 382.25 539.16 638.31 356.68 810.84 359.03 720.87 439.56 661.59 536.70 799.48 538.30
00006712 00000053 535.99 114.98 382.66 542.88 638.62 357.04 811.63 358.94 721.82 440.60 662.37 538.28 800.55 539.48
00006713 00000054 536.55 116.02 382.27 542.65 639.15 357.45 812.09 359.21 722.16 441.29 662.69 539.16 800.57 540.26
00006714 00000055 537.03 115.72 381.76 544.47 639.51 357.54 812.42 359.49 722.49 442.01 662.73 540.01 800.61 541.30
00006715 00000056 536.72 114.74 382.03 548.08 639.50 358.37 812.48 360.37 723.23 443.44 663.02 541.34 801.41 542.64
00006716 00000057 535.09 114.04 382.42 549.15 638.95 359.43 810.63 361.31 722.89 444.43 662.41 541.22 800.17 542.38
00006717 00000058 532.50 115.45 384.88 549.47 639.03 358.56 810.77 360.04 724.05 444.98 661.26 541.74 799.03 542.86
00006718 00000059 530.75 118.73 385.15 548.40 637.92 359.54 809.97 360.99 722.81 445.79 660.58 543.32 797.84 544.48
00006719 00000060 531.02 117.14 385.05 551.12 637.62 360.75 809.52 362.86 721.59 447.89 660.51 545.55 796.81 547.14
00006720 00000061 531.92 118.10 382.60 551.83 636.38 362.75 808.46 364.24 719.89 449.00 660.11 547.56 796.47 548.62
00006721 00000062 530.01 119.24 383.04 551.95 634.69 364.25 806.74 365.78 717.60 450.51 659.09 549.17 794.89 550.35
00006722 00000063 527.51 117.93 383.77 555.56 632.73 365.24 804.32 367.13 715.89 452.55 657.94 550.12 793.36 551.50
00006723 00000064 525.72 116.34 384.63 557.84 630.86 366.87 802.81 368.62 714.00 454.50 657.01 551.96 791.62 553.17
00006724 00000065 524.88 119.01 384.50 557.62 631.10 368.35 802.89 370.41 714.41 455.99 656.70 553.47 791.08 554.91
00006725 00000066 524.62 119.09 384.05 558.90 630.72 370.66 801.19 372.40 714.29 457.66 656.73 554.85 790.33 555.98
00006726 00000067 523.78 118.56 384.07 561.27 630.73 372.03 800.09 373.89 714.41 459.58 657.10 556.40 790.04 557.53
00006727 00000068 520.48 121.83 386.95 560.17 629.51 369.93 800.50 369.92 715.64 459.98 655.73 557.18 788.72 557.11
00006728 00000069 521.22 125.38 385.72 559.40 630.39 370.21 801.64 370.01 717.00 460.77 655.39 557.99 789.18 558.10
00006729 00000070 520.89 124.90 385.90 561.57 629.99 371.53 801.34 372.18 716.67 463.34 654.68 559.32 789.09 559.90
00006730 00000071 523.01 122.60 383.31 562.40 631.33 376.68 801.27 378.87 716.59 466.57 655.60 559.79 790.36 561.09
00006731 00000072 525.89 123.57 384.15 565.57 625.62 382.95 801.20 379.81 718.10 465.98 651.81 565.67 799.06 561.56
00006732 00000073 523.93 124.13 386.62 567.25 624.91 384.26 799.80 382.70 718.22 468.55 651.27 564.61 800.29 561.55
00006733 00000074 523.70 128.64 386.33 564.88 624.42 384.58 798.63 384.74 717.36 470.20 648.53 562.80 800.74 561.18
00006734 00000075 522.81 130.71 387.51 567.31 624.47 385.50 797.45 385.93 718.41 471.66 648.58 563.88 801.41 562.35
00006735 00000076 521.86 132.50 388.66 567.62 624.58 387.14 797.50 387.47 719.00 474.33 648.83 567.81 799.12 566.19
00006736 00000077 522.51 137.14 387.49 561.80 624.90 389.56 796.81 389.70 718.90 476.34 648.86 570.00 796.21 568.57
00006737 00000078 521.84 135.18 387.63 559.61 622.20 390.32 796.49 389.11 716.75 477.85 646.19 568.39 797.57 566.13
00006738 00000079 520.51 134.99 388.86 558.69 621.56 390.43 795.83 388.59 716.14 478.86 645.87 567.38 797.51 564.70
00006739 00000080 520.63 135.52 388.80 557.76 621.72 389.73 795.43 388.11 716.31 477.74 646.52 567.24 796.77 564.68
00006740 00000081 520.35 134.19 388.60 558.71 622.06 388.08 796.28 386.72 718.12 477.05 647.15 567.35 796.56 565.13
00006741 00000082 520.58 133.93 389.65 560.85 623.41 387.56 798.23 387.11 719.36 477.07 648.23 568.81 797.63 566.92
00006742 00000083 521.84 135.93 387.55 561.44 624.77 389.26 797.89 389.18 719.76 478.04 648.98 570.56 797.41 569.07
00006743 00000084 521.35 139.24 387.88 561.82 626.67 389.58 795.61 389.53 720.37 478.84 650.44 569.85 796.28 568.27
00006744 00000085 521.83 138.23 387.09 562.93 627.07 389.55 796.02 389.52 720.99 478.96 650.96 570.82 796.03 569.35
00006745 00000086 522.37 137.95 386.85 562.72 627.96 389.32 796.87 389.06 722.68 479.06 652.26 570.62 797.27 568.91
00006746 00000087 522.58 137.40 387.15 562.82 629.40 387.82 798.02 387.81 725.36 478.18 653.89 569.90 797.67 568.47
00006747 00000088 523.24 137.46 387.42 561.57 630.90 387.08 799.46 386.81 727.02 477.07 655.64 569.55 798.69 567.88
00006748 00000089 524.05 137.92 388.39 560.98 631.87 387.69 800.89 386.68 727.86 477.51 657.41 570.63 798.74 568.36
00006749 00000090 524.98 139.13 388.34 559.93 633.41 388.75 802.04 387.50 729.58 478.52 659.72 572.24 799.46 569.90
00006750 00000091 524.82 138.64 388.80 561.98 634.53 390.21 803.13 388.83 730.99 479.83 661.24 574.16 799.66 571.76
00006751 00000092 524.72 140.94 390.25 561.57 635.14 391.69 803.34 390.55 731.49 482.04 661.82 575.62 799.38 573.35
00006752 00000093 525.63 141.55 390.15 561.84 635.89 393.59 804.53 391.45 732.37 484.67 663.60 578.36 800.24 575.34
00006753 00000094 525.90 145.17 391.08 560.04 636.69 396.67 806.88 393.63 734.09 488.72 664.20 581.86 801.11 578.19
00006754 00000095 526.19 148.56 389.57 558.39 636.26 399.73 808.31 397.03 734.49 491.28 664.19 585.28 801.78 582.09
00006755 00000096 525.90 150.77 388.92 560.41 636.81 403.27 807.63 400.88 734.40 494.32 663.97 587.13 802.13 584.27
00006756 00000097 525.34 156.92 387.64 558.02 637.69 406.81 807.25 405.63 734.73 499.50 663.17 588.82 802.14 586.99
00006757 00000098 522.86 161.07 390.95 558.55 636.31 413.12 808.21 411.37 734.13 504.62 663.96 594.67 803.62 592.23
00006758 00000099 518.56 168.40 394.55 555.44 634.30 423.24 807.51 419.16 732.48 513.16 664.80 602.89 803.47 598.64
00006759 00000100 518.49 172.23 395.00 559.07 633.76 429.51 806.92 423.75 731.60 523.46 663.56 611.11 802.81 605.50
00006760 00000101 514.87 166.16 397.84 571.47 629.19 434.66 805.31 428.85 727.57 529.98 659.82 619.60 801.62 613.43
00006761 00000102 513.04 168.50 395.57 575.72 627.78 440.45 803.09 431.19 726.88 538.20 659.21 627.45 799.47 618.65
00006762 00000103 512.79 170.98 392.69 579.27 625.34 446.56 801.38 437.19 723.88 544.94 658.25 633.72 798.68 624.93
00006763 00000104 513.02 174.36 391.55 578.49 624.85 452.52 800.28 444.10 722.77 549.43 655.98 634.63 798.31 626.19
00006764 00000105 512.59 181.59 390.32 574.20 624.96 458.08 797.27 448.71 721.43 554.40 654.74 635.07 795.95 625.98
00006765 00000106 513.28 179.48 389.79 575.51 625.32 458.76 797.54 449.97 720.75 556.56 654.92 636.36 795.29 627.57
00006766 00000107 514.04 179.03 389.21 578.98 626.18 457.74 798.34 448.40 720.91 557.21 655.53 637.97 795.86 628.80
00006767 00000108 514.17 177.61 390.43 579.11 627.25 456.19 800.37 448.04 722.73 555.12 656.53 637.77 796.57 629.54
CROP_BBOX: 289 0 1204 888
