Video ID: 	1VUPq7Jy1EI
H: 	1080
W: 	1920
FPS: 	25.0

FRAME INDEX X0 Y0 W H [Landmarks (5 Points)]

00010931 00000000 551.71 172.92 391.07 563.33 731.16 396.29 892.27 407.76 847.68 503.90 734.60 592.69 859.42 603.03
00010932 DELETE   557.16 170.47 388.11 568.35 737.38 397.51 894.67 410.57 853.39 504.29 739.39 593.71 862.15 604.93
00010933 00000002 560.40 170.66 385.99 565.57 740.58 397.13 898.63 410.14 855.96 503.00 745.78 594.62 867.09 605.58
00010934 00000003 564.48 174.50 383.27 558.23 739.94 399.69 903.65 412.15 857.54 504.83 748.98 597.69 873.50 608.33
00010935 00000004 568.19 176.00 381.34 547.60 742.28 398.02 909.15 408.04 861.96 503.12 752.67 595.13 877.59 603.68
00010936 00000005 571.27 173.18 380.33 550.52 744.46 397.72 909.94 406.71 864.78 503.06 754.30 594.65 879.85 602.44
00010937 00000006 572.18 176.05 381.49 551.60 746.27 398.76 913.72 409.28 866.79 504.80 756.88 597.20 883.47 606.16
00010938 00000007 573.73 172.66 381.94 554.82 748.59 395.99 916.88 405.90 871.62 503.77 756.34 594.73 885.78 603.46
00010939 00000008 573.27 169.98 383.99 555.68 749.29 393.14 917.43 403.39 871.86 501.67 755.49 591.42 885.76 600.49
00010940 00000009 576.58 169.47 383.77 554.13 753.22 392.45 922.76 403.37 876.68 502.28 757.30 590.49 889.25 600.33
00010941 00000010 577.64 171.41 384.18 553.35 754.11 392.61 923.33 402.99 877.49 502.47 758.48 591.36 890.29 600.73
00010942 00000011 580.31 172.21 383.71 559.18 756.81 392.72 922.49 404.84 877.58 503.52 759.48 593.68 889.33 604.37
00010943 00000012 582.38 176.00 383.18 555.33 758.14 393.22 926.82 408.87 879.29 504.30 760.58 594.81 891.81 608.31
00010944 00000013 585.08 177.36 383.11 554.24 760.72 395.37 931.84 408.72 884.67 507.56 764.37 595.82 899.11 607.47
00010945 00000014 585.35 175.95 383.55 555.56 762.16 395.11 934.31 408.35 888.36 507.41 766.90 597.09 902.09 608.62
00010946 00000015 587.61 174.23 382.43 551.88 761.65 393.61 937.96 406.58 890.74 506.25 768.22 595.34 906.33 606.73
00010947 00000016 591.25 172.42 380.42 554.97 763.06 391.99 940.03 403.77 892.98 506.31 768.05 594.66 908.93 605.26
00010948 00000017 594.34 167.38 381.05 560.85 767.26 390.42 941.57 401.44 896.17 505.73 771.18 594.32 911.54 604.43
00010949 00000018 597.85 170.13 379.48 559.14 771.08 388.47 942.78 399.93 897.81 504.02 773.22 592.73 913.38 603.45
00010950 00000019 597.98 169.37 379.23 561.75 773.37 386.71 942.71 399.60 898.31 501.92 775.41 593.07 912.59 604.86
00010951 00000020 602.32 167.87 376.06 550.52 770.19 390.24 944.33 400.09 895.62 504.32 774.37 589.99 916.97 599.23
00010952 00000021 603.76 167.22 375.67 550.01 770.63 390.64 945.46 400.64 895.74 503.62 774.83 589.62 918.02 599.10
00010953 00000022 602.58 169.21 377.78 553.59 772.00 391.19 943.37 401.81 895.92 504.17 774.46 591.06 914.75 601.15
00010954 00000023 601.72 170.74 379.39 561.70 773.88 392.20 941.84 402.77 896.75 505.49 775.04 593.38 913.47 603.48
00010955 00000024 603.80 170.30 378.48 560.47 773.80 393.23 942.70 403.22 897.03 505.64 774.45 592.52 915.57 602.19
00010956 00000025 604.94 171.61 377.11 556.35 773.66 393.17 943.07 402.69 896.49 505.31 774.51 591.69 916.39 601.03
00010957 00000026 604.97 171.60 377.28 556.56 773.48 393.61 942.68 402.68 896.28 505.62 774.93 591.55 916.95 600.45
00010958 00000027 604.69 170.70 377.32 556.97 772.81 392.30 943.08 402.18 895.90 505.11 774.19 591.43 916.53 600.98
00010959 00000028 603.99 169.50 378.39 559.25 772.47 391.94 942.84 401.78 895.36 504.78 773.65 591.74 915.96 601.23
00010960 00000029 602.08 171.40 379.80 559.03 771.52 393.04 941.72 403.22 894.31 505.19 774.13 593.06 914.47 602.72
00010961 00000030 601.72 176.71 378.22 555.52 772.50 394.45 941.54 403.72 894.98 507.14 775.06 594.47 914.55 603.28
00010962 00000031 601.57 176.28 378.49 556.09 772.74 394.54 941.67 403.83 895.43 508.23 776.29 595.50 914.64 604.27
00010963 00000032 602.49 175.85 377.42 556.42 772.83 394.71 942.65 403.82 895.94 508.45 776.09 596.11 915.69 604.79
00010964 00000033 603.91 176.07 376.66 555.15 773.05 394.73 944.18 403.95 896.31 509.24 776.48 597.23 916.63 605.99
00010965 00000034 602.49 175.75 377.73 553.77 770.81 394.66 942.76 403.33 894.52 509.04 774.94 595.94 915.87 604.24
00010966 00000035 603.27 174.89 376.87 547.47 767.57 395.08 944.26 403.70 892.80 509.53 772.70 594.83 916.98 603.12
00010967 00000036 601.95 174.63 377.76 545.70 764.75 395.58 943.39 403.38 891.81 511.48 770.28 594.15 916.58 601.82
00010968 00000037 600.63 175.11 379.36 545.81 762.56 395.92 942.13 403.80 889.61 512.86 768.11 595.03 914.43 602.78
00010969 00000038 598.95 172.66 382.35 555.30 761.95 396.16 941.92 406.34 888.68 514.06 767.44 596.96 914.79 606.26
00010970 00000039 593.89 176.12 384.89 559.41 758.98 396.31 938.48 408.36 886.25 513.29 765.07 601.62 908.97 612.24
00010971 00000040 591.12 177.41 387.32 574.00 760.65 399.18 931.39 410.69 882.93 518.10 761.66 604.51 903.18 614.86
00010972 00000041 588.13 178.28 388.02 565.86 754.47 403.11 927.19 415.82 873.62 522.52 758.89 607.57 895.35 618.47
00010973 00000042 586.02 178.18 387.27 558.56 749.26 404.64 924.45 417.86 869.26 520.04 754.96 604.48 892.07 615.99
00010974 00000043 584.60 179.08 387.05 560.91 749.41 404.11 924.09 417.98 870.57 517.68 753.97 602.89 891.75 614.97
00010975 00000044 585.47 176.84 388.07 562.75 752.09 403.83 929.63 414.65 877.39 519.35 757.65 604.49 898.91 614.12
00010976 DELETE   590.14 182.82 382.53 557.13 759.99 406.00 931.35 415.27 885.67 516.24 766.44 605.69 903.54 613.90
00010977 DELETE   593.55 180.63 385.35 559.29 771.50 405.12 937.27 414.06 895.54 518.30 774.09 605.17 908.13 613.32
00010978 DELETE   595.10 184.07 382.27 554.58 776.69 404.36 938.92 412.45 901.27 516.01 779.58 606.43 909.46 614.19
00010979 00000048 593.87 185.89 381.71 553.18 773.50 406.69 938.04 415.41 898.43 517.59 775.87 607.07 908.13 615.42
00010980 DELETE   590.32 188.05 380.68 548.56 765.40 406.51 932.87 417.24 890.06 517.42 768.28 603.79 903.22 613.45
00010981 DELETE   584.23 188.19 384.62 544.87 751.13 406.12 928.13 416.80 876.54 518.95 757.15 601.77 898.06 611.48
00010982 00000051 575.41 186.71 388.10 549.32 742.32 407.68 912.06 422.15 857.50 515.75 744.98 598.92 877.97 611.42
00010983 00000052 565.67 179.91 392.42 557.78 735.19 403.67 899.79 423.48 845.75 511.33 733.08 595.58 861.49 612.53
00010984 00000053 559.14 176.18 395.52 562.63 724.80 400.89 893.01 421.13 835.94 509.44 722.66 592.80 857.28 610.19
00010985 00000054 555.99 173.70 396.65 566.25 721.21 399.02 888.93 421.43 831.47 508.05 718.12 590.86 852.76 610.18
00010986 00000055 552.24 170.61 399.73 574.87 720.04 398.64 888.86 422.26 832.27 508.26 714.15 590.23 852.38 610.32
00010987 00000056 551.73 175.33 400.07 570.03 723.72 399.34 890.50 421.52 836.01 508.68 716.80 590.70 853.18 609.75
00010988 00000057 553.63 177.35 399.29 565.77 730.41 399.98 894.53 422.87 842.65 509.85 723.67 592.07 855.71 611.73
00010989 00000058 555.20 179.18 398.45 564.77 733.96 401.38 897.47 422.47 846.47 511.08 729.19 595.47 857.79 613.52
00010990 00000059 554.78 178.02 398.68 565.10 735.03 402.95 897.93 423.98 847.80 511.76 730.54 595.56 859.02 613.46
00010991 00000060 552.87 181.96 398.32 560.16 734.29 403.80 898.07 423.54 847.78 512.99 730.49 596.78 858.73 613.68
00010992 00000061 549.84 183.90 399.15 558.60 729.81 404.21 896.20 422.87 843.88 513.41 727.09 597.87 856.68 614.13
00010993 00000062 544.85 183.20 400.37 557.17 720.83 403.84 891.96 421.30 837.41 514.98 720.06 597.22 853.20 612.65
00010994 00000063 545.43 179.60 394.57 558.85 717.78 402.36 885.16 422.04 829.10 517.47 713.32 595.38 844.94 612.80
00010995 00000064 542.09 176.68 393.67 562.91 708.33 401.52 877.54 421.51 816.70 517.51 702.72 594.90 836.62 612.59
00010996 00000065 540.45 174.82 389.49 563.89 701.37 403.13 869.88 423.13 808.64 519.40 694.76 595.68 829.89 613.75
00010997 00000066 538.13 172.85 388.98 568.73 693.84 405.69 866.79 426.57 802.80 520.17 687.34 596.00 828.23 614.67
00010998 00000067 534.01 175.84 391.35 566.47 691.04 405.86 863.83 425.26 800.06 522.32 682.36 596.25 826.20 613.94
00010999 00000068 533.97 176.83 391.40 559.92 689.45 404.63 864.10 420.63 800.34 523.20 683.33 597.25 827.70 612.39
00011000 00000069 535.03 179.23 389.72 556.05 690.23 407.60 865.53 423.62 802.15 521.77 686.39 597.43 829.80 612.63
00011001 00000070 535.43 178.48 387.83 555.47 690.17 410.33 865.17 425.23 802.61 522.24 689.09 598.68 831.03 612.75
00011002 00000071 534.91 177.10 387.37 557.27 689.04 409.97 863.95 425.90 801.56 523.47 689.07 600.22 829.46 615.22
00011003 00000072 534.05 178.50 387.76 563.55 688.13 411.02 860.58 429.52 797.17 525.95 688.10 602.16 824.53 619.28
00011004 00000073 531.81 177.55 390.81 570.32 685.45 412.11 858.58 431.44 793.15 529.18 685.02 606.61 821.09 624.48
00011005 00000074 530.93 182.19 391.46 567.53 681.59 414.59 856.86 432.41 788.50 531.67 683.02 609.60 819.87 626.52
00011006 00000075 526.53 188.90 390.02 564.05 675.78 414.69 849.46 428.65 785.35 532.44 684.82 618.94 818.89 630.43
00011007 00000076 524.81 197.60 389.86 560.33 673.08 415.37 844.95 428.84 780.47 533.60 682.49 620.99 813.70 631.71
00011008 00000077 522.48 202.14 390.59 557.24 671.06 416.86 842.63 430.90 777.36 533.97 681.42 623.43 810.15 634.79
00011009 00000078 521.18 200.82 390.29 561.58 671.15 418.00 842.06 431.54 777.49 534.91 683.41 627.88 809.71 638.58
00011010 00000079 522.96 202.49 389.06 562.46 673.87 419.20 844.46 430.92 782.77 535.64 687.14 629.77 813.89 638.93
00011011 00000080 524.70 204.59 383.81 555.42 667.46 418.70 842.28 430.18 785.19 539.54 679.87 626.16 812.89 634.85
00011012 00000081 525.20 203.77 383.05 551.45 666.91 418.06 846.07 429.49 786.91 542.25 677.42 623.85 817.05 633.04
00011013 00000082 521.68 201.96 386.84 553.98 665.04 416.64 844.37 428.07 784.04 543.14 673.08 620.95 815.12 630.16
00011014 00000083 514.20 196.91 391.12 563.08 666.34 419.58 843.61 431.24 780.07 537.34 671.80 622.62 811.25 632.41
00011015 00000084 511.94 195.33 393.90 570.87 656.70 414.60 832.49 428.85 770.11 541.58 658.09 617.53 800.13 629.10
00011016 00000085 510.78 198.45 392.40 570.97 654.92 412.43 829.72 429.60 765.15 541.07 652.01 615.58 794.07 629.68
00011017 00000086 509.97 196.82 391.33 570.51 651.78 410.36 828.40 427.77 760.94 540.47 648.18 613.13 791.17 627.69
00011018 00000087 507.85 195.29 391.34 572.89 652.42 413.15 826.81 428.78 756.80 533.58 650.48 616.16 795.13 629.80
00011019 00000088 507.73 187.97 392.82 575.33 648.81 412.93 825.51 428.91 752.09 530.11 647.17 613.14 794.47 627.25
00011020 00000089 507.08 184.15 391.87 573.16 645.99 412.02 822.63 425.39 749.90 526.97 646.74 610.25 794.25 622.33
00011021 00000090 504.89 180.56 391.51 574.49 644.73 411.83 819.07 423.39 749.57 524.34 647.75 608.12 793.27 618.26
00011022 00000091 501.74 175.32 390.85 578.97 642.86 412.83 817.52 422.99 749.59 523.23 647.76 607.57 793.62 616.06
00011023 00000092 501.31 171.92 390.37 580.29 637.52 409.27 813.84 418.08 743.47 521.76 645.13 606.53 791.42 613.96
00011024 00000093 500.88 168.75 391.29 582.07 634.52 406.79 810.88 416.88 737.82 520.68 643.45 605.09 788.65 613.40
00011025 00000094 498.76 168.26 393.85 581.22 630.01 405.35 808.34 415.32 733.35 517.49 640.38 603.08 787.52 611.17
00011026 00000095 498.69 167.63 392.97 580.13 627.38 405.10 806.92 414.58 731.62 516.56 640.54 603.63 787.30 611.36
00011027 00000096 497.55 168.83 392.17 574.94 625.36 403.90 804.14 415.33 728.06 512.33 639.47 600.71 783.63 610.18
00011028 00000097 497.50 167.23 391.05 571.92 623.68 402.17 804.27 414.71 726.65 510.71 637.32 598.80 782.65 609.15
00011029 00000098 495.22 167.51 390.18 570.99 620.84 402.52 802.67 414.71 725.14 511.67 635.26 599.85 780.97 609.99
00011030 00000099 494.94 165.98 389.73 572.74 620.82 403.07 801.30 414.91 724.57 511.59 636.44 599.77 780.34 609.52
00011031 00000100 493.89 165.93 389.50 573.02 620.81 402.73 801.50 414.78 725.10 512.02 636.90 599.72 780.78 609.57
00011032 00000101 493.38 163.78 388.93 574.42 620.86 400.32 802.23 413.70 725.37 510.31 636.58 598.54 780.51 609.39
00011033 00000102 492.77 161.69 390.69 578.77 620.60 399.56 805.61 413.94 727.88 511.36 634.84 600.09 782.65 611.74
00011034 00000103 493.81 161.65 389.66 578.50 621.35 400.27 806.99 414.71 728.90 509.40 634.39 599.65 784.06 611.38
00011035 00000104 495.38 160.63 389.57 578.66 621.33 399.98 808.98 415.05 729.82 508.96 634.72 600.46 786.61 612.62
00011036 00000105 497.20 162.37 388.91 575.48 622.91 399.75 807.65 413.53 729.63 508.69 640.58 601.68 785.76 612.81
00011037 00000106 497.64 163.27 388.76 572.11 625.94 401.19 804.58 410.69 730.64 511.06 649.04 603.95 783.46 611.37
00011038 00000107 497.55 162.17 388.23 574.99 628.95 400.32 803.63 409.81 732.65 511.85 651.61 605.24 781.66 612.62
00011039 00000108 498.82 161.51 387.56 574.97 630.31 400.01 803.86 411.37 732.47 509.56 647.88 600.01 781.27 609.04
00011040 00000109 499.03 162.08 390.13 574.30 631.06 399.47 805.48 411.75 732.83 509.15 645.38 596.37 783.27 606.18
00011041 00000110 500.27 160.70 389.59 577.27 631.26 399.75 805.44 411.74 733.51 509.73 646.36 598.40 784.05 607.81
00011042 00000111 500.26 159.74 390.15 581.38 631.35 399.43 806.49 412.61 734.61 509.13 645.15 600.24 783.71 610.74
00011043 00000112 500.33 158.46 389.78 592.20 636.30 397.75 804.37 411.77 734.72 510.04 646.54 602.60 781.12 613.81
00011044 00000113 498.93 159.88 391.29 592.20 636.21 396.79 804.31 413.31 732.43 508.41 641.80 599.00 778.46 612.34
00011045 00000114 497.32 157.96 393.35 597.26 634.35 395.97 803.23 413.63 730.99 508.07 636.22 598.19 776.35 612.53
00011046 00000115 495.80 156.29 394.23 600.76 631.18 396.15 802.11 414.49 727.96 510.10 632.59 599.32 774.41 614.08
00011047 00000116 495.41 156.88 393.75 601.35 630.46 396.36 800.37 414.45 726.33 511.41 630.84 599.69 772.25 614.27
00011048 00000117 493.67 157.23 393.34 599.70 628.67 396.54 798.07 414.33 724.79 512.52 630.13 599.61 770.81 613.91
00011049 00000118 492.84 158.58 393.52 596.99 627.59 397.66 798.28 414.23 724.78 513.56 631.62 599.91 772.70 613.12
00011050 00000119 492.11 157.74 394.68 595.15 627.48 398.38 800.66 414.51 727.35 513.05 634.68 600.03 776.38 612.77
00011051 00000120 491.64 159.50 393.82 590.53 626.52 397.86 801.22 414.03 728.03 512.40 635.86 598.49 777.05 611.29
00011052 00000121 491.60 158.36 392.66 589.24 626.98 397.96 801.90 412.43 730.01 512.51 638.85 599.56 778.73 610.99
00011053 00000122 492.29 160.81 389.77 582.35 627.02 398.68 802.92 413.00 730.34 512.45 641.73 599.95 778.90 611.25
00011054 00000123 491.00 161.30 391.29 582.24 625.79 398.88 803.46 412.90 730.36 512.68 640.88 600.31 779.70 611.35
00011055 00000124 489.14 158.95 392.28 584.29 623.36 399.65 802.83 413.79 729.62 513.19 638.28 601.08 779.20 612.18
00011056 00000125 488.91 159.55 391.04 583.26 622.00 401.75 800.73 415.12 728.10 514.71 637.03 601.87 777.96 612.44
00011057 00000126 487.26 158.98 390.98 584.77 619.90 401.10 799.59 414.41 726.39 516.84 634.60 603.33 775.76 613.83
00011058 00000127 486.39 156.89 389.24 587.16 617.58 402.83 795.58 414.32 724.47 520.13 634.07 607.09 771.90 616.20
00011059 00000128 483.45 158.67 390.15 590.56 619.23 402.19 789.37 412.87 722.19 519.57 637.36 608.68 766.25 617.16
00011060 00000129 481.75 159.61 388.42 588.46 620.29 401.07 784.42 411.40 721.42 520.45 639.70 612.29 758.06 620.93
00011061 00000130 478.87 161.29 389.53 590.49 619.12 397.21 781.92 407.36 720.25 515.80 635.28 609.56 756.27 618.25
00011062 00000131 477.28 158.39 390.40 592.49 609.26 399.13 781.18 407.20 714.89 515.86 626.80 607.65 760.10 614.54
00011063 00000132 474.61 162.41 390.52 586.52 607.01 401.19 773.85 408.26 709.10 517.86 625.08 608.33 752.38 615.07
00011064 00000133 474.84 162.65 389.80 589.59 603.18 404.42 772.06 412.61 704.62 520.41 620.15 609.74 751.43 617.36
00011065 00000134 474.15 166.50 391.36 585.40 602.55 407.04 773.99 413.18 704.59 525.82 616.49 609.29 753.80 615.34
00011066 00000135 473.17 171.56 391.68 580.37 603.32 408.59 775.43 414.83 705.45 528.73 613.86 608.18 754.40 614.54
00011067 00000136 473.15 166.93 391.66 585.18 603.40 407.61 774.84 414.23 705.54 528.14 612.26 606.11 754.20 612.59
00011068 00000137 472.26 172.33 391.07 579.48 603.24 410.36 776.11 416.28 705.86 530.02 611.02 605.95 754.69 612.18
00011069 00000138 472.16 178.07 390.98 573.25 602.53 413.66 779.85 418.88 706.64 534.09 610.34 607.81 758.17 613.37
00011070 00000139 470.73 182.82 392.76 568.86 603.23 415.33 782.20 420.15 708.09 536.55 609.58 607.65 760.24 612.94
00011071 00000140 472.06 186.76 390.42 556.45 604.01 416.91 786.16 420.76 710.49 536.09 611.67 607.15 762.74 611.82
00011072 00000141 474.67 186.44 389.85 557.30 608.70 419.33 787.24 423.05 713.29 538.69 614.63 605.75 763.97 610.18
00011073 00000142 475.93 186.34 389.97 560.41 611.80 419.14 789.98 422.47 717.54 539.74 618.70 607.72 766.35 611.67
00011074 00000143 478.16 179.84 393.29 571.33 616.75 416.41 794.85 422.41 723.65 534.70 625.48 608.90 770.93 614.43
00011075 00000144 480.51 176.52 397.75 579.62 621.28 411.98 799.89 422.13 726.04 531.13 628.01 608.67 774.52 617.09
00011076 00000145 485.79 169.47 396.81 584.18 626.95 409.92 803.02 421.05 730.32 526.52 634.08 605.92 778.28 614.87
00011077 00000146 487.95 169.28 397.57 584.78 632.08 409.14 804.95 421.24 733.95 526.51 636.09 604.63 779.04 614.43
00011078 00000147 491.72 170.07 395.67 582.55 634.44 407.94 809.20 418.74 737.98 525.87 639.17 604.96 783.94 613.89
00011079 00000148 495.84 171.22 393.66 580.85 636.14 409.31 812.12 419.65 740.81 526.70 641.62 605.94 787.44 614.45
00011080 00000149 498.66 170.29 391.47 579.74 637.35 410.19 813.82 421.51 742.24 525.05 642.56 604.44 790.04 613.80
00011081 00000150 500.68 169.53 390.80 579.98 638.94 409.17 816.06 420.91 745.16 524.66 642.69 602.85 792.47 612.93
00011082 00000151 501.49 171.22 390.53 577.40 639.57 409.46 817.37 421.48 745.92 525.06 643.91 603.31 793.09 613.64
00011083 00000152 501.65 171.81 389.41 577.03 639.66 410.33 816.61 422.59 745.45 525.64 643.97 604.04 792.58 614.54
00011084 00000153 501.48 173.04 389.70 576.56 639.88 410.63 816.90 422.97 745.43 525.88 644.21 604.95 792.06 615.44
00011085 00000154 501.65 177.11 389.49 571.82 639.51 412.83 818.42 424.09 746.03 528.38 645.20 607.76 793.30 617.45
00011086 00000155 499.64 180.37 389.08 570.83 639.28 413.05 817.45 425.33 744.71 529.94 644.54 609.15 791.08 619.73
00011087 00000156 499.70 182.87 390.61 571.63 640.07 414.85 817.71 426.38 745.04 532.56 644.88 611.71 790.73 621.77
00011088 00000157 496.10 185.89 392.27 570.05 639.59 416.28 817.17 428.84 744.59 536.67 643.91 613.69 787.83 624.59
00011089 00000158 494.84 187.53 392.46 568.31 637.70 416.72 815.85 428.82 743.01 538.63 643.46 615.10 787.27 625.64
00011090 00000159 494.59 188.83 393.15 566.10 637.46 418.36 815.66 430.25 742.59 539.95 643.40 615.62 787.54 625.94
00011091 00000160 493.74 189.83 392.38 566.19 635.42 419.64 815.41 430.51 742.50 541.53 642.35 617.82 787.68 627.41
00011092 00000161 493.43 188.70 392.32 567.24 634.98 420.56 815.18 430.90 742.64 541.67 641.87 618.35 787.55 627.43
00011093 00000162 493.77 190.97 392.41 564.21 635.52 421.97 815.85 432.09 744.26 541.24 643.26 617.92 788.96 626.79
00011094 00000163 493.24 194.65 392.05 558.17 634.61 422.72 816.46 432.91 744.02 540.76 642.69 617.87 788.79 626.98
00011095 00000164 495.34 192.90 391.02 558.83 634.69 424.76 816.89 434.47 743.71 541.51 643.69 618.38 790.25 627.09
00011096 00000165 494.76 195.63 390.61 556.15 634.26 427.07 818.31 436.62 744.64 544.26 643.78 619.99 791.12 628.52
00011097 00000166 496.15 194.82 389.95 558.33 636.11 428.22 819.25 437.69 746.28 544.31 645.42 621.14 792.37 629.48
00011098 00000167 497.58 198.13 390.49 567.79 641.26 426.58 820.70 438.04 748.54 544.31 646.66 624.84 791.79 634.71
00011099 00000168 502.49 199.18 389.57 575.21 646.82 419.56 818.38 436.79 749.32 546.95 646.03 621.09 782.56 634.85
00011100 00000169 499.23 198.33 392.91 571.91 645.79 431.83 824.12 442.45 752.50 549.65 648.45 630.47 792.73 639.71
00011101 00000170 504.48 203.51 391.65 562.14 649.10 433.44 831.30 444.33 758.17 551.72 653.04 632.18 797.88 641.84
