Video ID: 	_DfXozn4MdQ
H: 	2160
W: 	3840
FPS: 	25.0

FRAME INDEX X0 Y0 W H [Landmarks (5 Points)]

00003219 00000000 1662.23 374.48 496.86 696.86 1741.95 693.40 1937.68 627.07 1823.00 771.86 1823.79 924.65 1978.33 875.17
00003220 00000001 1657.91 387.62 501.49 700.98 1741.12 706.93 1939.56 641.62 1827.46 789.82 1823.45 936.35 1993.10 886.67
00003221 00000002 1661.74 389.05 502.03 695.10 1743.70 712.47 1940.53 649.10 1827.83 800.01 1824.98 936.08 1995.04 887.94
00003222 00000003 1660.24 384.70 502.48 695.06 1743.38 711.36 1944.39 650.56 1830.59 802.95 1820.57 932.80 1994.15 886.26
00003223 00000004 1655.04 389.99 503.24 691.20 1738.71 708.57 1940.74 649.50 1823.59 801.52 1813.00 932.03 1987.33 886.58
00003224 00000005 1651.46 384.74 506.71 698.35 1736.54 705.45 1940.88 647.12 1821.95 796.43 1808.79 930.53 1986.45 885.75
00003225 00000006 1647.45 390.87 499.77 690.88 1730.57 702.98 1934.35 647.37 1811.75 795.83 1799.07 926.66 1978.83 883.39
00003226 00000007 1643.68 389.81 501.39 685.19 1726.05 699.46 1930.36 643.70 1808.34 789.88 1793.35 918.71 1976.79 874.90
00003227 DELETE   1639.94 375.37 501.41 689.75 1723.71 689.11 1930.21 632.73 1807.03 780.30 1790.72 909.64 1974.11 865.70
00003228 DELETE   1640.46 360.98 495.78 685.62 1720.83 671.92 1930.36 615.45 1805.91 763.61 1784.64 893.50 1971.42 849.87
00003229 00000010 1640.62 350.11 492.61 681.10 1719.87 657.18 1927.93 602.29 1802.38 741.77 1777.92 881.90 1962.41 840.14
00003230 00000011 1642.98 344.61 490.89 679.14 1722.61 646.15 1931.62 592.37 1806.29 728.05 1782.98 873.15 1958.81 832.69
00003231 00000012 1646.50 344.29 486.18 675.58 1727.24 637.92 1937.64 588.21 1812.79 719.73 1781.14 866.22 1964.19 828.92
00003232 00000013 1652.84 347.57 483.26 673.24 1734.60 636.70 1946.71 588.51 1819.96 723.46 1783.70 867.60 1974.69 831.07
00003233 00000014 1653.18 349.75 489.31 675.17 1740.21 643.77 1954.35 595.85 1831.99 735.75 1789.05 872.86 1985.20 836.23
00003234 00000015 1655.70 357.13 493.43 673.69 1746.02 650.01 1959.15 607.55 1838.67 742.70 1794.87 877.63 1984.68 845.34
00003235 00000016 1666.57 357.67 496.12 684.57 1755.04 654.20 1966.57 614.50 1844.76 751.85 1809.93 888.23 1986.75 858.32
00003236 00000017 1669.31 360.25 493.97 687.75 1753.61 657.32 1966.03 622.30 1842.82 759.44 1816.99 896.80 1985.49 870.49
00003237 00000018 1674.91 362.99 489.04 687.66 1756.56 658.31 1969.48 626.23 1842.32 766.98 1814.82 902.30 1989.26 878.14
00003238 00000019 1676.27 366.24 489.05 696.32 1756.15 664.09 1968.57 631.37 1839.81 778.62 1813.90 913.24 1992.05 888.64
00003239 00000020 1675.85 386.73 491.96 688.14 1755.16 675.33 1962.33 643.08 1832.32 796.06 1814.64 923.77 1979.59 899.53
00003240 00000021 1675.02 395.00 493.79 694.08 1754.81 683.13 1957.92 654.68 1826.73 814.54 1816.14 937.31 1974.22 915.69
00003241 00000022 1667.59 395.46 497.91 690.18 1747.84 681.03 1954.02 650.59 1819.08 806.91 1806.56 931.25 1971.74 908.06
00003242 00000023 1662.40 392.20 500.52 683.96 1739.99 672.99 1950.72 642.10 1813.29 790.25 1792.43 917.78 1970.34 894.12
00003243 00000024 1657.34 387.24 501.27 687.02 1736.43 670.48 1947.69 639.03 1811.60 791.19 1790.42 915.98 1969.95 891.49
00003244 00000025 1659.81 392.69 497.94 688.95 1737.83 674.64 1947.06 642.30 1810.74 795.44 1793.84 920.77 1969.87 895.51
00003245 00000026 1661.36 390.20 493.79 689.54 1739.63 678.17 1946.82 642.98 1815.03 797.95 1800.08 923.37 1970.27 896.00
00003246 00000027 1660.57 387.14 497.38 689.08 1740.28 678.23 1948.89 640.00 1819.75 794.87 1802.75 920.54 1973.32 890.84
00003247 00000028 1657.98 378.34 500.84 692.10 1738.88 674.88 1953.49 632.76 1824.60 784.44 1800.04 911.12 1983.20 878.29
00003248 DELETE   1655.07 358.73 503.33 692.21 1741.52 659.65 1955.34 618.28 1829.28 766.90 1798.09 892.45 1985.25 860.14
00003249 DELETE   1656.51 347.10 502.22 686.01 1743.12 646.24 1954.78 601.11 1831.18 742.63 1797.12 877.07 1982.99 842.74
00003250 00000031 1660.24 341.37 491.18 679.77 1742.30 635.95 1954.88 586.70 1826.77 718.17 1795.28 864.38 1975.41 828.63
00003251 00000032 1665.34 338.08 488.54 676.34 1738.83 624.34 1953.47 578.84 1821.50 683.83 1790.48 849.24 1977.78 813.20
00003252 00000033 1664.49 329.43 485.75 675.45 1741.77 609.09 1957.69 566.12 1823.83 669.94 1790.42 839.66 1978.11 808.10
00003253 00000034 1664.70 329.42 487.72 655.81 1748.94 609.11 1960.26 564.10 1830.20 660.92 1788.19 823.22 1982.28 788.56
00003254 00000035 1666.26 324.68 497.16 652.67 1752.76 599.95 1965.45 556.98 1832.97 652.23 1784.64 817.45 1984.79 784.65
00003255 00000036 1673.54 317.97 498.13 652.48 1758.87 589.27 1971.62 548.18 1838.61 646.23 1793.85 812.23 1986.86 781.11
00003256 00000037 1676.53 310.95 498.94 651.10 1752.79 587.31 1977.22 545.72 1835.97 647.64 1794.98 810.92 1981.85 780.73
00003257 00000038 1686.58 318.07 499.74 644.68 1762.30 589.76 1985.65 550.40 1843.97 650.47 1804.64 814.03 1988.50 785.72
00003258 00000039 1693.79 326.68 494.88 646.19 1772.18 596.67 1990.43 561.53 1852.60 658.36 1814.56 817.70 1995.80 792.36
00003259 00000040 1697.31 329.13 495.72 658.22 1778.39 603.41 1994.42 569.41 1855.12 669.27 1818.51 826.43 2001.85 801.79
00003260 00000041 1704.46 328.28 494.11 664.90 1784.83 603.29 2001.32 569.84 1862.02 670.52 1825.59 827.58 2008.55 803.57
00003261 00000042 1702.95 331.37 496.85 669.30 1784.35 610.25 1999.94 574.66 1861.54 679.90 1824.79 835.20 2008.65 809.74
00003262 00000043 1707.65 331.60 495.85 677.23 1788.25 611.89 1997.55 576.43 1860.99 687.21 1831.68 839.09 2010.92 814.20
00003263 00000044 1704.51 334.58 499.65 681.28 1792.24 612.30 2000.00 581.79 1861.78 692.57 1834.47 845.94 2002.02 824.83
00003264 00000045 1703.32 344.71 500.74 683.54 1783.87 624.94 1999.97 588.04 1865.94 700.26 1827.05 862.69 2020.56 835.14
00003265 00000046 1702.73 342.10 500.94 684.25 1787.02 626.10 1998.13 591.10 1861.99 708.94 1820.21 858.47 2022.79 833.42
00003266 00000047 1700.77 335.92 499.27 678.36 1786.47 615.54 1996.13 585.32 1860.27 701.83 1819.05 842.65 2017.95 820.99
00003267 00000048 1704.05 330.45 495.03 675.10 1788.33 604.98 2000.11 578.55 1861.18 689.46 1819.54 833.00 2013.56 814.74
00003268 00000049 1701.50 330.39 496.42 669.03 1783.60 602.61 1995.80 576.68 1857.12 686.96 1819.98 829.80 2004.04 812.37
00003269 00000050 1698.19 333.98 495.27 669.47 1781.84 608.07 1989.83 582.05 1853.98 699.02 1817.06 838.26 2002.06 820.50
00003270 00000051 1692.67 340.68 500.22 672.17 1777.30 619.60 1988.15 591.17 1855.12 713.22 1818.72 851.64 1997.77 832.07
00003271 00000052 1687.52 352.66 499.00 675.04 1772.79 629.70 1981.39 598.25 1852.59 732.96 1815.78 871.40 1998.56 848.63
00003272 00000053 1686.60 355.01 497.56 677.06 1772.54 639.81 1979.23 606.42 1852.93 744.83 1818.03 880.28 1999.10 856.03
00003273 00000054 1685.42 361.61 497.31 683.87 1770.55 647.03 1977.91 611.97 1851.38 755.49 1817.81 888.40 2002.74 862.10
00003274 00000055 1682.03 364.45 495.16 683.86 1762.31 652.94 1971.69 620.40 1845.64 761.29 1819.79 891.79 1998.14 866.55
00003275 00000056 1678.29 365.85 494.81 686.22 1759.34 652.74 1966.35 618.13 1841.24 757.58 1821.33 896.03 1986.37 869.74
00003276 00000057 1672.67 356.65 494.99 695.90 1757.31 646.86 1965.70 609.46 1838.11 748.57 1808.86 888.77 1988.73 860.59
00003277 00000058 1673.37 355.04 494.64 687.80 1755.52 642.88 1964.95 604.83 1837.82 742.06 1804.35 882.93 1989.39 854.51
00003278 00000059 1664.03 351.95 497.33 687.16 1749.09 637.11 1961.10 599.81 1832.38 742.82 1796.47 876.69 1986.69 848.16
00003279 00000060 1662.42 352.06 499.79 683.82 1747.11 636.04 1960.30 598.73 1831.46 742.31 1795.31 876.25 1985.00 847.75
00003280 00000061 1660.97 352.99 498.93 682.31 1745.43 634.80 1959.18 597.93 1829.66 741.51 1793.73 874.69 1983.29 846.34
00003281 00000062 1661.30 350.04 494.10 683.24 1747.23 633.28 1959.67 594.62 1831.14 738.52 1793.89 874.13 1983.49 844.44
00003282 00000063 1661.09 348.04 492.96 681.51 1746.14 625.64 1957.09 589.68 1826.72 734.15 1792.24 866.85 1979.13 838.97
00003283 00000064 1661.72 344.17 493.23 678.57 1745.48 624.89 1958.49 586.33 1826.00 725.04 1790.81 862.57 1982.65 833.42
00003284 00000065 1661.45 342.84 489.90 668.86 1745.46 620.13 1958.48 581.73 1827.92 718.22 1790.33 854.23 1982.28 825.48
00003285 00000066 1663.71 338.89 485.21 669.86 1747.36 619.62 1959.68 581.73 1829.68 716.34 1793.29 851.92 1980.34 823.78
00003286 00000067 1668.73 344.65 492.30 667.90 1750.32 626.47 1960.38 593.68 1821.85 725.64 1793.23 854.08 1976.77 829.98
00003287 00000068 1672.05 343.95 490.20 685.09 1753.49 628.68 1959.55 593.89 1828.71 733.92 1797.52 869.46 1979.91 843.50
00003288 00000069 1674.63 352.70 492.41 684.81 1757.35 635.48 1964.32 604.24 1831.26 742.29 1797.16 875.70 1985.71 852.29
00003289 00000070 1682.53 356.41 493.88 689.24 1766.61 637.35 1971.69 612.20 1835.98 749.25 1803.43 880.70 1989.85 862.07
00003290 00000071 1689.16 356.61 498.34 688.96 1766.76 643.80 1977.41 622.51 1839.23 752.89 1811.86 885.89 1992.79 870.65
00003291 00000072 1701.23 362.12 492.26 688.50 1774.36 648.64 1985.03 631.64 1843.14 760.46 1813.72 889.95 1998.24 878.40
00003292 00000073 1704.38 376.05 494.01 677.88 1789.73 649.97 1993.60 633.58 1850.96 771.00 1819.05 887.99 2004.69 876.15
00003293 00000074 1708.93 377.78 490.63 682.87 1793.45 651.22 1996.40 637.13 1854.33 774.73 1822.00 891.26 2007.99 880.99
00003294 00000075 1711.69 375.58 491.05 682.42 1794.96 648.91 1998.85 634.14 1855.86 770.13 1823.72 889.36 2007.88 878.88
00003295 00000076 1713.97 367.46 491.18 676.78 1798.92 642.88 2002.58 628.93 1863.21 761.45 1828.46 881.94 2007.76 872.65
00003296 00000077 1710.07 364.18 494.26 670.01 1797.12 634.26 2004.35 620.09 1863.10 750.97 1826.08 875.16 2006.45 865.79
00003297 00000078 1716.70 362.72 487.41 670.87 1803.29 631.00 2008.08 616.82 1869.18 748.13 1830.12 874.49 2010.22 865.35
00003298 00000079 1721.19 365.49 485.94 671.10 1805.73 634.45 2013.87 618.93 1875.44 751.02 1835.96 876.10 2016.64 865.85
00003299 00000080 1725.67 367.42 481.74 674.16 1809.56 640.60 2015.89 624.20 1880.04 759.19 1842.57 880.51 2019.57 869.33
00003300 00000081 1724.09 373.01 480.62 675.73 1810.04 644.39 2017.23 626.70 1884.14 763.36 1844.07 888.01 2020.56 875.37
00003301 00000082 1725.21 372.78 480.87 677.25 1810.54 644.25 2018.14 625.44 1883.96 761.42 1846.27 884.01 2023.67 870.46
00003302 00000083 1726.63 371.04 483.37 676.95 1812.04 638.95 2021.22 619.98 1885.21 756.49 1845.94 878.96 2027.48 865.52
00003303 00000084 1720.09 368.78 486.42 677.46 1808.48 637.64 2017.97 617.80 1883.55 751.43 1843.13 880.45 2024.18 866.46
00003304 00000085 1717.41 364.66 489.98 678.68 1806.76 637.23 2016.99 616.58 1883.00 749.16 1845.19 878.72 2020.86 864.11
00003305 00000086 1718.83 366.04 488.44 677.11 1808.35 637.48 2017.75 615.84 1884.11 749.66 1847.80 878.71 2022.35 863.20
00003306 00000087 1717.65 357.60 483.97 682.70 1808.14 632.76 2013.75 613.37 1879.58 745.57 1842.80 873.23 2018.65 859.49
00003307 00000088 1720.64 354.59 485.62 676.69 1810.03 627.65 2017.04 608.30 1881.36 736.20 1836.95 866.28 2027.88 852.78
00003308 00000089 1716.46 352.01 492.36 673.48 1805.02 622.74 2016.90 601.41 1879.20 729.65 1829.52 858.30 2032.20 843.17
00003309 00000090 1712.81 343.47 497.45 671.92 1801.66 617.51 2017.28 593.68 1878.59 714.03 1828.94 846.70 2033.75 829.94
00003310 00000091 1715.90 346.49 495.71 665.87 1808.40 616.52 2021.04 592.04 1883.89 711.16 1831.82 835.04 2041.61 816.95
00003311 00000092 1715.23 344.44 494.89 662.14 1808.25 610.65 2021.48 583.85 1882.89 699.29 1830.40 828.90 2043.50 809.38
00003312 00000093 1720.86 344.69 490.76 657.05 1808.44 605.57 2026.62 581.07 1884.35 683.83 1830.49 818.59 2042.10 800.07
00003313 00000094 1721.06 338.31 491.11 660.41 1813.33 602.50 2026.60 578.81 1887.95 689.73 1832.98 819.55 2045.23 802.78
00003314 00000095 1728.26 343.33 491.29 653.75 1816.67 600.72 2032.51 579.80 1888.85 681.41 1834.52 814.44 2046.32 798.88
00003315 00000096 1728.43 345.05 491.72 652.34 1817.50 602.36 2032.01 580.26 1890.57 683.46 1836.22 816.25 2048.10 799.72
00003316 00000097 1731.64 342.17 490.92 659.32 1819.82 603.32 2035.07 581.32 1892.50 688.95 1840.34 818.18 2051.87 801.66
00003317 00000098 1735.12 346.57 489.49 660.62 1822.22 601.35 2034.80 581.34 1892.82 696.15 1845.75 821.89 2051.61 806.13
00003318 00000099 1733.77 348.43 490.56 661.70 1821.18 602.44 2034.99 580.88 1895.29 696.96 1849.89 826.10 2051.04 808.97
00003319 00000100 1739.08 341.92 485.86 673.91 1826.73 600.85 2038.12 580.27 1895.78 696.05 1856.00 829.78 2048.25 813.32
00003320 00000101 1738.29 342.53 489.53 670.71 1825.91 596.55 2039.37 578.38 1895.32 691.60 1853.65 823.41 2050.46 809.00
00003321 00000102 1739.06 343.11 492.68 674.57 1826.61 594.98 2044.01 576.39 1899.02 688.72 1855.70 824.99 2053.01 810.31
00003322 00000103 1738.86 338.16 493.59 680.50 1826.98 594.34 2045.67 576.25 1900.79 687.34 1854.88 823.35 2055.44 809.25
00003323 00000104 1739.77 335.81 493.03 684.09 1829.34 592.43 2050.33 575.20 1904.56 681.66 1854.73 821.63 2056.34 808.59
00003324 00000105 1740.89 338.95 492.92 687.66 1830.68 590.07 2053.52 571.69 1907.71 678.24 1856.34 823.59 2059.57 809.58
00003325 00000106 1739.63 339.43 490.83 693.40 1830.33 590.82 2050.48 572.34 1906.64 679.42 1855.47 829.29 2060.33 814.79
00003326 00000107 1743.94 342.09 489.31 696.71 1833.98 591.04 2052.32 573.19 1906.90 682.10 1859.90 832.45 2062.66 818.23
00003327 00000108 1744.95 345.48 488.23 700.39 1834.13 595.14 2049.53 576.18 1903.46 688.79 1860.90 836.65 2064.41 821.12
00003328 00000109 1741.72 345.20 490.08 700.81 1830.72 598.18 2047.46 579.05 1901.70 694.75 1858.77 838.95 2062.65 823.39
00003329 00000110 1744.18 343.04 488.79 702.21 1834.25 602.63 2051.25 582.96 1907.38 699.32 1863.27 840.17 2064.67 824.33
00003330 00000111 1749.22 344.33 488.39 686.93 1840.73 604.54 2056.74 590.32 1914.31 705.67 1863.38 833.01 2065.67 821.96
00003331 00000112 1746.58 338.67 491.91 677.96 1838.10 603.04 2058.63 589.34 1917.91 705.97 1859.23 824.86 2068.68 814.40
00003332 00000113 1755.46 343.58 486.47 663.60 1853.56 602.20 2067.40 585.43 1937.70 707.07 1872.82 827.54 2081.00 815.21
00003333 00000114 1759.56 343.76 489.01 663.67 1861.14 600.69 2080.60 581.67 1953.51 703.10 1882.55 826.12 2094.37 812.05
00003334 00000115 1765.90 348.42 482.36 661.47 1871.99 600.56 2087.97 580.84 1973.45 707.83 1893.17 831.18 2104.91 816.71
00003335 00000116 1774.86 347.97 474.13 666.13 1888.62 604.01 2104.19 583.25 2007.30 719.18 1916.80 837.66 2123.77 822.18
00003336 DELETE   1786.40 350.85 469.60 677.51 1905.74 609.63 2120.88 586.54 2037.07 716.67 1937.35 844.30 2141.42 827.29
00003337 DELETE   1794.77 341.43 466.12 704.04 1922.17 618.01 2133.62 591.29 2066.75 716.05 1955.69 850.41 2147.61 831.31
00003338 00000119 1809.80 334.52 451.96 706.03 1941.49 610.01 2144.99 585.93 2091.38 724.37 1961.93 849.29 2165.23 830.26
00003339 00000120 1811.47 333.94 454.36 690.32 1951.17 609.79 2150.08 583.60 2105.62 719.41 1978.69 842.55 2174.01 822.26
00003340 00000121 1812.67 333.02 454.89 676.28 1951.16 610.25 2151.16 579.95 2106.66 713.85 1984.92 837.30 2178.96 814.13
CROP_BBOX: 1399 22 2523 1258
