Video ID: 	f6uJMcrCxAk
H: 	1080
W: 	1920
FPS: 	23.976023976023978

FRAME INDEX X0 Y0 W H [Landmarks (5 Points)]

00006302 00000000 812.03 207.85 537.30 754.84 916.15 491.86 1158.05 534.69 987.15 667.09 913.66 744.01 1130.12 779.44
00006303 00000001 810.91 203.65 540.25 770.92 914.85 495.09 1158.47 525.20 984.31 668.97 918.15 756.04 1125.59 780.73
00006304 00000002 813.21 194.27 539.82 776.79 916.21 491.21 1158.14 518.27 984.84 659.73 921.49 757.84 1122.58 780.64
00006305 00000003 810.94 206.30 538.35 753.51 918.60 489.50 1158.96 518.21 988.59 651.83 918.19 755.03 1115.50 780.15
00006306 00000004 816.01 208.17 535.60 747.44 921.06 491.33 1162.89 519.77 993.23 655.39 922.44 760.06 1114.62 785.39
00006307 00000005 820.82 207.34 533.13 749.38 924.78 495.01 1167.25 534.29 996.99 667.51 927.06 765.70 1114.97 799.65
00006308 00000006 823.19 220.74 534.13 738.50 930.04 506.87 1172.70 543.33 1008.32 674.74 932.00 772.59 1118.80 804.59
00006309 00000007 825.67 225.23 535.77 737.78 932.70 505.95 1175.60 544.39 1009.71 676.46 932.34 774.88 1118.50 808.53
00006310 DELETE   829.33 218.60 532.97 735.99 936.04 500.91 1180.89 541.69 1012.46 672.83 936.80 769.31 1124.16 804.65
00006311 DELETE   833.15 206.82 534.15 731.49 937.50 491.37 1183.48 526.90 1014.85 662.54 941.71 762.03 1129.29 792.95
00006312 DELETE   835.99 189.33 530.87 742.32 941.33 477.39 1185.10 512.50 1015.76 649.73 943.48 750.95 1130.87 781.65
00006313 00000011 838.76 176.26 527.38 751.35 945.03 467.09 1187.37 499.82 1016.15 633.60 941.91 740.26 1129.48 769.15
00006314 00000012 840.18 165.93 525.72 756.16 945.80 459.21 1186.55 489.23 1016.71 622.59 942.47 731.44 1131.18 758.12
00006315 00000013 841.04 164.72 527.42 753.08 947.14 454.68 1185.89 484.66 1014.86 613.65 943.84 725.82 1128.89 752.51
00006316 00000014 843.08 161.33 525.77 752.95 945.88 451.46 1185.34 480.69 1012.57 608.13 943.83 722.68 1128.92 748.98
00006317 00000015 841.29 163.73 524.69 751.68 943.07 449.04 1182.81 477.90 1009.83 606.32 941.32 721.76 1126.63 747.77
00006318 00000016 840.06 163.11 523.98 749.77 939.94 445.50 1179.06 477.18 1003.65 605.35 936.74 718.29 1123.29 746.64
00006319 00000017 837.66 160.64 525.47 750.44 936.88 442.58 1175.88 475.61 998.94 602.95 932.46 716.28 1119.16 745.80
00006320 00000018 834.45 159.68 524.31 748.23 932.93 440.28 1171.32 472.00 993.95 595.96 928.30 712.48 1114.91 740.89
00006321 00000019 829.45 158.15 527.09 750.73 930.09 437.35 1169.21 471.04 990.04 592.03 924.26 709.38 1112.56 739.25
00006322 00000020 824.80 158.74 528.15 753.33 927.11 435.23 1166.68 468.97 988.25 592.67 919.61 709.32 1108.65 739.30
00006323 00000021 820.75 161.62 527.70 752.31 925.51 438.08 1164.00 471.91 988.29 595.68 917.18 709.91 1109.60 739.72
00006324 00000022 816.02 159.35 529.15 754.81 920.03 442.42 1160.14 473.54 984.89 598.70 914.84 713.96 1109.94 741.17
00006325 00000023 820.74 166.19 523.18 751.26 914.18 442.64 1149.84 473.04 977.23 603.37 917.88 717.01 1102.05 743.43
00006326 00000024 819.14 164.61 522.21 754.20 913.17 444.32 1149.98 473.23 978.46 604.97 918.21 718.84 1104.58 743.88
00006327 00000025 817.24 166.85 522.58 756.17 912.04 445.89 1148.84 473.68 977.13 606.64 916.89 720.73 1103.94 744.80
00006328 00000026 816.83 167.95 520.70 752.37 910.44 448.02 1148.28 474.91 976.82 608.76 916.42 721.55 1104.83 744.88
00006329 00000027 816.00 169.69 522.27 751.50 910.40 448.33 1147.57 475.68 975.84 609.58 916.31 721.79 1102.95 745.51
00006330 00000028 814.19 171.58 521.79 747.88 908.07 449.17 1146.74 476.89 974.67 611.18 913.06 721.15 1100.72 745.29
00006331 00000029 813.24 171.65 522.04 746.64 907.74 449.58 1145.14 477.50 973.75 611.00 912.36 720.50 1099.20 744.81
00006332 00000030 812.12 169.30 522.74 747.98 906.67 448.37 1141.91 475.58 973.88 610.93 912.37 717.36 1101.36 740.82
00006333 00000031 811.18 168.63 523.61 748.10 907.47 449.20 1143.09 476.17 976.46 611.50 912.77 716.36 1102.79 739.62
00006334 00000032 812.75 169.87 524.32 749.22 907.65 449.68 1148.50 477.53 977.39 611.88 911.52 716.65 1104.81 740.71
00006335 00000033 814.07 169.65 522.78 746.02 911.00 449.78 1149.01 478.67 979.28 610.91 914.51 715.54 1106.69 740.31
00006336 00000034 815.03 167.42 525.03 747.27 914.40 448.29 1153.30 478.88 983.34 609.57 916.77 713.79 1109.80 739.88
00006337 00000035 813.77 167.48 529.23 746.25 916.74 447.55 1158.91 479.82 988.64 610.37 917.50 710.86 1113.54 738.29
00006338 00000036 809.81 165.54 535.95 746.76 920.83 449.33 1164.74 478.11 997.40 607.79 916.09 713.46 1118.93 738.65
00006339 00000037 811.75 164.19 535.71 748.08 923.25 448.98 1166.63 478.52 999.66 608.74 917.10 711.74 1121.04 737.61
00006340 00000038 812.72 167.33 534.41 742.36 923.67 447.77 1166.44 478.25 999.46 609.70 917.45 709.90 1120.77 736.63
00006341 00000039 811.24 167.24 535.71 743.35 921.94 442.15 1164.06 475.33 995.05 607.98 913.87 708.39 1115.87 737.40
00006342 00000040 811.44 168.69 532.62 743.02 920.35 436.81 1158.66 474.18 987.79 608.33 910.28 703.48 1112.77 735.56
00006343 00000041 812.26 169.73 533.03 744.06 919.39 431.82 1159.79 471.56 983.73 606.48 908.11 703.38 1108.55 737.56
00006344 00000042 815.14 171.13 533.21 743.89 923.59 430.44 1166.60 467.82 991.90 604.41 913.71 704.89 1114.55 737.22
00006345 00000043 821.98 172.96 533.65 738.99 930.99 431.71 1180.82 468.76 1006.06 610.21 921.27 705.27 1124.83 737.85
00006346 00000044 828.18 165.24 535.75 750.68 941.88 436.56 1192.98 472.86 1022.67 613.88 933.81 709.87 1137.92 741.77
00006347 00000045 838.56 171.89 531.46 744.10 957.20 448.77 1199.47 479.65 1040.10 617.57 953.50 715.34 1147.65 742.69
00006348 00000046 842.32 171.69 530.72 747.17 963.04 449.46 1204.33 478.39 1047.64 617.18 960.94 719.52 1151.83 745.26
00006349 00000047 842.79 173.77 529.62 746.43 960.05 442.59 1205.32 474.67 1043.82 614.62 956.77 720.72 1147.34 749.13
00006350 00000048 839.84 171.55 531.04 745.97 953.17 437.82 1202.79 472.96 1034.78 609.79 946.36 717.83 1140.56 748.87
00006351 00000049 836.46 169.46 534.47 746.84 952.84 431.08 1202.99 470.45 1031.05 603.57 941.13 711.18 1136.93 745.82
00006352 00000050 836.52 165.15 535.87 751.55 951.97 431.01 1203.64 468.42 1032.45 603.72 943.24 713.02 1139.04 746.17
00006353 00000051 841.54 167.75 530.35 752.35 956.87 432.68 1207.37 467.72 1040.42 609.07 949.75 716.86 1145.45 748.17
00006354 00000052 844.02 169.06 530.75 748.93 962.14 436.15 1213.66 469.25 1049.59 613.19 957.67 720.64 1152.28 750.16
00006355 00000053 843.80 168.29 534.44 747.35 972.81 443.40 1224.09 475.74 1067.79 619.26 968.71 719.99 1168.95 748.14
00006356 00000054 849.38 173.61 532.47 744.36 977.16 449.02 1233.92 476.03 1078.90 625.36 978.35 725.49 1185.85 749.12
00006357 00000055 853.03 173.40 532.40 751.72 988.23 450.73 1247.48 479.91 1097.41 630.86 988.02 734.39 1193.35 759.41
00006358 00000056 852.83 169.99 533.74 758.29 993.48 454.42 1253.04 474.62 1110.41 632.13 998.23 738.40 1209.20 755.89
00006359 00000057 853.46 170.61 534.44 762.95 993.57 456.29 1252.93 477.43 1110.27 636.61 999.82 743.49 1205.20 762.00
00006360 00000058 851.06 177.85 534.50 761.22 989.25 458.76 1247.41 483.09 1100.30 637.40 992.49 744.09 1196.49 765.57
00006361 00000059 849.74 177.49 530.38 758.21 984.57 460.88 1241.14 488.43 1092.09 640.24 985.22 744.09 1184.68 768.47
00006362 00000060 849.46 181.95 528.64 755.03 979.49 463.20 1238.95 488.53 1089.27 643.58 982.20 749.23 1184.79 771.78
00006363 00000061 848.78 178.69 528.48 757.61 981.26 464.83 1242.02 488.13 1094.46 646.42 984.58 754.20 1186.73 775.13
00006364 00000062 845.91 178.94 532.60 762.64 982.06 463.94 1243.36 488.77 1093.58 643.50 982.28 749.02 1191.96 770.84
00006365 00000063 841.13 180.74 536.06 757.76 976.68 464.08 1236.19 491.39 1084.02 640.54 974.90 743.60 1183.17 767.62
00006366 00000064 838.08 189.76 532.44 742.68 966.25 462.01 1223.45 495.36 1066.52 645.41 962.03 740.46 1166.29 769.91
00006367 00000065 838.27 189.78 528.99 744.91 960.21 461.90 1217.38 495.33 1056.15 646.98 956.23 740.58 1162.37 770.05
00006368 00000066 839.86 187.03 528.93 748.28 963.65 462.17 1220.32 494.60 1060.76 645.67 961.39 742.31 1163.50 771.04
00006369 00000067 842.09 183.82 529.64 748.28 969.25 464.56 1228.13 494.66 1071.64 643.44 969.27 742.90 1172.24 769.65
00006370 00000068 844.55 187.94 532.89 743.48 974.34 466.91 1235.07 493.92 1081.05 644.62 976.88 744.51 1182.95 768.21
00006371 00000069 850.86 192.16 531.54 743.89 981.19 466.36 1237.65 498.14 1083.63 648.30 979.37 745.50 1181.43 772.57
00006372 00000070 851.77 187.96 532.62 748.12 982.75 466.05 1239.96 496.80 1086.71 647.71 982.48 745.59 1186.62 771.67
00006373 00000071 853.70 186.38 532.21 749.60 985.58 467.88 1241.32 497.18 1090.70 646.91 985.41 745.90 1189.04 770.65
00006374 00000072 849.00 181.45 534.82 747.46 986.57 477.73 1245.29 500.47 1101.09 647.40 992.36 744.89 1202.27 764.26
00006375 00000073 849.06 181.39 535.64 750.54 987.18 477.88 1246.04 497.39 1105.26 648.75 996.55 747.07 1206.86 763.69
00006376 00000074 853.49 181.91 533.39 754.16 993.79 474.24 1248.59 494.24 1109.72 646.76 1002.02 747.06 1208.55 764.27
00006377 00000075 859.61 184.80 530.26 755.97 992.39 474.35 1248.29 497.26 1104.11 647.32 999.27 751.72 1204.54 771.14
00006378 00000076 859.54 184.40 531.17 755.66 991.84 472.57 1248.27 496.50 1102.82 647.23 998.73 751.51 1202.84 771.71
00006379 00000077 859.24 180.31 532.49 762.00 992.25 471.51 1248.91 495.80 1103.05 646.26 998.40 751.14 1203.75 771.59
00006380 00000078 855.16 174.39 534.31 765.77 994.06 470.40 1252.23 491.12 1108.46 645.18 1001.41 748.32 1210.60 766.17
00006381 00000079 858.20 182.46 534.16 758.78 991.43 470.89 1248.16 495.32 1101.63 644.92 997.74 750.87 1201.77 771.55
00006382 00000080 856.11 179.04 533.53 762.11 989.64 471.19 1247.25 494.80 1101.43 645.18 996.37 750.71 1201.60 770.77
00006383 00000081 854.90 182.86 533.92 759.79 989.45 471.88 1246.51 494.53 1101.29 646.02 996.87 751.78 1200.88 771.11
00006384 00000082 852.64 182.15 535.76 762.40 989.33 472.77 1246.14 494.48 1102.53 647.10 998.09 753.01 1201.74 771.52
00006385 00000083 854.56 183.26 533.30 762.74 988.56 471.96 1245.08 493.01 1101.64 647.89 998.56 754.89 1200.59 772.99
00006386 00000084 854.31 185.15 533.51 760.07 988.15 471.40 1244.75 492.34 1100.99 648.03 999.29 755.43 1199.77 773.50
00006387 00000085 854.60 183.70 533.91 763.71 988.32 471.74 1244.75 492.51 1101.59 647.20 999.81 756.82 1199.93 774.76
00006388 00000086 854.35 181.04 533.18 766.92 988.40 471.79 1245.02 491.39 1103.01 648.10 1001.03 758.39 1200.41 775.32
00006389 00000087 855.56 177.43 532.61 772.75 988.85 471.85 1245.29 489.75 1104.71 648.03 1003.66 761.47 1202.35 777.00
00006390 00000088 856.90 176.58 531.37 774.74 990.09 472.80 1246.49 491.75 1105.76 648.65 1002.91 761.50 1204.11 777.80
00006391 00000089 856.32 184.85 531.67 767.39 989.65 474.34 1246.14 491.82 1106.78 650.53 1004.32 763.86 1205.75 778.95
00006392 00000090 851.76 181.23 531.21 769.62 990.88 474.99 1249.39 488.41 1111.05 648.28 1002.99 762.53 1210.98 774.42
00006393 00000091 853.01 172.91 536.28 776.53 995.49 469.14 1251.47 486.93 1110.43 644.50 1008.46 756.90 1205.86 771.45
00006394 00000092 854.62 174.12 535.54 776.43 998.53 469.34 1253.25 483.64 1116.60 640.86 1009.01 755.58 1213.13 768.18
00006395 00000093 857.23 168.79 534.24 778.58 1001.32 469.42 1256.99 485.30 1118.90 641.63 1009.59 752.29 1216.36 766.00
00006396 00000094 856.86 170.89 537.76 773.14 1000.71 469.07 1259.99 484.62 1122.25 642.65 1009.93 750.23 1221.74 763.50
00006397 00000095 858.95 173.21 536.11 763.05 1001.34 469.24 1261.20 485.68 1123.87 644.03 1009.72 746.42 1223.11 760.39
00006398 00000096 859.48 172.77 538.70 762.64 1003.13 466.89 1263.14 484.58 1126.11 643.85 1011.22 744.76 1224.97 759.69
00006399 00000097 859.58 173.75 538.27 759.88 1003.34 467.07 1263.75 485.50 1125.93 643.66 1010.99 744.18 1224.75 759.68
00006400 00000098 859.32 172.11 536.17 762.18 1002.47 466.98 1263.46 486.97 1124.06 643.47 1007.71 743.16 1222.92 760.02
00006401 00000099 858.69 170.32 536.51 764.07 1000.76 465.73 1262.03 485.37 1121.99 642.58 1007.79 743.27 1222.46 759.90
00006402 00000100 857.70 171.80 538.97 766.87 1000.81 465.49 1260.84 484.60 1120.63 640.11 1008.90 744.51 1218.89 760.85
00006403 00000101 855.94 170.95 539.93 771.64 1000.22 465.42 1258.51 486.00 1117.48 641.18 1006.85 746.26 1214.65 763.98
00006404 00000102 854.86 172.03 538.03 771.56 998.28 464.43 1255.27 485.57 1113.38 640.97 1002.85 745.78 1210.49 764.12
00006405 00000103 854.60 173.82 535.36 767.27 996.62 466.30 1251.00 488.46 1109.23 640.92 1000.90 745.61 1205.46 764.93
00006406 00000104 854.43 181.28 533.07 757.67 992.29 469.15 1241.73 489.60 1102.53 641.10 1000.28 748.00 1194.91 766.29
00006407 00000105 854.80 183.22 531.19 753.35 986.76 464.75 1236.68 490.78 1090.68 639.17 990.60 744.11 1183.08 767.28
00006408 00000106 853.15 183.56 528.24 750.99 979.86 459.53 1227.60 485.91 1078.39 630.37 982.17 742.11 1170.11 766.02
00006409 00000107 856.43 178.00 527.34 752.36 981.22 455.12 1226.11 480.54 1075.29 624.79 984.03 739.18 1166.18 762.38
00006410 00000108 861.70 174.25 525.55 749.66 987.20 448.16 1231.70 473.54 1081.82 621.20 991.68 730.96 1175.90 754.08
00006411 00000109 865.36 171.63 530.34 750.32 994.39 441.88 1245.62 467.46 1095.41 617.30 1001.17 729.03 1189.66 751.69
00006412 00000110 867.82 164.02 536.27 757.20 1002.06 433.58 1254.51 460.91 1106.39 611.68 1004.75 719.16 1205.12 742.50
00006413 00000111 873.50 156.47 532.91 761.63 1010.18 429.04 1255.55 456.98 1111.34 603.61 1010.93 714.19 1203.62 738.36
00006414 00000112 871.19 157.27 538.81 762.88 1009.88 424.09 1256.45 453.73 1110.43 600.93 1008.47 714.45 1198.76 740.06
00006415 00000113 870.27 158.26 538.58 759.58 1004.80 423.45 1252.45 453.88 1103.39 601.01 1005.24 714.28 1193.48 740.94
00006416 00000114 866.85 158.48 536.52 760.52 998.47 425.25 1247.96 459.60 1093.88 606.12 996.88 712.60 1189.26 742.66
00006417 00000115 866.59 164.12 533.06 756.00 991.72 429.33 1246.10 463.45 1086.95 610.31 987.37 716.55 1185.86 746.44
00006418 00000116 870.05 169.62 529.19 746.37 988.49 439.98 1240.48 470.78 1082.01 615.22 985.82 723.64 1180.99 750.87
00006419 00000117 868.13 175.24 531.86 745.31 988.89 450.15 1237.18 479.62 1079.50 620.11 988.61 727.51 1180.07 753.56
00006420 00000118 865.88 178.45 534.23 740.55 988.09 453.54 1236.53 483.13 1080.29 624.80 989.58 725.92 1185.46 751.76
00006421 00000119 865.39 178.47 533.76 739.51 989.50 453.46 1236.96 484.90 1081.30 627.89 990.02 723.58 1186.50 750.86
00006422 00000120 863.93 182.25 534.96 737.37 988.15 455.05 1236.32 486.83 1080.33 629.99 988.82 724.49 1185.22 752.00
00006423 00000121 865.30 182.70 532.16 741.45 986.77 456.83 1235.52 489.36 1077.74 632.27 985.74 728.69 1181.40 757.03
00006424 00000122 863.13 180.95 530.52 742.87 981.87 458.49 1231.87 489.91 1074.11 633.33 981.87 730.82 1177.42 758.30
00006425 00000123 860.09 184.89 528.89 741.71 976.82 461.65 1229.57 491.76 1072.44 635.91 976.79 733.37 1178.03 759.65
00006426 00000124 857.70 182.99 528.68 746.66 973.70 464.12 1226.39 491.46 1069.95 637.26 975.47 736.49 1176.89 760.43
00006427 00000125 857.45 185.59 523.17 744.03 970.53 466.64 1221.05 494.64 1063.48 639.28 972.37 737.59 1170.46 762.19
00006428 00000126 855.74 178.91 522.70 751.09 967.51 472.03 1215.24 499.32 1056.74 639.65 968.81 739.03 1165.71 763.20
00006429 00000127 851.15 179.65 524.72 748.93 962.83 474.39 1210.02 501.97 1052.07 643.51 964.60 740.33 1162.51 764.64
CROP_BBOX: 471 0 1708 1080
