Video ID: 	v071fzsJp4Y
H: 	1080
W: 	1920
FPS: 	23.976023976023978

FRAME INDEX X0 Y0 W H [Landmarks (5 Points)]

00000492 00000000 942.44 72.77 550.87 755.91 1032.53 328.90 1264.16 431.54 1051.74 576.78 1000.49 616.00 1179.81 701.78
00000493 00000001 943.36 78.62 548.33 749.56 1033.74 328.67 1262.93 430.96 1050.99 575.90 1000.75 614.93 1179.31 700.44
00000494 DELETE   943.57 79.82 547.13 748.92 1034.23 330.70 1263.75 432.59 1052.97 577.59 1002.10 615.26 1181.59 700.28
00000495 DELETE   940.51 82.52 548.75 748.83 1031.07 330.77 1260.55 436.66 1048.21 582.40 999.52 615.99 1178.22 703.91
00000496 00000004 939.35 88.60 550.13 743.46 1030.64 332.77 1259.61 439.92 1045.62 585.10 999.14 616.62 1177.74 705.52
00000497 00000005 939.37 79.42 550.61 753.41 1030.27 331.01 1260.23 436.05 1047.07 582.41 998.13 616.77 1177.12 704.06
00000498 00000006 940.53 75.18 549.06 757.82 1030.88 328.11 1261.88 430.85 1049.54 577.90 998.64 615.49 1182.00 700.90
00000499 00000007 940.94 72.72 545.62 761.38 1032.76 326.46 1262.22 428.88 1049.30 575.33 998.03 615.43 1181.10 700.60
00000500 00000008 939.50 79.02 549.36 750.43 1032.22 328.38 1262.59 430.71 1049.86 576.55 997.98 615.18 1179.07 700.37
00000501 00000009 937.86 79.59 549.28 756.46 1029.82 332.99 1261.31 432.47 1050.00 580.36 997.58 622.08 1178.89 704.88
00000502 DELETE   935.14 84.90 550.59 752.67 1028.25 334.97 1258.45 439.98 1045.15 583.02 994.38 619.46 1175.55 706.55
00000503 00000011 932.88 86.36 547.93 752.51 1026.45 338.95 1253.95 441.74 1042.89 586.70 995.54 622.71 1170.96 708.01
00000504 DELETE   932.66 88.64 548.79 749.37 1026.86 338.89 1252.64 443.59 1038.96 586.59 994.76 622.61 1170.36 709.09
00000505 00000013 931.32 87.34 550.91 750.48 1027.01 338.73 1253.33 442.22 1041.35 584.75 995.02 622.08 1170.89 707.73
00000506 DELETE   929.90 85.20 547.73 754.88 1026.75 338.33 1253.42 443.41 1042.01 586.01 993.15 622.19 1170.30 708.73
00000507 00000015 930.13 92.81 544.59 750.83 1025.71 342.47 1248.00 444.15 1038.02 586.94 994.08 625.77 1167.23 709.62
00000508 DELETE   925.50 94.97 549.26 751.11 1016.96 343.32 1242.59 454.20 1022.82 590.33 982.49 628.17 1160.56 719.10
00000509 DELETE   925.49 103.97 545.47 739.89 1012.78 347.70 1238.86 458.12 1021.23 595.70 981.78 628.67 1160.67 719.13
00000510 00000018 927.54 105.91 543.84 737.40 1014.25 350.96 1236.02 462.26 1017.06 597.92 980.75 630.50 1158.21 721.27
00000511 00000019 927.54 102.12 544.27 743.36 1016.37 352.96 1235.78 465.72 1015.94 597.44 978.58 630.79 1156.64 722.65
00000512 00000020 928.81 116.87 538.36 739.13 1023.15 359.84 1238.60 467.82 1030.22 599.15 989.62 632.80 1162.77 720.26
00000513 00000021 929.43 115.76 537.84 741.77 1021.68 362.24 1236.61 468.33 1028.43 601.29 990.35 636.36 1161.98 722.24
00000514 00000022 926.08 120.16 537.66 740.52 1021.16 363.93 1231.02 472.05 1024.19 602.49 989.32 637.24 1157.11 724.35
00000515 00000023 925.21 108.33 536.67 749.79 1005.55 360.87 1229.44 467.93 1012.45 599.31 973.93 638.44 1146.76 728.59
00000516 00000024 917.65 112.62 536.26 749.16 1000.34 362.23 1223.58 471.21 1007.22 599.57 966.81 639.52 1140.82 731.14
00000517 00000025 907.03 113.95 543.54 752.32 995.15 362.17 1221.29 471.60 1004.69 600.41 962.03 641.08 1138.15 733.13
00000518 00000026 901.33 118.63 542.88 746.56 991.64 363.77 1216.14 472.31 1002.64 599.45 959.49 639.96 1133.59 731.38
00000519 00000027 894.95 120.30 545.91 747.36 986.45 367.02 1209.86 472.28 999.62 602.42 957.06 645.62 1128.50 734.57
00000520 00000028 893.92 114.67 545.11 755.65 982.09 370.43 1206.22 471.16 999.07 605.58 954.61 651.41 1127.08 736.77
00000521 00000029 890.01 117.33 548.29 752.28 979.05 368.54 1205.62 471.86 996.28 605.78 949.44 648.53 1125.30 736.00
00000522 00000030 888.24 119.32 546.06 751.84 978.99 367.53 1203.89 471.40 995.93 605.67 948.44 646.93 1124.11 734.78
00000523 00000031 886.72 121.91 545.13 749.16 977.82 367.32 1203.66 471.99 995.42 606.09 946.96 647.11 1125.20 735.62
00000524 00000032 886.93 118.17 547.69 752.85 977.06 367.97 1202.13 471.46 992.97 606.66 947.37 648.48 1125.27 735.99
00000525 00000033 887.10 119.08 546.45 751.46 976.90 367.36 1201.74 471.78 992.33 605.97 946.83 647.56 1125.12 735.79
00000526 00000034 885.69 121.75 548.03 747.73 976.70 368.30 1201.02 472.00 992.68 605.79 947.69 648.62 1124.19 736.26
00000527 00000035 885.42 122.08 546.75 746.89 976.23 366.84 1199.55 470.77 991.45 605.34 947.37 647.05 1121.92 734.85
00000528 00000036 885.73 118.53 549.35 752.51 976.31 366.65 1199.30 470.59 990.30 605.24 947.15 647.60 1121.05 735.43
00000529 00000037 884.54 116.35 551.48 754.82 976.24 365.14 1199.81 471.36 988.38 604.66 945.22 645.10 1121.13 734.80
00000530 00000038 884.35 118.55 550.98 751.53 974.59 366.78 1198.12 471.24 987.61 605.79 945.33 647.03 1120.64 735.24
00000531 00000039 884.28 119.52 551.44 751.54 974.76 366.97 1196.76 471.19 986.84 605.51 945.61 648.33 1118.78 736.30
00000532 00000040 885.19 118.11 547.76 752.92 976.14 365.89 1197.26 470.99 988.45 604.40 945.86 646.80 1118.46 735.45
00000533 00000041 885.57 115.71 546.10 755.24 977.84 362.21 1199.14 468.62 990.76 602.29 946.56 642.61 1118.93 732.51
00000534 00000042 887.61 114.92 548.45 753.87 978.19 359.18 1198.90 466.58 989.32 601.09 949.09 640.67 1119.49 731.35
00000535 00000043 889.01 106.08 547.53 763.94 979.86 359.00 1203.33 464.61 993.59 600.80 950.03 640.48 1122.99 729.82
00000536 00000044 891.34 108.71 547.31 763.34 981.43 359.10 1206.08 464.58 995.04 600.75 952.68 639.57 1126.99 728.77
00000537 00000045 892.67 103.62 547.93 767.27 982.75 357.86 1208.92 463.79 996.56 602.54 955.26 638.75 1131.72 728.12
00000538 00000046 895.72 103.89 547.32 765.35 983.62 356.93 1211.16 463.15 997.49 601.78 956.67 638.19 1134.24 727.67
00000539 00000047 896.59 105.69 548.88 760.73 984.09 356.32 1213.19 462.52 998.55 600.17 956.95 637.41 1135.59 727.01
00000540 00000048 899.78 108.20 548.43 758.73 987.43 355.52 1216.55 461.79 998.54 599.03 962.27 636.93 1139.39 726.53
00000541 00000049 901.83 107.05 550.96 755.29 991.40 351.02 1221.46 461.86 1001.15 597.60 962.33 630.76 1141.48 723.82
00000542 00000050 905.02 105.03 549.38 754.37 996.16 350.15 1224.77 461.97 1004.39 593.79 964.18 628.74 1142.12 722.55
00000543 00000051 911.78 104.01 546.73 751.75 999.91 349.90 1225.84 459.68 1005.48 593.00 970.51 632.07 1142.25 724.18
00000544 00000052 916.68 104.73 546.79 750.73 1004.59 349.25 1229.10 458.89 1009.57 591.05 974.94 633.00 1144.92 725.10
00000545 00000053 915.22 107.28 544.20 747.36 1006.13 352.21 1224.33 463.87 1011.25 600.28 976.91 634.11 1150.79 724.79
00000546 00000054 917.37 108.80 546.17 744.21 1009.12 352.05 1231.04 464.30 1015.61 601.69 978.37 634.11 1154.73 725.58
00000547 00000055 920.34 109.70 547.25 744.47 1013.34 350.29 1236.80 463.89 1020.62 600.64 980.57 632.27 1158.78 724.77
00000548 00000056 924.21 107.56 553.52 743.29 1018.46 349.76 1245.34 464.83 1025.65 599.46 983.84 631.23 1164.81 725.20
00000549 00000057 927.76 107.06 554.51 743.67 1020.59 349.34 1247.98 463.53 1027.32 598.92 986.67 631.24 1169.48 724.55
00000550 00000058 929.32 105.58 560.23 744.49 1022.79 350.12 1252.04 462.76 1029.50 598.07 989.63 632.28 1173.20 724.42
00000551 00000059 933.41 104.63 562.03 748.10 1030.98 346.80 1266.58 457.71 1051.69 598.73 1001.80 632.12 1181.35 725.38
00000552 00000060 935.53 103.39 560.49 750.16 1032.05 349.32 1266.38 459.13 1052.22 599.67 1002.81 633.66 1183.45 726.02
00000553 00000061 936.63 105.48 563.80 753.00 1035.29 351.60 1268.49 460.21 1055.67 601.26 1005.39 636.43 1184.88 727.88
00000554 00000062 938.92 105.00 564.17 753.01 1036.75 351.64 1268.74 459.97 1056.16 602.19 1008.94 638.05 1187.54 729.18
00000555 00000063 942.24 101.71 563.67 757.20 1038.08 353.00 1270.80 461.17 1057.71 602.44 1009.55 638.39 1188.80 729.50
00000556 00000064 943.85 102.87 560.07 756.34 1039.92 354.67 1271.67 463.44 1059.38 603.96 1011.15 638.08 1190.10 729.64
00000557 00000065 945.34 102.31 560.52 757.57 1042.68 357.33 1272.54 466.09 1060.78 604.50 1013.70 636.94 1192.40 728.40
00000558 00000066 947.29 100.14 558.50 759.40 1042.81 357.29 1272.13 467.37 1059.71 604.82 1013.43 636.02 1193.59 728.31
00000559 00000067 947.02 99.25 557.94 761.56 1043.02 356.56 1272.84 467.55 1060.15 606.35 1012.86 635.42 1193.74 728.51
00000560 00000068 945.84 96.33 561.64 767.02 1043.80 356.92 1274.31 467.21 1061.65 606.48 1012.96 636.23 1195.48 728.83
00000561 00000069 946.83 97.58 560.36 767.25 1044.62 358.53 1274.37 468.21 1062.15 606.94 1013.21 637.28 1194.87 729.52
00000562 00000070 947.51 99.48 557.80 766.81 1046.61 365.36 1268.32 478.57 1058.33 606.97 1011.69 634.39 1193.03 728.63
00000563 00000071 946.96 100.85 557.03 765.85 1046.62 365.86 1267.20 476.95 1058.51 606.60 1012.22 636.62 1190.83 729.34
00000564 00000072 941.80 102.65 559.82 764.59 1043.40 363.84 1267.39 473.80 1060.10 606.62 1009.42 636.25 1190.72 728.15
00000565 00000073 939.74 102.20 559.76 763.95 1041.03 364.88 1265.27 474.22 1056.67 607.06 1007.39 637.22 1188.83 728.53
00000566 00000074 939.66 106.76 560.10 759.63 1039.78 362.47 1264.93 471.06 1056.03 607.97 1008.38 637.04 1190.31 727.75
00000567 00000075 939.65 104.68 559.30 760.55 1039.22 362.32 1264.99 470.09 1056.16 608.50 1008.65 637.31 1190.56 727.38
00000568 00000076 939.37 104.46 560.31 760.71 1039.13 362.01 1265.67 469.57 1056.70 608.76 1008.58 636.76 1190.88 726.68
00000569 00000077 936.83 105.54 561.00 758.95 1038.64 361.73 1265.70 469.44 1057.94 608.13 1007.63 636.68 1189.17 726.81
00000570 00000078 935.10 104.76 562.44 760.22 1038.47 361.77 1265.49 469.31 1058.34 608.29 1007.40 636.70 1188.95 726.69
00000571 00000079 935.02 103.15 564.18 761.46 1038.08 360.70 1266.35 469.16 1057.94 608.09 1006.96 635.65 1189.54 726.39
00000572 00000080 935.25 101.93 562.96 761.15 1036.42 355.94 1265.08 465.69 1054.89 606.66 1006.23 633.79 1188.29 725.57
00000573 00000081 935.12 101.23 564.71 761.86 1036.77 354.87 1266.80 464.28 1055.76 605.61 1006.65 633.96 1189.03 725.51
00000574 00000082 936.21 101.69 563.52 760.31 1036.87 355.58 1267.15 464.52 1055.90 605.31 1006.96 635.04 1188.65 726.36
00000575 00000083 936.19 102.37 562.65 760.63 1036.68 355.26 1266.13 463.76 1055.09 605.12 1007.44 635.30 1188.10 726.25
00000576 00000084 935.55 103.20 564.78 759.57 1036.81 356.44 1267.44 464.71 1055.98 605.91 1007.39 635.91 1188.73 726.76
00000577 00000085 935.46 102.98 566.33 758.89 1036.95 356.53 1267.18 464.81 1055.64 605.76 1007.94 636.13 1188.97 726.89
00000578 00000086 935.08 104.90 567.04 758.72 1036.29 354.63 1267.98 462.72 1055.78 604.82 1007.76 636.84 1189.07 727.56
00000579 00000087 935.23 100.05 569.28 763.32 1036.85 351.70 1269.07 460.41 1055.37 603.81 1008.80 635.14 1190.94 726.22
00000580 00000088 936.60 102.11 567.61 760.10 1037.39 351.86 1269.63 460.17 1055.92 602.50 1008.97 634.89 1191.04 725.78
00000581 00000089 937.54 103.44 567.32 757.58 1038.06 350.11 1270.73 459.40 1055.75 601.48 1008.93 632.55 1191.75 724.24
00000582 00000090 937.43 104.66 565.56 755.00 1038.08 350.33 1270.76 458.58 1056.67 600.98 1008.59 632.75 1191.42 723.70
00000583 00000091 939.26 103.91 564.71 756.14 1038.79 350.57 1270.58 458.78 1056.92 600.97 1009.79 634.00 1191.74 724.91
00000584 00000092 937.95 100.90 567.15 759.13 1039.30 352.12 1273.04 460.84 1059.26 602.25 1009.20 633.64 1194.81 724.84
00000585 00000093 940.26 96.61 569.82 763.33 1040.83 355.51 1273.60 462.98 1059.11 604.44 1012.09 637.04 1195.70 727.25
00000586 00000094 941.81 97.03 568.04 763.86 1042.83 354.55 1275.03 461.97 1061.61 603.42 1014.11 636.36 1196.28 726.69
00000587 00000095 942.21 95.38 569.43 764.45 1042.37 354.96 1275.36 461.16 1061.64 603.01 1014.69 637.30 1197.46 726.59
00000588 00000096 944.54 97.76 568.15 762.62 1043.70 357.12 1274.83 462.02 1061.94 603.70 1017.36 639.11 1197.93 727.32
00000589 00000097 944.34 98.34 565.54 761.62 1043.62 357.88 1274.86 463.62 1062.69 602.38 1014.54 638.30 1195.47 727.48
00000590 00000098 943.08 103.21 563.58 758.22 1045.86 364.78 1272.08 474.51 1061.61 602.57 1010.88 637.63 1193.16 729.39
00000591 00000099 943.69 105.46 562.23 758.22 1046.05 366.84 1271.39 474.36 1062.27 603.10 1011.47 640.85 1192.00 730.97
00000592 00000100 943.59 106.54 561.20 757.38 1046.21 368.29 1271.34 475.42 1063.57 604.80 1012.07 641.33 1192.44 731.03
00000593 00000101 944.43 106.25 560.81 758.24 1046.54 370.55 1269.65 477.25 1062.89 603.18 1011.51 640.67 1192.66 729.89
00000594 00000102 943.68 109.64 559.31 753.81 1047.12 372.23 1268.83 478.96 1063.84 602.82 1012.01 639.30 1192.40 728.45
00000595 00000103 943.99 107.12 559.57 755.49 1046.89 371.55 1267.87 479.89 1061.88 603.06 1011.12 638.33 1191.29 728.55
00000596 00000104 944.78 108.13 560.59 758.62 1047.48 373.79 1267.32 480.34 1062.10 604.37 1014.35 640.95 1193.52 729.62
00000597 00000105 945.07 108.93 558.74 757.76 1047.09 374.94 1267.40 480.16 1062.81 605.72 1014.62 642.84 1193.25 730.46
00000598 00000106 944.76 107.83 560.22 760.96 1047.29 374.79 1268.29 481.32 1062.85 606.99 1014.63 642.66 1193.75 731.38
00000599 00000107 945.42 110.05 560.68 757.89 1048.61 376.05 1269.16 482.77 1063.97 607.43 1015.25 642.12 1194.34 731.07
00000600 00000108 945.87 112.35 560.57 755.30 1048.27 376.74 1268.02 483.22 1063.12 607.15 1015.77 643.30 1193.78 732.05
00000601 00000109 945.04 111.14 563.20 756.47 1048.05 376.59 1268.98 483.58 1062.95 607.53 1014.85 643.34 1193.78 732.59
00000602 00000110 944.83 108.70 559.85 759.81 1047.78 375.38 1269.90 482.46 1064.45 607.64 1013.50 642.74 1194.23 732.16
00000603 00000111 944.98 108.69 557.59 759.01 1048.33 375.43 1269.48 481.79 1064.96 607.28 1014.55 642.21 1194.21 730.97
00000604 00000112 944.88 108.31 552.41 753.11 1049.19 373.10 1269.94 481.05 1066.07 604.14 1013.17 636.41 1192.55 726.35
00000605 00000113 943.00 110.24 558.21 752.07 1047.93 370.46 1271.06 477.92 1065.26 602.59 1012.27 637.48 1191.60 727.43
00000606 00000114 946.63 114.90 557.70 750.00 1048.68 372.64 1270.68 479.27 1064.03 602.78 1013.44 641.61 1190.59 731.09
00000607 00000115 943.29 109.81 558.47 754.52 1049.25 368.16 1272.27 477.97 1066.24 603.34 1010.61 641.89 1185.60 734.42
00000608 00000116 944.97 114.68 552.92 747.76 1049.20 367.05 1272.25 474.07 1067.50 605.27 1013.89 643.13 1186.69 733.68
00000609 00000117 945.04 116.98 552.75 750.34 1049.24 368.27 1273.66 472.65 1069.57 604.68 1014.26 645.18 1189.55 733.71
00000610 00000118 946.54 115.80 552.05 752.57 1050.54 367.02 1276.04 472.74 1071.06 605.18 1015.86 641.26 1193.54 730.71
00000611 00000119 948.60 113.45 549.91 751.24 1050.83 366.31 1278.82 470.91 1073.83 604.90 1016.98 638.51 1198.53 726.91
00000612 00000120 949.76 113.49 551.78 748.31 1050.25 366.10 1280.47 470.88 1073.53 604.91 1017.48 637.58 1201.16 726.05
00000613 00000121 950.06 112.89 551.67 745.62 1049.37 365.81 1280.55 468.98 1073.45 606.39 1019.91 637.88 1203.07 724.91
00000614 00000122 950.65 110.45 552.24 748.37 1049.85 362.90 1280.46 467.41 1072.17 603.84 1020.66 637.58 1200.80 725.68
00000615 00000123 949.11 104.75 555.00 753.02 1050.20 360.72 1283.15 462.39 1074.19 603.48 1021.23 636.64 1202.90 722.54
00000616 00000124 949.84 102.57 552.57 753.68 1050.92 358.19 1284.56 462.20 1074.54 602.80 1021.28 633.60 1204.97 721.44
00000617 00000125 950.96 104.70 552.03 751.18 1053.97 363.01 1283.97 464.17 1077.60 604.23 1024.20 634.92 1205.13 720.29
00000618 00000126 951.88 111.48 554.37 744.01 1056.04 371.02 1282.74 475.93 1076.39 602.27 1022.28 633.36 1203.42 721.43
00000619 00000127 953.29 109.83 555.13 746.97 1057.08 370.55 1282.95 474.89 1076.11 603.68 1025.73 633.48 1206.59 720.98
00000620 00000128 959.80 111.62 549.70 744.07 1059.40 363.78 1287.27 464.49 1079.31 604.23 1032.49 636.14 1211.00 720.90
00000621 00000129 960.97 114.25 547.80 739.79 1061.80 358.85 1291.14 461.57 1079.73 600.88 1034.42 631.27 1213.54 717.72
00000622 00000130 960.19 115.95 546.56 740.40 1057.47 357.84 1291.12 459.39 1074.01 599.44 1031.73 639.29 1219.31 723.77
00000623 00000131 963.15 107.01 548.69 746.34 1058.20 354.21 1293.66 452.77 1078.81 594.88 1035.97 637.65 1222.65 719.92
00000624 00000132 967.48 107.53 549.30 736.66 1065.35 348.31 1296.25 448.32 1084.67 590.84 1042.94 625.40 1220.12 709.83
00000625 00000133 966.92 101.44 554.35 741.75 1065.86 346.52 1297.64 446.53 1085.19 588.44 1042.63 623.34 1222.94 707.68
00000626 00000134 967.66 101.26 549.63 745.12 1061.30 348.31 1289.44 451.63 1078.44 591.30 1037.15 631.77 1217.16 716.45
00000627 00000135 968.00 100.51 552.47 746.11 1063.38 347.58 1292.37 452.15 1081.23 591.20 1037.78 629.04 1221.93 714.64
00000628 00000136 969.58 99.05 551.72 746.73 1066.30 347.11 1294.60 450.82 1084.13 589.15 1039.20 629.08 1221.49 714.10
00000629 00000137 970.52 93.30 549.56 755.81 1065.58 347.65 1302.86 440.79 1092.34 588.67 1043.37 633.59 1232.66 712.01
00000630 00000138 970.48 99.07 550.13 749.16 1065.20 349.44 1303.39 441.02 1093.34 591.06 1044.97 635.84 1233.66 713.02
00000631 00000139 968.77 101.17 550.99 748.05 1064.06 348.38 1302.33 440.59 1091.78 591.29 1043.71 635.58 1232.42 713.20
00000632 00000140 966.55 103.16 554.83 745.48 1060.96 349.43 1300.94 440.80 1089.41 592.74 1042.88 637.07 1231.82 713.86
00000633 00000141 966.38 108.50 552.49 740.25 1059.79 350.42 1298.29 440.98 1087.49 592.95 1042.56 638.03 1228.87 714.09
00000634 00000142 965.43 110.56 552.38 738.12 1058.74 351.14 1297.50 441.24 1086.72 592.42 1041.52 637.31 1228.22 712.94
00000635 00000143 966.42 104.71 552.76 736.92 1060.70 349.74 1296.32 443.62 1086.08 591.07 1043.85 628.96 1222.84 708.64
00000636 00000144 966.50 104.89 553.96 737.16 1058.99 351.40 1294.94 445.20 1083.45 594.27 1043.70 631.65 1222.40 711.14
00000637 00000145 965.65 105.32 554.44 738.55 1058.43 352.31 1293.61 445.48 1082.93 594.58 1042.79 632.88 1220.87 711.75
00000638 00000146 962.47 106.37 557.69 746.73 1053.67 352.69 1294.34 442.86 1080.48 595.58 1037.63 643.12 1224.67 718.88
00000639 00000147 964.97 106.67 553.48 737.96 1057.60 352.36 1292.33 445.15 1082.71 594.74 1041.45 633.97 1218.98 712.62
00000640 00000148 962.53 107.01 556.49 747.94 1052.70 354.09 1292.86 440.67 1080.09 595.25 1037.43 644.96 1225.98 717.79
00000641 00000149 962.99 106.76 555.20 747.43 1053.20 354.06 1292.71 440.13 1080.61 594.58 1037.95 645.40 1224.58 717.88
00000642 00000150 963.73 106.91 557.34 741.39 1057.94 353.31 1291.59 443.92 1081.97 592.56 1042.09 634.48 1219.13 711.32
00000643 00000151 964.03 106.92 555.76 740.94 1057.74 353.52 1291.73 444.05 1082.20 593.46 1042.04 634.48 1219.53 711.20
00000644 00000152 964.35 106.77 554.18 740.35 1058.10 353.26 1291.29 444.35 1082.02 593.96 1041.99 635.13 1218.80 712.42
00000645 00000153 965.61 108.66 555.17 738.97 1058.30 353.33 1292.93 444.70 1082.28 593.35 1042.23 635.56 1220.24 712.99
00000646 00000154 965.96 107.08 554.72 740.62 1059.60 352.68 1294.04 445.34 1083.07 592.97 1042.30 634.37 1220.31 712.84
00000647 00000155 963.62 107.78 552.23 747.23 1054.51 353.98 1294.11 441.49 1082.38 594.96 1037.29 645.23 1224.39 718.96
00000648 00000156 964.53 107.22 550.28 747.68 1055.36 355.40 1292.70 442.26 1082.66 595.10 1038.13 645.84 1223.64 719.04
00000649 00000157 967.26 109.11 546.12 746.81 1058.00 361.17 1295.98 454.42 1084.61 598.19 1037.96 643.85 1226.74 722.01
00000650 00000158 971.16 107.85 545.69 740.76 1064.28 358.23 1298.61 455.98 1087.96 597.15 1041.99 632.77 1224.57 715.37
00000651 00000159 970.91 106.33 546.29 742.47 1065.26 358.38 1299.15 456.11 1089.41 595.85 1041.83 633.11 1224.83 715.75
00000652 00000160 969.76 111.12 543.81 743.77 1062.72 363.02 1299.27 456.05 1089.71 598.97 1041.18 642.55 1230.30 720.65
00000653 00000161 971.48 111.20 540.88 743.86 1064.40 362.99 1299.12 457.25 1090.45 598.00 1041.56 641.02 1230.70 720.07
00000654 00000162 973.13 110.80 539.29 745.50 1065.00 362.31 1300.48 458.39 1089.69 598.84 1041.25 639.33 1233.49 719.73
00000655 00000163 973.50 109.76 540.37 745.21 1065.50 363.31 1301.42 457.41 1091.99 598.74 1042.72 641.04 1233.94 719.86
00000656 00000164 975.24 110.39 537.74 744.92 1066.51 364.35 1300.56 458.64 1091.62 598.32 1045.02 641.91 1234.11 720.78
