Video ID: 	iLug4UXHjcc
H: 	2160
W: 	3840
FPS: 	23.976023976023978

FRAME INDEX X0 Y0 W H [Landmarks (5 Points)]

00010579 00000000 1770.82 253.12 1046.94 1386.14 1870.22 862.21 2250.56 827.72 1930.99 1096.92 1949.04 1328.20 2278.31 1296.45
00010580 00000001 1762.77 265.77 1050.65 1372.41 1855.55 857.82 2265.89 822.19 1931.64 1103.88 1939.41 1340.68 2286.34 1309.01
00010581 00000002 1776.03 254.27 1040.46 1386.03 1871.18 865.88 2254.47 828.09 1934.24 1099.09 1950.03 1337.10 2276.21 1303.26
00010582 00000003 1776.54 254.12 1036.22 1385.02 1871.15 864.96 2256.88 829.37 1938.99 1102.31 1949.21 1336.90 2275.69 1305.35
00010583 00000004 1769.67 267.00 1038.60 1379.00 1858.71 856.75 2271.74 823.19 1937.45 1106.62 1938.48 1348.43 2281.91 1319.15
00010584 00000005 1779.27 255.42 1034.81 1386.11 1872.06 858.47 2258.65 826.19 1938.31 1100.73 1946.12 1342.50 2267.07 1314.63
00010585 00000006 1772.14 259.60 1037.38 1369.24 1859.57 848.04 2275.77 817.37 1941.82 1102.62 1938.77 1346.20 2276.66 1319.76
00010586 00000007 1772.45 265.55 1037.77 1367.10 1858.93 852.89 2276.23 823.79 1941.44 1109.89 1939.02 1352.31 2277.73 1326.76
00010587 00000008 1771.06 271.36 1041.43 1372.14 1864.20 866.09 2280.03 837.07 1945.41 1117.63 1949.28 1362.61 2282.05 1336.34
00010588 00000009 1770.37 280.05 1030.92 1369.83 1871.42 884.04 2281.93 862.46 1942.83 1126.78 1964.85 1362.61 2286.88 1341.88
00010589 00000010 1774.33 267.59 1046.10 1386.89 1881.62 885.74 2303.24 859.99 1963.67 1127.49 1978.18 1364.96 2308.27 1340.25
00010590 00000011 1782.07 270.69 1050.01 1387.25 1894.07 882.04 2322.04 852.07 1990.31 1136.90 1996.89 1365.56 2335.82 1336.36
00010591 00000012 1794.39 282.78 1049.40 1372.43 1913.74 888.98 2352.74 846.89 2042.63 1139.05 2012.82 1371.93 2371.73 1334.35
00010592 00000013 1787.86 288.77 1059.31 1349.47 1922.11 900.90 2373.39 850.91 2079.32 1148.12 2025.62 1368.75 2402.58 1324.95
00010593 DELETE   1787.24 265.98 1061.02 1394.51 1928.03 933.73 2388.88 864.89 2107.31 1184.16 2051.33 1398.52 2433.38 1338.28
00010594 DELETE   1773.64 281.55 1049.52 1420.72 1929.66 991.28 2367.13 897.41 2113.35 1223.70 2073.23 1449.07 2434.48 1368.03
00010595 00000016 1754.65 315.24 1073.24 1451.69 1930.25 1016.29 2363.18 920.13 2124.85 1269.72 2092.56 1487.01 2450.68 1402.41
00010596 00000017 1741.28 331.23 1091.67 1464.77 1941.74 1010.11 2371.07 905.29 2145.20 1243.94 2103.74 1478.42 2463.56 1385.91
00010597 00000018 1746.13 334.14 1086.24 1435.01 1934.84 1009.94 2376.49 897.01 2141.09 1236.37 2088.58 1459.82 2487.70 1358.77
00010598 00000019 1749.72 319.01 1086.75 1434.70 1938.11 986.29 2385.51 874.85 2147.69 1218.00 2091.85 1440.16 2496.22 1340.80
00010599 00000020 1756.76 318.21 1087.66 1440.39 1940.72 973.45 2396.75 865.86 2152.76 1211.93 2096.02 1439.77 2507.43 1343.46
00010600 00000021 1766.63 303.43 1091.10 1471.80 1951.97 966.50 2413.34 865.94 2162.08 1209.00 2098.92 1445.25 2517.06 1355.19
00010601 00000022 1778.70 268.66 1086.77 1483.48 1976.70 955.39 2436.43 856.24 2187.51 1185.74 2119.89 1437.57 2507.32 1351.46
00010602 00000023 1810.71 266.46 1074.12 1465.56 1999.78 941.70 2457.90 852.29 2203.12 1187.29 2133.97 1426.92 2514.07 1349.12
00010603 00000024 1834.16 275.91 1064.26 1450.44 2020.45 932.86 2474.18 848.79 2220.74 1176.70 2157.19 1429.38 2520.12 1357.29
00010604 00000025 1849.73 279.67 1059.32 1448.48 2026.96 916.65 2476.34 852.30 2220.71 1187.04 2156.23 1429.53 2511.54 1373.51
00010605 00000026 1858.98 283.75 1049.77 1446.90 2033.23 923.38 2472.71 872.16 2209.64 1176.52 2138.52 1415.78 2504.46 1370.58
00010606 00000027 1869.76 284.46 1035.63 1414.52 2030.25 919.84 2460.14 881.50 2186.38 1169.06 2117.54 1393.89 2484.59 1359.58
00010607 00000028 1871.20 286.37 1030.32 1399.15 2017.04 902.05 2461.18 874.92 2157.81 1170.51 2095.27 1376.06 2474.49 1349.53
00010608 00000029 1872.06 284.88 1034.45 1391.53 2012.46 899.62 2445.63 876.29 2152.62 1169.55 2090.29 1376.19 2455.46 1354.43
00010609 00000030 1876.70 281.18 1040.11 1396.79 2014.98 889.57 2446.11 871.13 2146.43 1165.03 2090.33 1374.12 2448.29 1356.70
00010610 00000031 1890.59 276.07 1036.57 1410.98 2024.17 880.83 2451.66 867.21 2144.68 1157.50 2096.13 1371.34 2449.20 1358.51
00010611 00000032 1896.33 277.38 1041.97 1421.77 2037.75 882.02 2471.85 867.19 2166.90 1144.05 2109.83 1362.31 2463.65 1349.64
00010612 00000033 1918.58 255.61 1031.72 1446.69 2046.24 870.79 2473.42 861.29 2154.47 1136.79 2101.81 1351.09 2472.35 1341.31
00010613 00000034 1925.71 251.42 1033.93 1445.61 2054.36 861.12 2481.05 853.41 2163.26 1131.23 2108.42 1335.90 2489.45 1326.76
00010614 00000035 1929.96 262.75 1033.61 1432.82 2057.77 852.14 2491.77 845.18 2175.60 1127.00 2112.74 1326.52 2504.10 1318.24
00010615 00000036 1929.72 263.70 1039.12 1412.25 2064.85 847.82 2503.86 843.82 2188.27 1125.76 2126.01 1324.96 2517.28 1319.41
00010616 00000037 1930.84 269.38 1041.16 1400.88 2067.22 845.94 2509.76 841.21 2193.70 1121.83 2127.37 1322.99 2519.30 1317.33
00010617 00000038 1935.95 268.94 1040.12 1395.27 2071.47 843.91 2519.11 836.98 2205.55 1116.63 2129.53 1321.29 2525.26 1314.56
00010618 00000039 1939.94 269.18 1045.09 1388.61 2072.89 845.96 2528.16 836.49 2212.67 1116.31 2134.76 1329.22 2529.09 1320.74
00010619 00000040 1944.50 265.99 1041.53 1393.46 2078.82 848.46 2533.82 840.19 2221.79 1119.74 2142.19 1335.31 2528.30 1328.31
00010620 00000041 1939.55 258.87 1045.95 1401.11 2081.44 851.86 2542.20 844.64 2226.93 1136.46 2159.03 1333.07 2543.79 1322.37
00010621 00000042 1943.23 265.32 1043.55 1396.45 2084.86 849.46 2545.75 846.84 2231.07 1138.62 2161.06 1333.27 2545.44 1326.26
00010622 00000043 1946.47 271.72 1038.64 1384.57 2089.26 850.94 2552.92 848.31 2236.56 1142.18 2165.42 1338.54 2545.24 1331.54
00010623 00000044 1947.65 279.04 1038.41 1365.97 2092.47 851.45 2561.67 849.96 2245.74 1146.30 2170.20 1342.35 2547.16 1335.89
00010624 00000045 1950.33 275.15 1036.94 1366.58 2095.36 849.97 2565.16 850.51 2249.83 1148.08 2168.67 1344.40 2545.89 1339.97
00010625 00000046 1957.16 272.25 1033.97 1374.37 2101.79 848.42 2570.04 851.85 2254.99 1148.70 2170.58 1343.57 2550.02 1341.50
00010626 00000047 1960.53 276.22 1034.04 1377.60 2107.32 846.21 2576.47 852.57 2260.19 1147.43 2172.35 1346.68 2552.26 1347.12
00010627 00000048 1964.08 282.16 1032.59 1371.89 2110.65 844.63 2581.18 851.77 2263.61 1146.03 2172.86 1347.16 2554.37 1348.26
00010628 00000049 1965.62 270.93 1034.25 1384.41 2113.94 846.35 2582.60 849.68 2266.96 1147.71 2179.00 1352.03 2559.28 1349.73
00010629 00000050 1966.90 273.84 1035.55 1380.48 2116.79 847.32 2586.09 848.48 2271.05 1144.20 2182.56 1356.40 2559.32 1352.56
00010630 00000051 1967.73 268.93 1039.30 1388.14 2118.93 847.62 2586.25 846.43 2272.49 1141.07 2183.73 1355.17 2563.34 1349.24
00010631 00000052 1972.40 267.85 1038.57 1387.02 2123.57 845.49 2588.13 845.33 2275.71 1136.73 2187.70 1352.22 2563.77 1347.76
00010632 00000053 1974.87 258.31 1038.04 1389.26 2126.91 842.03 2589.98 842.70 2277.35 1132.70 2191.36 1350.70 2562.50 1346.91
00010633 00000054 1981.19 256.33 1030.97 1438.40 2130.62 843.89 2575.88 842.61 2266.16 1114.53 2182.63 1358.95 2548.15 1358.99
00010634 00000055 1984.74 265.88 1034.95 1449.16 2131.83 845.59 2577.28 840.40 2273.09 1122.47 2192.27 1364.31 2564.54 1361.47
00010635 00000056 1990.25 252.85 1030.64 1432.35 2138.41 843.51 2577.68 840.20 2271.29 1116.74 2194.37 1356.81 2552.20 1355.21
00010636 00000057 1996.65 275.35 1015.07 1377.93 2142.06 848.58 2586.43 858.46 2285.17 1130.83 2190.84 1338.97 2562.61 1348.22
00010637 00000058 2003.58 265.17 1018.08 1391.29 2152.74 863.47 2601.01 869.05 2292.08 1142.79 2206.75 1346.46 2582.21 1347.65
00010638 00000059 1999.31 263.30 1022.61 1415.32 2156.71 869.02 2595.58 876.41 2294.09 1148.46 2208.41 1356.75 2576.07 1362.72
00010639 00000060 1998.22 261.80 1029.28 1445.24 2157.74 866.81 2601.51 871.14 2292.81 1142.67 2204.06 1357.16 2588.44 1360.11
00010640 00000061 1996.54 252.14 1038.69 1446.48 2155.25 849.22 2593.22 849.11 2286.90 1125.66 2201.86 1338.43 2593.24 1337.04
00010641 00000062 1997.42 254.52 1045.87 1427.56 2155.54 833.88 2594.99 828.00 2285.45 1101.80 2199.31 1317.51 2600.96 1310.88
00010642 00000063 1997.60 254.63 1044.61 1424.59 2156.18 827.57 2593.34 821.21 2287.92 1100.04 2201.30 1309.50 2604.77 1302.51
00010643 00000064 1995.42 259.61 1047.13 1418.24 2153.97 832.00 2599.59 824.94 2293.32 1109.26 2198.34 1309.48 2614.68 1301.23
00010644 00000065 1995.58 273.10 1042.15 1405.76 2152.35 836.47 2600.40 826.69 2299.13 1118.19 2198.11 1306.94 2624.93 1295.95
00010645 00000066 1991.64 271.87 1042.29 1398.07 2150.20 836.34 2601.37 823.16 2304.36 1116.88 2196.84 1304.66 2625.37 1291.18
00010646 00000067 1988.88 270.76 1042.34 1387.09 2150.38 830.59 2601.22 820.15 2307.06 1109.37 2196.49 1299.90 2615.75 1289.92
00010647 00000068 1987.75 263.44 1043.89 1401.23 2151.26 824.34 2602.54 820.32 2304.72 1114.39 2199.42 1306.45 2606.07 1302.56
00010648 00000069 1987.38 262.15 1039.50 1415.12 2149.79 827.20 2595.70 824.07 2299.84 1120.69 2207.70 1329.48 2587.34 1327.47
00010649 00000070 1986.14 262.32 1035.14 1399.76 2145.56 829.54 2593.02 823.33 2301.28 1123.88 2209.00 1336.84 2579.03 1332.71
00010650 00000071 1987.12 259.12 1032.54 1385.73 2142.32 829.05 2595.90 820.40 2304.70 1124.66 2205.01 1334.48 2580.07 1328.62
00010651 00000072 1990.11 256.58 1030.81 1387.99 2144.44 828.70 2596.74 822.79 2305.19 1125.56 2208.96 1335.31 2581.15 1331.56
00010652 00000073 1994.21 263.33 1034.74 1382.91 2153.04 832.92 2615.05 830.48 2313.84 1130.56 2218.29 1338.99 2600.26 1332.75
00010653 00000074 2002.32 278.80 1024.18 1375.01 2154.72 849.57 2610.76 846.61 2309.07 1132.75 2215.12 1341.63 2599.12 1335.90
00010654 00000075 1996.53 264.30 1025.92 1391.77 2150.16 869.24 2601.94 861.84 2296.50 1144.08 2208.73 1349.61 2593.99 1339.14
00010655 00000076 1988.99 269.07 1035.07 1437.98 2145.36 895.09 2596.22 890.00 2285.61 1170.28 2201.64 1377.85 2587.82 1369.69
00010656 00000077 1971.52 286.85 1047.97 1445.31 2131.84 930.38 2580.98 920.61 2283.88 1202.47 2192.78 1402.88 2586.62 1392.78
00010657 00000078 1960.81 315.70 1046.34 1416.97 2116.73 934.65 2568.49 939.82 2267.49 1226.48 2176.22 1404.47 2570.34 1405.45
00010658 00000079 1952.83 320.65 1039.12 1404.34 2097.12 935.33 2555.27 936.03 2251.36 1219.00 2162.51 1398.81 2557.15 1396.66
00010659 00000080 1944.56 314.97 1023.14 1377.01 2070.48 922.05 2530.64 910.79 2230.35 1200.91 2143.77 1383.03 2544.32 1371.06
00010660 00000081 1934.52 280.96 1025.40 1405.23 2058.28 893.09 2513.26 884.53 2203.75 1172.84 2116.83 1367.48 2512.17 1359.14
00010661 00000082 1916.10 275.33 1033.27 1401.89 2043.29 879.00 2496.06 873.64 2186.23 1159.33 2103.94 1358.87 2489.11 1353.53
00010662 00000083 1905.86 271.71 1031.14 1414.41 2032.36 887.44 2480.98 878.31 2172.31 1173.32 2095.57 1367.64 2481.80 1358.31
00010663 00000084 1890.57 295.11 1039.03 1412.82 2022.97 900.01 2457.19 892.47 2153.57 1194.02 2093.24 1380.83 2471.81 1371.98
00010664 00000085 1876.18 323.71 1042.63 1407.34 2017.17 914.17 2455.91 899.39 2157.94 1192.64 2087.12 1391.90 2457.23 1379.18
00010665 00000086 1874.72 318.81 1040.67 1419.12 2015.61 912.99 2450.26 899.55 2152.98 1189.97 2081.72 1399.01 2444.93 1388.66
00010666 00000087 1872.76 327.60 1033.60 1416.97 2012.40 919.90 2440.64 905.04 2148.94 1196.66 2075.51 1402.19 2441.03 1390.94
00010667 00000088 1870.93 346.09 1038.76 1415.85 2012.12 923.53 2439.17 909.76 2145.15 1203.77 2073.21 1401.19 2453.87 1389.39
00010668 00000089 1878.24 343.96 1049.46 1444.59 2016.24 916.30 2439.50 901.56 2135.57 1200.39 2076.69 1395.48 2480.65 1379.40
00010669 00000090 1887.26 317.94 1058.38 1454.49 2023.86 908.65 2446.32 892.16 2138.04 1188.25 2089.53 1380.49 2493.73 1362.33
00010670 00000091 1903.81 312.61 1050.60 1444.20 2041.05 900.48 2458.45 889.32 2149.03 1171.15 2101.60 1360.99 2499.42 1347.56
00010671 00000092 1922.43 276.03 1044.72 1461.01 2055.25 897.44 2485.71 886.45 2166.36 1168.17 2121.15 1354.14 2536.00 1338.58
00010672 00000093 1938.95 275.60 1048.72 1452.52 2070.99 881.73 2515.14 870.62 2197.84 1159.76 2129.27 1337.93 2568.79 1321.94
00010673 00000094 1962.23 270.84 1040.40 1446.27 2092.67 870.05 2535.35 863.70 2220.70 1152.50 2143.63 1324.10 2583.37 1312.77
00010674 00000095 1978.52 253.71 1049.88 1455.89 2111.95 858.71 2554.95 857.09 2236.59 1134.00 2151.15 1308.48 2599.60 1301.74
00010675 00000096 2000.16 250.19 1043.85 1436.13 2133.47 846.82 2570.42 840.36 2257.86 1118.24 2171.52 1303.14 2609.80 1293.20
00010676 00000097 2023.16 239.29 1036.18 1419.83 2154.43 833.40 2580.03 826.78 2270.73 1099.40 2188.47 1280.94 2613.44 1271.69
00010677 00000098 2040.96 208.54 1036.34 1415.02 2172.83 809.22 2603.66 805.72 2304.41 1079.66 2212.92 1260.78 2623.84 1254.98
00010678 00000099 2058.14 180.89 1041.22 1425.51 2191.62 791.48 2633.83 789.58 2314.07 1060.13 2237.16 1250.11 2650.23 1243.63
00010679 00000100 2062.59 168.03 1035.44 1399.40 2189.48 777.56 2640.60 762.30 2323.62 1033.41 2251.95 1232.24 2668.41 1213.69
00010680 DELETE   2072.42 130.61 1034.23 1418.01 2200.22 745.61 2639.81 732.96 2320.25 997.61 2249.09 1201.85 2654.91 1187.56
00010681 00000102 2069.84 119.32 1029.73 1411.92 2198.22 712.97 2630.39 698.39 2314.35 961.37 2245.34 1170.67 2647.10 1155.60
00010682 00000103 2069.03 116.10 1033.14 1410.19 2196.88 704.00 2625.56 686.66 2312.70 949.46 2244.55 1160.91 2648.01 1143.43
00010683 00000104 2073.34 118.32 1029.70 1407.45 2202.30 709.98 2633.18 691.99 2321.88 954.77 2252.83 1170.82 2645.16 1153.50
00010684 00000105 2080.19 119.37 1030.02 1428.66 2209.41 731.05 2635.54 713.61 2321.34 978.30 2262.85 1198.04 2639.62 1180.90
00010685 00000106 2087.38 144.80 1030.09 1414.99 2218.98 740.35 2663.16 733.99 2348.43 1010.19 2283.08 1229.66 2660.14 1223.01
00010686 00000107 2094.70 168.14 1025.86 1399.74 2226.79 753.88 2670.02 753.39 2356.23 1025.59 2290.01 1242.33 2659.63 1241.24
00010687 00000108 2100.41 173.61 1023.83 1396.63 2228.49 756.29 2668.87 757.78 2352.60 1029.02 2290.59 1249.39 2648.96 1250.94
00010688 00000109 2096.91 173.38 1022.93 1414.04 2229.79 755.43 2667.53 757.62 2349.83 1028.15 2290.55 1260.37 2637.59 1263.33
00010689 00000110 2090.42 177.58 1026.30 1412.71 2226.30 756.42 2663.24 759.04 2344.18 1029.00 2288.58 1264.81 2630.51 1267.93
00010690 00000111 2082.86 175.54 1027.73 1406.27 2219.92 760.01 2658.13 758.57 2342.32 1029.29 2287.44 1266.68 2625.97 1266.21
00010691 00000112 2078.90 178.40 1031.09 1399.61 2212.72 765.52 2652.94 761.80 2335.82 1033.02 2283.12 1269.65 2621.49 1266.96
00010692 00000113 2079.96 187.47 1018.98 1386.61 2213.33 772.13 2652.51 782.68 2333.20 1040.96 2274.73 1260.29 2622.24 1268.39
00010693 00000114 2075.60 194.52 1023.62 1375.29 2211.62 781.74 2653.89 790.14 2339.77 1045.43 2273.21 1258.81 2629.29 1264.80
00010694 00000115 2070.64 186.67 1032.83 1406.43 2211.56 789.89 2659.48 789.09 2345.52 1046.95 2276.31 1268.97 2642.77 1266.92
00010695 00000116 2059.56 190.19 1043.47 1443.32 2213.58 800.40 2664.36 785.40 2358.10 1052.14 2280.35 1274.14 2677.87 1258.58
00010696 00000117 2061.39 202.72 1034.80 1440.21 2217.99 806.57 2660.39 780.11 2359.22 1052.35 2274.66 1271.60 2676.45 1247.11
00010697 00000118 2050.21 206.65 1029.28 1416.61 2208.72 814.72 2651.82 787.77 2362.14 1065.28 2270.08 1272.10 2664.68 1248.08
00010698 00000119 2034.54 199.94 1030.11 1412.10 2196.08 823.79 2646.84 791.73 2361.28 1078.47 2263.22 1289.88 2653.24 1262.67
00010699 00000120 2018.34 204.83 1035.94 1439.45 2182.23 827.36 2633.31 801.31 2346.00 1100.74 2255.77 1315.17 2642.85 1292.27
00010700 00000121 1997.76 204.72 1046.11 1466.09 2165.84 836.74 2607.94 804.38 2327.65 1119.01 2254.50 1345.40 2622.12 1317.71
00010701 00000122 1991.84 219.50 1048.82 1452.23 2159.12 839.05 2610.52 808.16 2326.31 1134.45 2248.61 1346.92 2627.14 1317.38
00010702 00000123 1978.83 229.41 1057.32 1426.36 2147.22 838.75 2602.73 809.47 2319.42 1137.66 2237.18 1336.09 2621.52 1307.47
00010703 00000124 1972.52 235.75 1057.12 1407.21 2138.40 844.77 2597.44 818.50 2308.25 1140.77 2226.37 1334.01 2619.17 1306.07
00010704 00000125 1973.75 252.29 1044.26 1408.18 2133.10 865.26 2587.15 836.63 2296.27 1143.86 2221.94 1353.72 2602.74 1324.76
00010705 00000126 1972.18 250.26 1045.05 1414.66 2133.35 874.54 2582.55 847.10 2290.20 1152.34 2217.06 1351.93 2604.33 1323.83
00010706 00000127 1992.94 241.33 1034.07 1425.46 2143.97 862.73 2582.65 841.43 2299.65 1151.29 2216.86 1339.82 2600.53 1320.73
00010707 00000128 2012.32 239.90 1034.38 1439.97 2161.58 859.50 2592.69 846.26 2308.40 1155.15 2230.30 1340.54 2607.23 1328.13
00010708 00000129 2043.29 245.19 1028.98 1456.50 2184.93 874.32 2626.65 862.16 2326.30 1157.34 2246.42 1363.05 2623.74 1352.20
00010709 00000130 2052.40 231.98 1047.64 1457.03 2203.00 865.62 2657.72 855.59 2342.73 1161.92 2284.76 1361.74 2661.39 1349.17
00010710 00000131 2061.88 241.06 1047.20 1427.56 2214.24 852.45 2675.43 851.30 2360.58 1151.02 2291.39 1341.92 2674.93 1336.19
00010711 00000132 2066.63 257.22 1044.59 1412.41 2214.67 845.88 2675.06 844.60 2361.19 1142.63 2289.73 1333.23 2674.22 1328.09
00010712 00000133 2063.70 256.23 1042.64 1411.94 2208.38 845.44 2669.31 845.04 2351.65 1142.18 2283.20 1332.41 2666.49 1327.94
00010713 00000134 2070.59 261.39 1026.02 1436.47 2203.56 852.67 2642.42 850.33 2335.21 1140.33 2258.72 1342.04 2637.72 1339.58
00010714 00000135 2063.50 246.83 1022.56 1479.73 2196.92 863.96 2625.28 859.94 2315.86 1146.87 2251.45 1364.55 2621.53 1360.10
00010715 00000136 2037.37 238.58 1029.30 1452.45 2172.52 866.87 2618.22 862.42 2307.12 1152.68 2230.26 1362.92 2604.25 1358.60
00010716 DELETE   2016.61 243.82 1030.78 1417.31 2165.65 859.75 2608.34 854.50 2299.81 1145.28 2224.14 1336.32 2610.66 1326.84
00010717 DELETE   1988.46 225.06 1050.29 1419.00 2146.86 865.88 2586.20 835.50 2293.65 1119.34 2219.78 1327.16 2601.98 1296.55
CROP_BBOX: 1256 0 3608 2131
