Video ID: 	BQIuTs2QZUU
H: 	1080
W: 	1920
FPS: 	29.97002997002997

FRAME INDEX X0 Y0 W H [Landmarks (5 Points)]

00004069 00000000 707.40 149.36 542.94 743.94 812.95 445.98 1072.11 390.14 952.29 551.87 877.43 694.24 1123.01 647.24
00004070 DELETE   706.40 146.69 553.74 741.62 822.65 439.52 1086.91 381.75 968.58 544.38 891.06 690.13 1137.32 637.85
00004071 00000002 711.97 144.93 550.15 729.30 831.16 434.96 1097.87 375.79 985.35 539.34 901.10 686.77 1147.15 633.49
00004072 00000003 722.85 135.09 542.81 732.00 843.91 434.00 1109.25 382.23 996.85 532.33 899.51 677.19 1154.76 632.16
00004073 00000004 728.43 135.36 539.30 731.51 850.80 429.13 1115.43 381.14 1003.22 528.37 903.31 673.74 1157.94 632.14
00004074 00000005 728.89 131.99 537.79 740.75 853.72 425.48 1115.90 378.14 1007.89 528.10 907.17 674.63 1159.73 633.60
00004075 00000006 723.80 127.75 545.30 756.55 860.49 421.41 1117.64 373.72 1014.66 529.54 910.41 681.99 1152.62 636.66
00004076 00000007 724.88 128.69 544.68 762.09 862.69 422.43 1117.89 376.41 1015.59 533.66 913.86 685.82 1152.25 642.07
00004077 00000008 725.52 131.86 543.52 769.11 863.28 423.56 1119.06 377.65 1017.53 537.87 913.96 691.39 1154.32 647.83
00004078 00000009 734.06 138.12 541.00 766.24 863.68 424.52 1122.68 384.42 1015.51 537.28 918.75 692.11 1163.49 657.60
00004079 00000010 731.75 128.30 538.40 773.88 869.81 422.37 1126.19 380.80 1024.46 538.18 921.78 696.51 1156.49 657.01
00004080 00000011 741.51 140.02 533.05 750.49 871.54 420.32 1129.74 384.00 1023.21 534.94 927.37 688.33 1162.88 657.85
00004081 00000012 742.71 139.97 530.22 741.32 874.39 418.33 1130.24 382.89 1025.78 531.67 933.00 684.26 1161.59 654.69
00004082 00000013 743.09 138.63 530.44 742.23 876.16 417.47 1131.60 381.23 1028.89 527.65 934.18 681.16 1164.26 650.78
00004083 00000014 736.78 127.22 536.84 762.02 878.72 415.74 1133.37 377.06 1032.94 525.35 933.59 687.35 1160.10 650.64
00004084 00000015 735.77 126.57 537.50 766.98 878.84 415.41 1132.66 379.60 1030.24 531.71 933.69 690.35 1153.31 656.19
00004085 00000016 736.79 128.27 536.65 762.94 877.90 417.48 1133.51 380.66 1030.18 538.24 933.17 690.89 1155.85 656.00
00004086 00000017 741.83 141.84 535.97 746.88 872.81 422.70 1132.09 392.34 1023.00 547.79 928.97 689.04 1160.48 663.11
00004087 00000018 742.16 148.65 533.72 747.01 875.70 428.23 1133.09 397.54 1027.00 555.53 931.70 694.98 1163.11 668.54
00004088 00000019 740.30 148.84 534.76 754.71 881.03 433.76 1138.07 401.95 1039.54 562.06 939.43 702.27 1171.92 674.48
00004089 00000020 739.52 149.38 537.28 756.65 886.12 440.81 1145.84 406.65 1051.81 573.20 946.53 709.14 1181.19 679.35
00004090 00000021 743.68 149.74 534.71 752.48 896.67 446.79 1153.47 408.13 1069.25 571.60 958.95 709.37 1192.60 675.75
00004091 00000022 744.60 152.38 537.14 749.24 902.50 447.28 1157.66 406.22 1078.81 571.69 967.62 708.09 1199.66 672.46
00004092 00000023 742.94 152.73 539.53 749.86 903.17 446.38 1159.12 406.08 1080.49 572.17 966.65 706.82 1200.35 671.74
00004093 00000024 739.62 152.19 539.68 750.10 900.22 445.09 1157.27 406.07 1077.39 570.74 961.22 705.54 1197.74 671.35
00004094 00000025 733.31 145.61 541.18 759.63 892.04 442.87 1153.30 406.15 1068.08 570.57 948.75 705.34 1192.00 673.05
00004095 00000026 729.55 141.51 540.20 762.52 882.21 440.87 1146.62 405.26 1054.34 572.15 934.42 702.63 1183.81 671.50
00004096 00000027 724.74 136.28 539.53 765.93 874.12 437.80 1140.66 404.54 1043.10 571.38 922.02 699.69 1173.16 670.37
00004097 00000028 721.18 138.69 539.47 759.31 866.69 434.07 1131.14 402.55 1030.86 570.97 913.90 695.27 1163.66 667.09
00004098 00000029 716.84 139.90 540.64 754.73 860.64 430.07 1125.49 400.19 1023.10 569.54 904.77 688.75 1159.19 661.75
00004099 00000030 709.45 149.23 548.01 740.17 853.23 426.02 1123.44 391.62 1019.89 566.12 907.55 688.87 1147.37 656.95
00004100 00000031 707.53 148.48 549.01 739.45 852.17 424.90 1123.42 389.55 1021.36 564.50 908.04 689.06 1147.94 656.30
00004101 00000032 708.27 148.85 547.69 740.04 853.54 426.48 1124.22 390.05 1023.69 566.07 911.06 691.55 1149.67 657.87
00004102 00000033 707.70 147.83 548.22 741.07 854.32 428.90 1123.87 391.70 1024.99 568.20 912.70 692.75 1149.98 658.52
00004103 00000034 707.00 146.65 548.30 747.41 853.05 432.25 1121.95 393.97 1024.16 570.20 913.01 697.66 1149.79 662.42
00004104 00000035 704.22 146.66 550.23 752.01 850.14 432.06 1118.07 393.75 1020.40 570.15 911.40 699.97 1145.48 664.71
00004105 00000036 702.37 148.14 550.19 755.07 847.23 433.87 1115.67 396.16 1017.67 571.43 906.93 700.74 1145.93 665.63
00004106 00000037 702.61 149.12 550.16 756.55 846.51 434.22 1114.47 395.44 1015.83 570.95 905.28 701.95 1146.67 666.05
00004107 00000038 703.21 148.37 550.33 757.19 847.36 434.93 1115.16 396.20 1016.56 571.47 906.06 702.32 1147.48 666.58
00004108 00000039 704.70 149.74 550.23 757.94 849.89 435.91 1118.02 397.19 1019.12 572.39 907.55 702.56 1150.19 666.96
00004109 00000040 714.01 146.90 541.54 764.65 859.93 436.88 1122.98 402.69 1025.73 572.09 908.98 700.28 1161.65 669.57
00004110 00000041 714.92 147.25 541.92 772.23 862.25 436.99 1124.20 403.09 1028.29 572.28 909.94 702.02 1163.52 671.57
00004111 00000042 715.33 149.37 542.13 774.39 863.59 437.92 1125.63 404.11 1030.21 573.09 910.67 704.40 1164.73 673.90
00004112 00000043 716.83 149.84 540.51 773.77 865.16 438.53 1126.92 405.04 1031.72 572.76 912.22 704.74 1165.24 674.47
00004113 00000044 718.93 150.14 540.42 774.04 866.94 438.79 1128.68 404.32 1033.83 572.28 914.40 704.28 1168.64 673.25
00004114 00000045 720.54 147.21 539.09 774.61 869.12 436.59 1128.77 402.33 1035.76 570.03 917.76 703.23 1169.45 672.53
00004115 00000046 723.46 145.90 536.58 766.23 870.74 435.77 1131.24 401.41 1038.68 570.42 919.71 700.69 1170.70 670.05
00004116 00000047 725.16 146.05 536.16 764.62 872.55 434.64 1132.98 401.38 1040.07 568.92 920.05 698.40 1172.17 668.67
00004117 00000048 725.61 146.95 535.31 763.94 872.98 433.46 1133.20 400.61 1040.85 568.24 920.24 698.56 1171.98 669.23
00004118 00000049 725.40 145.87 534.38 769.06 872.42 431.36 1130.79 400.25 1037.98 566.35 916.55 697.05 1169.03 669.16
00004119 00000050 724.03 147.10 534.25 766.05 869.60 429.16 1127.60 397.89 1034.01 563.27 912.77 693.34 1166.99 665.20
00004120 00000051 721.61 148.32 535.73 760.10 865.55 427.58 1125.20 395.80 1029.26 560.57 909.40 689.76 1165.27 661.22
00004121 00000052 719.17 147.20 535.94 756.88 862.22 425.68 1121.79 394.69 1023.48 557.24 905.07 686.91 1160.38 659.19
00004122 00000053 711.11 154.40 542.56 748.19 854.97 424.57 1121.11 387.39 1019.62 552.81 904.88 688.81 1151.55 654.17
00004123 00000054 711.00 155.31 542.79 749.22 855.58 423.17 1122.43 386.40 1020.62 550.59 904.88 689.48 1152.70 655.15
00004124 00000055 718.49 145.53 536.94 758.72 865.79 419.67 1123.75 389.60 1027.88 545.29 908.10 684.57 1160.89 657.73
00004125 00000056 718.12 145.77 538.78 757.90 868.70 419.93 1124.48 389.54 1030.95 543.51 911.03 683.09 1162.17 655.88
00004126 00000057 717.45 143.01 537.75 758.74 869.35 419.53 1123.67 388.84 1031.36 540.79 909.75 680.20 1161.38 652.71
00004127 00000058 710.08 150.09 541.08 752.17 859.26 420.00 1121.95 381.64 1024.80 542.74 905.09 683.25 1151.90 647.60
00004128 00000059 706.36 141.97 541.25 754.98 855.03 416.57 1113.57 380.21 1017.66 536.19 898.75 679.92 1140.65 645.96
00004129 00000060 702.54 141.55 539.55 753.84 849.36 414.44 1106.74 379.84 1007.99 533.63 889.45 676.62 1133.42 643.92
00004130 00000061 701.74 143.64 533.40 743.37 841.83 414.47 1098.75 382.84 995.84 535.61 883.05 674.19 1125.03 643.90
00004131 00000062 698.93 146.95 530.51 730.01 835.24 415.30 1094.58 383.81 989.03 536.68 879.69 671.78 1122.30 641.38
00004132 00000063 694.66 149.16 531.27 726.99 832.34 417.52 1091.89 384.85 987.11 539.25 877.84 672.07 1121.73 640.47
00004133 00000064 694.78 146.12 528.90 722.50 830.18 418.79 1090.91 390.04 985.51 538.71 873.13 666.69 1123.00 641.44
00004134 00000065 692.41 146.66 528.10 725.56 829.96 421.59 1090.20 391.28 987.89 539.66 874.60 669.67 1124.50 643.18
00004135 00000066 689.50 152.36 529.56 738.35 834.62 422.13 1088.78 385.57 994.28 539.24 880.98 678.96 1123.04 643.64
00004136 00000067 687.54 152.30 531.58 743.63 834.70 421.57 1087.90 385.40 994.63 539.67 882.59 680.63 1122.59 645.60
00004137 00000068 687.62 153.52 529.52 739.30 834.09 423.16 1086.16 385.86 994.10 539.85 883.01 680.44 1122.82 644.42
00004138 00000069 688.23 155.72 527.27 733.56 833.99 422.54 1086.94 387.00 993.59 540.48 882.47 680.06 1121.77 645.54
00004139 00000070 688.71 156.92 526.14 730.39 834.60 422.36 1087.42 387.87 993.84 540.52 882.53 680.05 1120.69 646.48
00004140 00000071 688.58 157.23 526.33 734.79 835.05 422.92 1087.15 388.00 994.49 541.66 882.67 681.12 1121.02 647.30
00004141 00000072 689.82 159.89 526.06 732.15 837.81 422.35 1090.29 388.90 999.01 541.85 885.24 683.50 1121.00 651.16
00004142 00000073 690.97 160.00 523.53 730.22 840.18 423.32 1094.81 392.86 1003.10 544.38 892.21 688.95 1119.61 659.19
00004143 00000074 692.97 160.14 518.96 722.54 847.10 427.37 1098.30 398.36 1012.82 549.78 907.16 690.01 1120.69 661.53
00004144 00000075 693.42 159.60 523.77 722.20 851.70 430.16 1105.94 400.77 1021.27 554.33 915.18 694.51 1127.96 665.82
00004145 00000076 696.93 158.45 525.58 726.72 857.86 433.16 1112.24 403.49 1029.56 556.51 918.77 698.48 1134.42 669.83
00004146 00000077 699.51 161.61 527.50 728.56 862.41 433.51 1117.01 403.59 1035.71 558.04 917.25 699.81 1137.47 671.24
00004147 00000078 699.62 162.51 529.73 728.55 864.53 433.02 1119.90 401.20 1039.68 557.36 915.44 697.50 1141.98 667.51
00004148 00000079 700.04 161.60 528.55 728.23 866.06 433.86 1121.25 403.73 1041.40 557.80 914.31 695.85 1142.97 667.29
00004149 00000080 699.43 164.58 527.21 732.74 867.71 433.94 1121.51 405.25 1044.71 561.19 915.47 699.63 1144.55 672.41
00004150 00000081 701.30 167.10 528.13 730.52 874.97 437.20 1127.25 410.12 1053.12 566.63 920.55 700.18 1147.94 675.12
00004151 00000082 705.52 165.93 527.65 725.45 896.96 437.16 1142.60 413.96 1075.59 566.31 939.13 700.95 1153.88 679.55
00004152 DELETE   722.80 163.21 513.03 724.80 913.82 441.67 1151.51 416.86 1098.30 556.63 962.48 696.29 1176.21 673.83
00004153 00000084 732.17 165.11 516.61 728.31 935.14 439.56 1167.68 420.43 1124.64 559.44 981.99 700.92 1188.79 683.19
00004154 00000085 730.39 168.55 521.89 727.03 950.25 433.92 1180.56 415.32 1140.58 568.44 986.48 706.69 1193.31 689.06
00004155 00000086 735.35 171.54 520.94 722.04 955.55 433.58 1186.10 416.14 1145.63 567.98 990.16 704.97 1197.98 688.48
00004156 00000087 736.58 175.59 521.11 716.06 956.07 433.93 1186.73 415.78 1144.99 569.42 990.67 704.12 1198.01 687.14
00004157 00000088 734.91 175.79 523.53 715.71 954.11 435.08 1186.72 417.71 1143.06 572.48 987.50 704.24 1196.68 687.81
00004158 00000089 734.90 175.69 524.67 716.65 951.01 435.01 1185.77 417.35 1140.19 573.95 983.83 704.36 1196.07 687.75
00004159 00000090 734.74 174.67 525.72 720.62 950.12 435.57 1185.08 416.77 1139.46 573.50 983.29 705.62 1196.40 688.05
00004160 00000091 735.48 177.79 522.16 720.79 951.73 435.72 1183.02 418.01 1139.26 573.03 984.75 706.18 1196.14 689.39
00004161 00000092 736.40 180.16 521.88 720.65 949.34 444.32 1182.68 423.75 1138.03 575.65 985.92 712.45 1197.11 693.42
00004162 00000093 739.46 177.57 516.53 720.79 941.53 457.47 1176.90 436.47 1131.50 575.97 982.10 710.94 1192.56 692.68
00004163 00000094 736.99 175.24 512.39 717.12 938.43 460.08 1174.13 439.57 1125.73 576.71 980.44 708.54 1189.35 690.23
00004164 00000095 734.72 174.03 512.75 721.07 934.46 463.06 1172.67 439.05 1122.31 579.88 977.02 708.97 1191.13 687.40
00004165 00000096 730.12 167.88 512.21 732.97 926.79 463.48 1167.36 439.29 1112.29 580.78 968.39 714.12 1181.73 692.55
00004166 00000097 725.33 166.25 512.24 748.95 918.46 461.19 1159.89 441.53 1099.19 580.15 955.37 716.73 1171.70 698.68
00004167 00000098 718.33 170.36 515.58 753.52 910.01 464.60 1152.61 444.58 1088.63 581.65 946.25 719.17 1167.17 700.17
00004168 00000099 716.00 170.45 516.64 752.80 904.27 466.18 1147.26 446.59 1077.92 582.43 939.13 718.81 1161.52 700.00
00004169 00000100 707.82 178.02 534.44 736.82 893.66 466.98 1142.26 442.89 1065.67 590.57 937.06 719.97 1151.24 696.71
00004170 00000101 707.74 177.33 532.29 738.00 887.37 466.79 1136.93 440.88 1058.97 590.84 932.49 722.04 1146.25 697.21
00004171 00000102 707.23 177.67 530.74 735.79 881.95 463.97 1132.70 437.67 1051.69 588.70 928.34 719.74 1141.97 694.52
00004172 00000103 706.60 178.97 531.84 735.44 879.07 461.69 1132.50 436.54 1048.02 587.31 925.05 718.82 1141.53 694.42
00004173 00000104 707.36 179.57 529.89 736.01 877.58 461.31 1131.89 433.22 1048.54 584.83 923.81 718.19 1144.08 691.35
00004174 00000105 708.63 182.03 531.24 734.71 878.73 461.52 1131.53 430.63 1049.69 582.62 923.29 717.90 1145.64 688.84
00004175 00000106 709.45 181.16 531.43 735.59 879.50 461.64 1132.93 429.78 1051.71 582.22 924.86 717.29 1148.08 687.33
00004176 00000107 712.18 183.72 528.99 728.77 880.46 461.42 1134.12 429.57 1052.43 583.07 926.98 715.97 1148.22 686.00
00004177 00000108 712.78 182.81 528.39 726.12 879.03 461.72 1132.31 429.63 1049.56 583.11 927.19 714.49 1147.72 684.26
00004178 00000109 711.12 183.65 529.03 724.13 876.89 462.00 1128.09 431.46 1044.76 582.96 925.11 714.10 1142.31 685.14
00004179 00000110 711.83 181.84 527.99 723.09 873.16 463.58 1124.59 431.57 1039.35 582.91 925.12 715.06 1140.06 684.78
00004180 00000111 711.37 183.32 525.81 721.47 868.64 465.95 1119.31 432.71 1032.26 582.73 921.26 715.56 1136.11 684.13
00004181 00000112 709.30 179.02 528.82 722.49 862.03 462.41 1115.27 433.55 1026.58 580.19 914.81 714.49 1139.15 688.13
00004182 00000113 708.42 181.00 521.33 722.15 857.62 464.54 1108.64 428.12 1018.86 583.47 909.90 714.73 1127.42 680.37
00004183 00000114 700.98 177.79 524.13 722.49 849.28 460.11 1101.48 431.49 1011.91 576.28 904.48 712.85 1126.97 686.22
00004184 00000115 698.49 177.27 520.87 725.66 843.87 458.31 1094.41 427.53 1005.90 572.76 899.57 712.75 1124.84 684.15
00004185 00000116 696.37 177.65 519.93 732.84 839.70 457.61 1089.61 425.89 1000.22 572.34 893.05 714.68 1121.16 685.51
00004186 00000117 697.61 183.60 517.43 735.82 841.12 462.22 1089.52 420.34 998.36 577.65 896.30 722.59 1116.20 683.11
00004187 00000118 697.33 190.63 518.27 730.01 838.13 463.33 1088.52 419.85 996.12 582.19 894.51 723.88 1117.52 683.25
00004188 00000119 692.31 184.35 522.16 727.73 830.52 457.26 1084.77 423.64 990.17 583.20 888.40 717.72 1118.30 686.81
00004189 00000120 691.44 184.95 520.62 721.28 828.05 457.66 1082.49 423.71 987.93 585.33 889.18 718.53 1114.72 687.61
00004190 00000121 690.53 185.44 519.23 718.61 827.65 457.38 1081.14 423.20 986.97 585.97 891.08 719.89 1111.74 689.01
00004191 00000122 696.46 189.57 513.62 722.53 833.10 461.10 1080.57 417.57 986.96 584.26 899.60 724.27 1108.61 683.53
00004192 00000123 694.73 190.03 514.52 730.50 833.06 457.98 1079.81 415.54 986.35 582.19 900.41 727.95 1105.82 688.42
00004193 00000124 693.34 189.74 515.55 738.41 833.87 457.74 1078.88 415.46 986.40 582.71 903.17 732.93 1103.83 693.71
00004194 00000125 690.13 184.10 521.51 741.71 827.47 457.91 1080.17 423.31 986.01 587.72 894.08 736.58 1107.12 706.30
00004195 00000126 693.56 196.57 517.68 739.67 831.86 466.48 1078.55 422.92 984.39 589.73 899.31 738.74 1107.01 697.88
00004196 00000127 695.23 199.83 518.23 734.71 833.01 470.54 1081.16 428.67 986.48 595.57 898.46 738.96 1108.45 699.29
00004197 00000128 695.28 202.30 518.76 732.96 833.40 472.32 1081.69 429.87 987.61 597.85 899.19 738.40 1109.24 698.34
00004198 00000129 695.76 203.01 519.28 733.29 833.64 473.12 1082.65 430.26 988.76 599.14 900.07 739.15 1110.57 698.64
00004199 00000130 696.95 203.40 517.80 730.82 834.08 472.19 1082.59 429.46 988.84 598.69 901.27 737.96 1110.57 697.56
00004200 00000131 697.61 201.57 517.02 729.88 835.23 470.08 1083.08 428.89 988.84 595.94 900.49 735.06 1110.03 696.00
00004201 00000132 698.69 199.51 516.90 728.66 835.78 468.01 1084.17 427.45 988.88 594.06 899.15 732.63 1110.88 694.10
00004202 00000133 698.40 198.26 518.40 728.28 836.56 465.92 1085.03 427.43 988.88 592.68 898.77 729.46 1109.28 692.73
00004203 00000134 698.80 198.23 519.25 728.03 836.91 465.91 1085.59 427.40 989.27 592.61 898.34 728.77 1110.20 692.04
00004204 00000135 699.49 197.89 517.73 727.24 836.25 468.30 1085.82 427.93 989.86 593.97 899.90 730.96 1112.92 692.54
00004205 00000136 698.47 199.24 518.13 729.94 835.45 471.71 1084.05 429.42 989.76 596.66 900.13 735.03 1112.53 694.94
00004206 00000137 697.76 207.09 518.59 726.71 834.12 473.79 1083.17 431.82 988.57 601.51 901.14 740.63 1111.09 700.76
00004207 00000138 697.52 208.43 516.06 726.82 832.97 476.89 1082.86 436.74 988.28 607.55 899.33 744.88 1110.48 706.59
00004208 00000139 696.09 210.55 519.48 718.25 829.11 480.40 1083.07 446.82 988.23 611.60 894.98 745.47 1115.25 716.48
00004209 00000140 696.21 212.49 518.79 715.62 828.39 481.74 1082.66 448.54 986.37 612.43 893.88 745.40 1114.51 716.72
00004210 00000141 696.38 211.87 518.99 714.80 828.14 481.66 1082.45 448.31 985.88 612.73 893.95 745.31 1114.09 716.51
00004211 00000142 696.92 208.41 520.73 718.57 827.69 480.48 1081.97 446.70 984.89 611.32 891.97 742.86 1115.04 713.65
00004212 00000143 696.71 210.45 520.05 724.00 831.95 479.44 1082.39 439.78 986.30 607.94 893.84 742.13 1110.03 704.28
00004213 00000144 696.84 211.86 519.90 725.32 832.30 480.63 1082.65 438.51 988.38 608.64 890.70 741.30 1114.33 701.46
00004214 00000145 698.30 209.04 520.05 720.94 829.30 478.90 1083.68 445.25 987.04 608.81 885.45 737.01 1120.26 707.68
00004215 00000146 699.28 213.58 519.16 713.19 832.21 482.63 1086.04 449.04 989.83 610.09 888.65 737.93 1120.26 708.72
00004216 00000147 700.67 215.68 517.72 709.57 834.64 484.59 1088.61 451.57 992.32 611.64 890.54 738.72 1121.01 709.99
00004217 00000148 700.72 218.64 519.64 706.05 835.59 485.89 1090.14 453.47 993.39 612.92 892.18 739.86 1121.26 711.64
00004218 00000149 701.43 218.49 519.35 707.56 836.40 486.87 1090.91 454.49 994.29 614.27 892.17 740.76 1121.88 712.56
00004219 00000150 700.77 224.71 518.25 709.71 837.20 487.65 1091.47 449.83 996.05 615.67 896.31 744.95 1121.89 708.50
00004220 00000151 700.75 224.18 518.92 716.22 838.18 488.12 1091.42 448.60 998.40 616.84 897.64 746.51 1123.71 708.81
00004221 00000152 700.18 226.34 519.45 718.18 838.73 488.14 1090.57 448.92 998.59 616.43 898.66 748.42 1122.95 710.98
00004222 00000153 700.64 226.45 517.95 715.37 838.04 488.66 1090.95 449.67 997.99 617.09 898.34 747.68 1123.32 710.34
00004223 00000154 700.58 226.26 516.58 713.31 837.33 489.12 1090.58 450.86 996.44 617.08 897.20 746.30 1122.10 709.54
00004224 00000155 701.33 226.77 515.03 710.54 835.40 490.83 1089.19 453.19 993.15 618.33 895.83 746.80 1121.69 710.36
00004225 00000156 702.47 223.07 514.55 706.13 833.64 492.98 1088.59 458.79 991.18 619.13 890.98 744.80 1122.13 715.27
00004226 00000157 701.91 223.09 513.91 704.40 832.49 493.92 1087.13 459.85 989.55 619.14 889.38 744.89 1120.23 715.57
00004227 00000158 700.46 220.99 515.48 707.19 831.56 492.81 1086.59 459.14 988.75 618.30 887.39 743.74 1120.00 714.67
00004228 00000159 699.65 221.22 515.60 705.74 830.30 492.44 1085.26 458.66 987.21 617.42 886.76 743.44 1118.65 714.31
00004229 00000160 698.29 222.44 514.88 703.46 829.06 492.21 1083.59 458.27 986.06 617.31 885.94 742.57 1117.44 713.40
00004230 00000161 697.93 221.11 516.01 707.46 829.08 492.16 1083.72 458.13 986.31 617.53 885.63 743.24 1118.44 714.01
00004231 00000162 698.00 221.67 516.75 709.88 828.97 492.83 1084.05 457.82 986.67 618.26 886.63 745.01 1120.44 714.91
00004232 00000163 697.91 222.07 517.91 710.41 830.58 492.61 1085.78 457.53 989.68 616.94 888.83 744.88 1122.38 714.52
00004233 00000164 698.17 226.55 517.81 712.32 834.36 490.66 1088.74 451.64 993.80 614.95 894.97 747.63 1121.83 710.00
00004234 00000165 700.16 224.14 519.33 714.39 838.35 489.18 1091.77 448.44 1000.10 613.24 898.85 746.81 1125.52 708.01
00004235 00000166 702.43 224.83 520.34 715.12 842.40 489.13 1096.30 448.20 1005.77 612.94 902.36 747.29 1129.10 708.37
