Video ID: 	-FP_-BCTkhQ
H: 	1080
W: 	1920
FPS: 	23.976023976023978

FRAME INDEX X0 Y0 W H [Landmarks (5 Points)]

00001900 00000000 487.73 144.39 392.29 549.05 585.05 375.11 772.96 367.00 677.42 463.77 616.72 562.81 771.90 556.29
00001901 00000001 488.75 148.82 391.69 541.04 584.74 376.88 777.15 370.11 678.03 468.11 611.90 562.55 773.45 557.14
00001902 00000002 487.11 152.64 391.43 535.78 583.12 378.61 776.88 371.11 677.86 470.79 610.98 563.33 773.91 557.24
00001903 00000003 489.14 155.26 389.01 536.67 583.56 379.97 771.72 375.58 678.88 467.55 609.49 569.07 766.42 564.64
00001904 00000004 485.19 159.21 388.77 543.96 582.95 379.03 768.43 375.96 679.43 468.22 610.88 569.64 760.95 566.74
00001905 00000005 482.20 160.88 387.76 544.08 579.05 379.54 765.34 377.34 675.61 469.00 605.76 568.68 759.48 566.57
00001906 00000006 479.97 160.43 387.44 543.15 576.51 382.64 762.40 378.97 672.90 468.40 601.98 566.39 759.37 563.40
00001907 00000007 475.49 152.21 392.14 546.16 572.91 382.02 763.26 374.38 666.88 470.98 598.58 560.59 763.26 554.36
00001908 00000008 475.11 153.22 392.20 541.07 572.75 383.23 764.09 375.40 667.72 471.15 598.08 558.81 764.37 552.27
00001909 00000009 478.02 154.67 388.98 537.70 575.52 391.29 762.85 384.40 666.94 471.24 597.41 557.73 762.70 551.96
00001910 00000010 479.34 153.74 389.29 536.29 577.70 390.29 765.47 383.15 668.37 468.16 598.39 556.71 763.56 550.72
00001911 DELETE   482.22 153.04 387.47 535.92 577.32 388.33 767.43 380.76 668.40 469.40 599.59 557.99 766.45 551.61
00001912 00000012 484.76 152.05 389.44 539.17 580.40 384.65 771.02 380.03 671.65 471.04 600.94 557.78 768.40 553.73
00001913 00000013 490.56 158.93 385.73 541.07 587.29 383.88 769.12 381.97 678.94 468.28 606.78 561.85 767.35 560.08
00001914 00000014 494.05 158.29 387.05 548.73 592.87 380.56 774.75 381.79 683.44 464.85 608.44 560.41 771.02 560.99
00001915 00000015 498.87 160.42 387.69 549.71 599.22 377.16 782.00 380.34 689.89 460.93 611.56 559.19 776.01 561.39
00001916 00000016 503.19 162.23 387.47 551.51 609.05 374.29 790.74 383.51 698.60 458.16 614.26 555.87 781.23 563.09
00001917 00000017 508.37 158.97 386.11 556.12 615.66 370.06 797.00 384.21 704.07 455.71 615.85 553.36 783.60 564.60
00001918 00000018 508.14 159.44 387.80 558.17 618.72 366.89 798.81 385.68 705.24 453.21 614.21 550.71 781.71 566.01
00001919 00000019 504.54 158.17 390.31 562.03 618.78 364.42 800.41 390.77 702.40 456.49 606.63 547.53 776.86 569.11
00001920 00000020 501.33 157.76 390.31 562.86 615.31 358.52 800.55 391.65 694.42 455.64 594.91 548.65 763.84 576.02
00001921 00000021 498.14 154.81 392.57 557.36 608.37 354.90 796.55 389.64 685.90 453.61 588.90 550.77 746.73 579.49
00001922 00000022 495.61 148.15 393.79 544.32 599.64 352.77 786.64 384.18 676.03 456.20 583.28 546.32 736.38 572.02
00001923 00000023 489.58 143.48 394.79 538.94 589.15 355.04 776.11 383.21 663.91 456.25 577.56 543.69 732.80 566.33
00001924 00000024 483.64 147.11 393.29 536.40 582.00 361.65 768.90 385.69 659.00 458.71 574.49 547.43 730.72 566.44
00001925 00000025 473.45 150.98 395.55 542.57 581.50 367.94 769.50 389.82 660.72 470.88 574.64 552.95 732.17 571.92
00001926 00000026 470.57 155.77 396.71 542.11 579.40 374.03 767.42 394.51 660.71 475.55 574.46 557.57 731.18 575.59
00001927 00000027 474.88 165.27 389.54 537.34 577.73 380.19 761.65 400.00 663.47 476.21 575.69 564.62 731.18 580.50
00001928 00000028 474.04 166.21 389.05 541.68 577.12 381.16 761.84 399.44 665.14 477.93 577.13 567.35 732.15 582.28
00001929 00000029 473.21 166.61 389.25 541.16 576.08 382.12 761.62 399.05 665.25 477.64 578.36 567.80 733.81 581.56
00001930 00000030 471.70 165.31 388.60 541.92 574.99 382.36 759.80 398.17 664.93 476.92 578.87 566.88 734.35 579.67
00001931 00000031 471.94 160.23 385.08 536.68 571.05 380.34 757.56 390.28 657.93 479.56 578.15 570.25 734.30 579.89
00001932 00000032 471.59 156.84 385.19 536.69 568.56 379.57 757.99 387.33 657.77 478.46 577.84 569.48 737.08 577.38
00001933 00000033 469.10 158.52 390.20 540.69 573.50 380.23 763.54 388.72 666.04 474.89 578.63 562.68 737.92 569.59
00001934 00000034 470.53 158.32 389.44 536.84 573.43 380.43 761.63 386.73 665.16 472.16 578.40 558.04 739.86 563.00
00001935 00000035 471.13 149.01 385.00 535.06 567.73 375.77 758.30 381.06 660.66 468.37 579.46 560.65 744.42 565.65
00001936 00000036 470.17 146.82 385.63 536.23 567.31 372.53 757.74 378.13 660.58 464.61 578.77 558.59 742.90 563.70
00001937 00000037 469.86 145.90 386.11 540.72 565.94 373.27 756.40 376.72 658.87 463.78 579.65 562.62 741.50 565.92
00001938 00000038 470.21 147.72 385.40 541.23 564.39 377.14 754.94 379.98 656.71 470.22 578.22 565.33 741.52 568.48
00001939 00000039 471.11 152.81 384.43 538.87 564.88 381.10 754.58 383.07 655.85 474.68 578.66 568.77 740.91 571.46
00001940 DELETE   471.78 163.61 388.11 538.02 571.24 391.43 759.28 397.97 664.20 480.16 575.51 565.72 740.37 570.86
00001941 DELETE   474.59 166.38 389.19 535.42 573.27 396.51 762.92 402.67 667.14 481.42 576.59 566.46 743.68 571.16
00001942 DELETE   476.51 166.31 391.19 536.27 576.31 393.02 768.74 399.31 670.74 481.68 578.74 565.69 749.46 570.17
00001943 00000043 476.42 161.24 391.20 531.98 575.83 384.61 765.62 388.13 664.55 477.21 586.46 557.74 752.81 561.05
00001944 00000044 478.40 147.73 391.46 540.08 577.00 371.14 767.96 378.69 662.61 467.39 587.94 551.32 752.03 557.54
00001945 00000045 480.67 143.01 389.54 536.84 575.40 363.28 769.16 371.97 659.15 458.81 586.07 545.75 752.45 552.49
00001946 00000046 481.41 139.64 390.01 539.00 575.43 361.09 771.73 371.07 660.64 455.43 585.30 542.35 756.20 549.93
00001947 00000047 480.93 140.58 391.87 543.65 575.54 363.25 772.12 373.17 660.85 459.39 583.84 544.70 757.13 552.24
00001948 00000048 479.58 143.56 394.30 552.17 579.90 368.04 772.97 378.02 665.50 467.35 583.59 546.65 758.68 554.66
00001949 00000049 481.75 160.45 388.81 549.28 585.35 369.54 764.34 384.28 670.51 464.26 586.50 550.33 751.62 561.99
00001950 00000050 482.92 158.25 387.16 556.36 583.63 365.72 765.90 380.76 667.30 459.75 583.89 547.70 753.59 559.34
00001951 00000051 483.69 151.59 386.64 558.55 582.58 362.58 765.63 375.38 667.07 455.04 585.29 540.84 756.51 550.43
00001952 00000052 482.53 146.11 389.81 555.65 585.55 358.91 767.44 371.96 671.04 452.07 589.12 536.66 756.38 546.52
00001953 00000053 483.66 130.26 392.45 567.54 589.08 353.06 779.54 368.28 675.77 450.75 590.71 534.44 766.72 546.32
00001954 00000054 490.80 143.46 389.02 553.93 595.33 360.31 779.34 374.16 683.35 455.46 596.52 537.33 766.89 548.09
00001955 DELETE   491.78 147.32 390.78 555.64 595.68 362.16 780.26 372.68 686.22 454.94 600.32 540.29 772.24 547.96
00001956 00000056 491.09 146.71 388.47 554.33 591.06 366.66 773.87 370.50 681.63 454.51 602.86 543.46 771.95 546.07
00001957 00000057 477.58 133.07 394.80 552.93 574.05 359.68 764.48 355.59 664.98 448.07 598.17 541.40 766.20 537.40
00001958 00000058 467.84 130.64 397.00 535.95 560.34 358.19 750.02 343.04 653.33 434.66 599.54 537.47 760.17 524.55
00001959 00000059 457.26 123.21 392.05 531.09 548.97 356.93 727.13 332.02 638.54 427.70 588.79 535.03 738.77 514.18
00001960 00000060 453.92 118.41 389.31 532.49 541.15 352.05 719.56 326.84 628.88 423.04 581.14 532.15 730.26 510.85
00001961 00000061 456.68 114.19 386.90 541.52 544.62 347.66 724.03 326.75 631.11 421.76 582.14 533.38 730.84 515.81
00001962 00000062 462.32 118.54 385.25 542.91 549.44 349.73 731.53 335.61 633.92 428.68 583.50 538.35 733.53 526.92
00001963 DELETE   469.09 127.31 383.25 539.47 553.08 359.14 738.10 346.26 637.21 446.91 587.57 549.09 738.64 538.84
00001964 00000064 478.03 138.40 382.46 538.21 556.99 368.87 745.99 355.86 642.15 453.57 584.11 558.80 740.06 546.91
00001965 DELETE   477.57 134.79 383.53 540.08 561.39 363.33 757.51 359.83 647.83 451.55 587.12 550.52 750.36 546.75
00001966 00000066 483.60 133.51 385.07 543.80 569.36 359.78 763.99 358.78 654.25 449.64 592.75 545.04 757.46 543.70
00001967 DELETE   487.52 131.64 387.01 544.75 575.83 358.12 767.97 359.05 660.44 451.15 598.99 543.32 760.33 543.76
00001968 00000068 488.60 135.52 390.20 551.91 580.64 362.67 772.69 365.29 665.77 457.49 600.44 548.64 763.08 550.50
00001969 00000069 486.24 139.39 393.27 553.77 581.99 367.00 771.07 368.81 667.54 465.60 601.37 551.60 764.56 552.87
00001970 00000070 484.01 142.50 393.53 548.85 578.62 369.50 771.03 370.20 666.16 467.00 598.02 553.15 765.00 553.40
00001971 00000071 482.87 142.95 391.78 537.23 574.25 367.96 768.85 369.08 661.24 462.67 593.92 549.81 760.43 549.99
00001972 00000072 483.80 139.03 386.90 532.08 573.14 363.41 767.89 365.75 659.15 454.46 592.53 543.61 758.24 544.79
00001973 00000073 482.79 135.28 386.18 533.05 572.12 358.46 766.29 362.96 656.77 449.36 589.69 538.00 755.10 541.10
00001974 00000074 481.52 131.25 386.96 537.54 571.67 357.05 763.15 365.04 654.47 449.29 586.60 536.05 748.92 542.00
00001975 DELETE   485.98 137.67 381.38 539.58 572.44 376.38 756.79 374.14 652.18 453.89 582.67 545.87 744.28 543.10
00001976 DELETE   485.15 147.75 381.95 531.53 571.05 379.84 755.94 380.27 653.05 458.41 581.16 548.10 741.28 547.59
00001977 00000077 482.10 152.36 381.86 536.49 573.54 379.36 755.33 380.78 655.77 458.78 583.28 549.37 740.45 549.20
00001978 DELETE   480.45 152.00 381.53 546.14 568.00 371.81 748.83 377.27 652.10 453.84 584.26 553.73 730.25 558.48
00001979 00000079 480.47 148.79 381.28 551.48 568.21 369.45 749.05 374.68 653.55 452.85 586.03 554.74 730.61 559.30
00001980 00000080 475.07 138.22 387.07 557.93 571.73 365.63 754.22 373.70 651.53 455.30 583.38 549.96 734.85 557.49
00001981 00000081 477.07 148.23 381.67 546.10 573.33 371.11 757.43 372.96 658.41 453.53 587.58 555.09 738.36 555.36
00001982 00000082 477.22 146.97 382.91 540.99 571.02 373.16 756.11 373.70 656.59 455.74 584.89 554.72 739.70 554.16
00001983 00000083 478.64 149.41 381.74 536.91 571.44 375.73 755.70 375.32 655.13 458.04 584.05 553.08 742.31 551.41
00001984 00000084 477.14 149.49 384.63 542.65 571.87 377.25 756.64 375.85 656.37 460.04 584.60 555.41 744.99 552.56
00001985 00000085 475.75 146.29 379.80 543.64 563.18 375.48 751.03 372.17 653.04 462.91 582.46 562.09 746.43 560.11
00001986 00000086 474.32 147.69 380.69 550.90 563.03 374.90 748.57 373.71 650.50 463.03 580.68 564.88 742.45 564.28
00001987 00000087 472.03 147.53 381.91 548.63 561.16 374.16 746.24 371.92 648.46 461.44 581.00 567.43 738.02 565.62
00001988 00000088 470.26 146.38 381.44 546.31 558.30 373.02 743.85 372.00 646.60 461.09 577.81 564.18 736.84 563.24
00001989 00000089 468.72 147.37 379.73 541.84 554.67 375.48 741.70 375.40 642.94 465.20 573.00 562.89 735.57 562.84
00001990 00000090 467.99 147.82 378.95 539.08 551.99 376.88 740.42 376.51 641.02 467.55 571.28 564.64 734.46 564.35
00001991 00000091 466.97 149.07 379.28 539.79 551.18 378.63 739.96 377.97 640.31 470.00 570.49 567.12 733.96 566.50
00001992 00000092 465.02 151.12 380.43 541.58 550.38 379.66 737.52 378.98 638.37 471.57 568.24 567.07 732.54 566.36
00001993 00000093 464.43 151.26 381.59 543.25 550.23 380.39 737.75 378.54 638.04 472.27 569.55 569.91 732.81 568.01
00001994 00000094 464.14 151.88 382.60 544.76 550.90 381.15 739.45 379.93 639.25 473.71 567.15 566.55 737.60 565.35
00001995 00000095 464.10 154.63 383.91 545.76 552.69 382.49 739.77 381.57 640.68 475.61 566.84 565.28 739.88 564.39
00001996 00000096 465.41 156.57 383.77 547.03 554.08 383.83 740.20 382.47 641.31 477.76 568.29 566.32 741.92 565.05
00001997 00000097 466.61 158.00 384.60 547.14 555.89 385.48 742.02 384.20 643.19 479.55 569.87 567.35 743.94 566.33
00001998 00000098 467.33 160.64 385.12 544.50 557.51 386.24 742.75 386.20 644.20 479.96 570.50 566.51 744.25 566.69
00001999 00000099 469.25 160.80 384.55 544.43 560.15 385.40 746.30 386.14 647.80 479.25 572.33 566.53 746.07 567.72
00002000 00000100 472.32 158.81 385.04 545.36 564.52 383.34 751.09 383.21 653.44 477.26 578.04 566.57 749.10 567.28
00002001 00000101 477.34 152.55 380.51 544.97 567.68 378.74 754.66 378.62 657.82 473.73 584.64 568.88 746.43 569.94
00002002 00000102 477.88 154.67 384.44 545.38 575.10 379.13 761.81 378.36 662.03 470.58 587.44 562.99 746.32 561.25
00002003 00000103 474.85 148.17 387.02 545.98 571.26 374.67 758.77 378.50 657.68 468.16 588.85 556.97 748.20 560.33
00002004 00000104 472.25 146.32 389.22 549.17 571.50 372.00 757.88 375.87 659.23 465.43 588.91 553.19 749.15 556.53
00002005 00000105 471.47 140.87 388.84 552.51 569.19 370.13 756.30 374.03 657.25 461.53 586.55 549.52 749.72 552.61
00002006 00000106 476.60 144.40 380.09 551.04 570.75 380.13 750.36 374.33 657.25 462.07 586.06 552.68 748.83 546.01
00002007 00000107 473.69 145.10 382.21 549.71 568.87 384.63 748.18 377.94 657.26 461.40 584.98 552.41 747.59 545.34
00002008 00000108 475.44 143.45 375.22 546.33 560.41 379.05 746.82 372.71 649.77 461.98 580.57 558.67 749.77 553.97
00002009 00000109 473.15 142.86 377.85 542.78 558.85 377.31 747.18 372.45 649.59 463.46 576.43 554.94 749.38 551.64
00002010 00000110 473.70 148.67 381.80 541.70 567.57 376.87 749.60 375.41 651.69 461.35 573.08 545.22 747.81 541.88
00002011 00000111 473.12 148.00 383.37 541.30 567.68 375.41 750.44 374.72 651.35 460.85 572.29 544.43 747.26 541.80
00002012 00000112 474.06 150.85 384.00 536.04 568.63 376.89 751.74 377.21 651.96 462.48 571.51 544.07 747.97 542.47
00002013 00000113 475.29 151.02 384.95 536.09 569.68 380.11 753.95 379.98 653.81 465.18 571.99 545.05 749.62 543.27
00002014 00000114 475.88 153.70 385.04 535.96 570.19 380.81 754.67 381.27 654.41 467.36 572.36 546.60 749.15 545.22
00002015 00000115 476.25 156.47 385.53 537.24 570.79 381.24 756.19 382.62 654.99 469.40 572.58 548.37 749.10 547.53
00002016 00000116 477.27 157.53 385.73 537.22 571.78 382.58 757.66 383.82 656.34 470.91 573.28 549.43 750.57 548.45
00002017 00000117 477.41 158.74 386.80 536.53 572.40 383.09 758.34 383.81 657.44 471.79 574.59 550.24 751.16 548.84
00002018 00000118 477.41 158.96 386.75 535.67 571.92 383.70 758.21 384.72 656.96 472.17 573.60 550.30 750.77 549.27
00002019 00000119 477.21 158.65 386.75 535.68 571.61 383.61 758.25 385.15 656.59 472.16 572.71 550.18 750.31 549.62
00002020 00000120 476.86 158.24 386.66 536.15 571.69 382.52 758.83 384.97 656.66 471.61 571.71 549.52 749.71 549.74
00002021 00000121 475.90 157.54 387.31 537.15 571.27 381.85 758.28 384.50 656.46 471.12 571.37 548.96 749.52 549.27
00002022 00000122 474.77 157.45 386.72 538.00 570.21 380.80 756.52 383.30 655.46 470.33 571.02 548.89 748.40 548.99
00002023 00000123 472.20 151.06 383.45 537.92 559.53 379.16 750.40 377.37 650.93 472.62 574.41 558.34 749.70 557.73
00002024 00000124 470.95 153.04 383.82 537.65 557.84 380.59 747.18 377.64 648.67 472.83 574.05 559.01 749.04 557.20
00002025 00000125 470.26 152.16 383.60 538.81 556.76 380.63 746.07 377.88 647.39 472.82 573.24 559.40 747.86 557.61
00002026 00000126 469.90 151.80 383.20 539.49 555.87 379.63 745.08 377.09 645.47 471.94 573.28 561.32 745.31 559.58
00002027 00000127 468.86 151.43 384.11 540.70 555.88 379.02 744.09 377.16 644.90 471.28 573.31 562.82 742.04 561.35
00002028 00000128 469.36 150.75 383.76 541.59 556.06 379.35 745.29 377.54 644.69 472.10 574.51 566.35 741.08 565.06
00002029 00000129 469.86 152.18 384.23 541.63 556.90 380.97 746.51 377.48 645.55 473.49 577.26 570.07 741.36 567.37
00002030 00000130 470.28 152.40 384.03 539.72 557.90 380.68 747.07 376.78 646.93 473.10 579.19 571.41 739.69 568.53
00002031 00000131 470.97 151.75 383.00 537.53 558.68 379.99 749.12 376.65 647.79 473.35 579.37 572.64 738.84 570.41
CROP_BBOX: 250 0 1099 841
