Video ID: 	wcvNTAdUnCU
H: 	1080
W: 	1920
FPS: 	23.976023976023978

FRAME INDEX X0 Y0 W H [Landmarks (5 Points)]

00005745 00000000 903.78 231.67 392.28 591.96 968.94 474.86 1146.54 471.97 1036.01 605.40 997.14 690.05 1140.56 687.95
00005746 DELETE   908.80 221.74 391.96 596.97 971.67 466.76 1151.85 470.03 1039.34 603.04 998.74 694.94 1133.06 698.32
00005747 DELETE   908.99 222.12 397.83 589.50 995.68 464.36 1178.20 467.97 1072.70 586.25 1012.77 687.85 1151.54 691.14
00005748 DELETE   924.77 209.76 391.58 594.08 1018.14 449.79 1194.58 455.41 1097.43 572.42 1034.69 675.30 1164.84 679.95
00005749 00000004 931.22 187.82 392.45 602.77 1025.94 436.36 1198.96 446.38 1100.07 556.73 1041.38 655.95 1166.90 666.16
00005750 DELETE   925.09 181.78 397.13 605.57 1021.40 430.87 1193.49 439.57 1094.48 548.09 1037.87 648.37 1165.40 657.00
00005751 00000006 927.02 182.43 393.51 604.46 1015.46 433.60 1187.15 441.70 1084.93 548.81 1030.18 647.15 1160.71 655.15
00005752 00000007 931.13 190.21 388.07 606.74 1008.41 441.99 1181.73 449.06 1073.14 558.09 1020.72 655.73 1155.79 662.97
00005753 DELETE   929.00 199.84 389.79 606.45 1014.52 453.56 1191.33 459.03 1086.21 565.72 1022.03 668.78 1165.93 673.14
00005754 DELETE   938.35 208.12 391.16 601.52 1025.10 452.99 1204.64 454.68 1103.56 566.85 1036.73 670.65 1184.83 671.44
00005755 DELETE   945.01 201.61 389.64 598.91 1039.03 453.66 1216.35 455.10 1125.99 571.14 1057.62 671.69 1198.56 671.82
00005756 00000011 948.05 196.22 389.03 598.44 1042.86 448.98 1221.34 450.37 1131.32 563.03 1061.82 664.93 1204.63 665.31
00005757 00000012 947.70 188.28 387.65 601.45 1038.63 443.37 1217.12 442.52 1124.38 554.43 1059.72 659.40 1201.10 657.97
00005758 00000013 939.98 181.02 390.52 604.12 1036.20 433.22 1212.79 438.46 1115.23 546.60 1058.01 645.61 1197.68 650.12
00005759 00000014 937.91 176.95 393.58 605.44 1032.93 428.53 1210.86 433.14 1112.68 539.17 1054.00 641.47 1194.63 645.66
00005760 00000015 938.28 172.06 394.66 604.14 1032.02 422.50 1209.47 425.66 1111.51 532.84 1053.27 636.50 1192.96 639.63
00005761 00000016 941.01 170.60 393.69 599.88 1032.28 417.09 1209.75 417.98 1112.34 524.32 1054.53 630.29 1195.57 631.34
00005762 00000017 941.14 165.97 394.45 603.23 1032.45 416.99 1209.74 417.80 1112.38 522.29 1055.22 628.12 1197.52 628.91
00005763 00000018 943.20 169.96 392.53 608.74 1035.31 421.21 1211.57 423.67 1113.52 532.96 1055.53 635.02 1197.58 637.51
00005764 00000019 944.36 180.20 388.56 614.11 1038.28 432.08 1214.88 438.18 1114.97 547.42 1055.60 646.24 1199.20 651.59
00005765 DELETE   951.91 196.50 384.34 603.10 1041.81 454.52 1215.71 453.99 1123.75 563.87 1057.58 664.16 1202.97 663.02
00005766 DELETE   947.70 206.52 391.80 600.01 1048.79 463.21 1225.27 462.82 1139.34 575.31 1069.57 671.93 1215.38 670.95
00005767 DELETE   953.79 212.22 392.21 595.81 1058.48 464.91 1237.81 465.93 1150.24 580.52 1081.02 674.83 1228.23 675.04
00005768 00000023 961.16 209.21 389.18 597.03 1067.53 460.15 1246.27 461.25 1161.76 578.85 1091.62 675.55 1234.01 676.02
00005769 00000024 964.53 204.66 386.18 599.72 1071.72 450.66 1248.22 453.42 1165.50 571.10 1093.18 668.40 1234.99 670.18
00005770 00000025 968.56 191.87 384.46 609.99 1073.37 437.51 1246.56 450.34 1165.71 555.67 1089.53 653.13 1226.07 665.47
00005771 00000026 967.53 183.82 384.36 609.17 1071.09 433.73 1245.89 448.40 1162.25 552.24 1085.08 646.17 1226.08 659.67
00005772 00000027 966.15 180.91 385.11 607.17 1069.29 433.57 1244.80 447.86 1159.85 551.53 1082.85 644.00 1225.20 657.05
00005773 00000028 966.77 178.97 385.44 604.32 1069.50 432.66 1243.60 446.76 1158.67 548.92 1082.16 642.73 1221.13 655.65
00005774 00000029 968.10 178.41 383.69 605.03 1069.64 432.83 1241.25 446.29 1157.89 547.36 1083.98 644.48 1218.16 656.88
00005775 00000030 968.47 182.17 381.62 603.63 1068.56 434.12 1240.06 449.96 1156.07 550.84 1082.03 647.61 1213.20 662.14
00005776 00000031 970.17 186.50 380.93 605.90 1068.22 436.92 1239.73 452.54 1154.97 553.59 1082.93 650.96 1215.11 665.42
00005777 00000032 969.50 190.00 380.53 606.62 1066.76 439.04 1239.28 452.91 1154.13 553.96 1083.91 654.68 1215.66 667.72
00005778 00000033 962.23 199.88 384.29 607.86 1063.57 446.99 1237.32 448.02 1151.07 564.78 1089.40 667.92 1224.61 669.51
00005779 00000034 958.41 194.83 386.23 609.99 1057.94 451.20 1233.91 449.98 1148.69 563.15 1082.90 667.15 1226.07 666.05
00005780 00000035 954.53 198.30 389.81 610.79 1058.41 454.81 1231.57 453.98 1146.40 567.36 1084.38 669.45 1220.93 669.09
00005781 00000036 951.62 198.81 389.38 605.77 1056.07 451.64 1228.13 452.97 1143.76 566.88 1082.03 666.77 1215.91 668.15
00005782 00000037 949.30 192.34 388.28 608.09 1052.87 447.79 1225.17 451.41 1137.28 561.14 1075.67 659.78 1211.85 663.12
00005783 00000038 946.79 185.20 388.96 604.84 1049.87 441.59 1222.35 448.16 1130.66 557.41 1070.22 652.03 1206.07 657.94
00005784 00000039 946.14 187.01 389.75 599.24 1047.87 441.78 1220.94 448.05 1127.70 558.28 1068.27 650.37 1204.96 655.95
00005785 00000040 947.11 189.72 389.30 598.72 1047.59 443.13 1221.18 450.11 1126.73 560.11 1066.72 651.93 1204.04 658.18
00005786 00000041 950.13 192.98 387.27 601.73 1047.82 443.28 1219.11 451.76 1124.89 562.92 1066.27 654.59 1202.18 662.06
00005787 00000042 950.99 193.58 385.97 604.88 1046.27 442.20 1215.27 451.48 1121.36 563.96 1064.66 658.81 1195.40 667.37
00005788 00000043 954.09 191.76 384.35 600.05 1039.49 447.92 1214.39 447.36 1118.28 561.18 1056.73 663.33 1195.49 662.54
00005789 00000044 958.59 182.20 386.01 609.53 1042.64 434.83 1213.05 445.87 1114.44 550.68 1057.25 649.07 1183.15 659.62
00005790 00000045 949.58 184.02 388.17 607.43 1037.62 434.66 1206.39 444.26 1105.64 554.09 1051.81 647.98 1184.07 657.04
00005791 00000046 947.72 180.17 389.40 603.78 1035.50 430.94 1206.68 440.13 1103.70 550.54 1050.46 643.69 1184.72 652.26
00005792 00000047 947.37 178.51 390.24 599.52 1035.14 425.69 1208.95 433.35 1103.87 542.58 1049.83 638.87 1185.82 646.38
00005793 00000048 949.24 175.52 388.74 601.93 1034.76 420.26 1208.15 425.16 1103.99 535.16 1051.11 635.90 1188.29 641.20
00005794 00000049 952.01 173.01 387.67 599.28 1035.03 415.30 1210.20 419.18 1105.99 532.10 1051.53 631.10 1191.62 635.43
00005795 00000050 949.67 164.12 391.53 601.21 1034.33 411.11 1210.93 412.68 1106.51 522.83 1052.03 626.56 1193.09 628.79
00005796 00000051 950.19 159.80 391.52 596.97 1036.30 405.36 1212.54 405.17 1110.24 511.93 1054.57 620.55 1194.79 620.97
00005797 00000052 951.56 159.17 391.89 594.87 1039.78 402.17 1216.55 401.33 1116.84 504.63 1059.29 616.37 1198.87 616.29
00005798 00000053 953.49 158.73 394.44 595.60 1045.88 406.26 1226.67 405.18 1126.45 507.61 1068.68 619.14 1210.17 618.57
00005799 DELETE   954.92 160.42 396.00 598.94 1052.34 411.39 1235.61 407.84 1138.32 517.23 1082.79 629.25 1222.87 626.38
00005800 DELETE   960.64 159.72 394.02 613.77 1060.90 410.75 1241.78 414.72 1154.14 520.85 1084.18 634.58 1220.32 639.49
00005801 00000056 956.39 165.99 394.24 613.49 1060.92 418.99 1244.15 420.67 1160.93 531.44 1088.10 643.07 1228.69 646.19
00005802 00000057 957.86 177.53 388.00 611.11 1064.60 429.48 1243.09 432.74 1163.81 538.36 1091.15 647.88 1230.71 652.26
00005803 00000058 950.05 191.41 389.17 613.51 1055.58 452.04 1232.04 445.27 1156.55 560.14 1087.97 670.41 1228.73 663.30
00005804 00000059 940.94 202.34 393.05 613.21 1048.15 458.86 1221.80 451.06 1146.74 570.12 1080.92 678.87 1217.58 670.85
00005805 00000060 931.95 210.79 396.27 612.15 1036.83 463.63 1208.83 455.73 1130.45 575.78 1066.13 683.66 1202.97 676.18
00005806 00000061 923.61 217.04 398.13 608.83 1026.57 466.27 1199.78 458.65 1117.79 580.21 1056.34 686.54 1193.19 679.44
00005807 00000062 918.80 218.92 397.36 602.70 1019.19 468.69 1194.85 462.40 1110.07 588.18 1049.09 687.54 1186.03 681.82
00005808 00000063 914.70 220.93 398.30 597.03 1014.06 467.39 1192.11 463.59 1103.43 589.11 1040.97 685.83 1180.24 682.33
00005809 00000064 909.98 217.16 396.11 598.88 1007.56 467.01 1189.85 465.90 1097.01 586.85 1029.77 683.70 1174.26 682.47
00005810 00000065 907.31 213.95 394.16 600.64 1002.45 465.95 1185.50 465.07 1091.68 582.39 1021.76 682.56 1168.84 681.61
00005811 00000066 903.80 208.88 393.54 601.30 998.10 462.32 1177.99 462.41 1087.89 580.41 1018.66 680.23 1158.12 680.45
00005812 00000067 908.10 202.75 390.18 599.25 995.42 454.87 1169.14 460.02 1072.41 564.40 1014.98 664.89 1144.83 670.97
00005813 00000068 907.09 198.90 387.74 600.82 994.82 450.31 1166.12 458.04 1069.48 561.12 1012.34 660.87 1141.19 669.07
00005814 00000069 904.75 195.98 389.25 607.26 994.30 446.25 1165.63 455.28 1068.51 558.57 1011.69 660.45 1140.19 669.82
00005815 00000070 904.50 194.76 390.14 613.14 994.23 448.77 1164.75 457.09 1068.65 560.28 1012.17 664.30 1139.50 673.04
00005816 00000071 895.40 199.85 394.50 617.05 990.98 457.10 1166.82 459.21 1077.85 572.09 1011.08 679.63 1147.78 682.07
00005817 00000072 891.46 204.43 399.96 614.02 991.48 461.99 1170.31 463.37 1081.28 575.27 1010.83 680.77 1151.51 682.50
00005818 00000073 894.84 205.41 399.12 612.83 991.53 466.03 1173.61 467.02 1081.08 580.38 1008.59 683.23 1152.29 684.43
00005819 00000074 897.10 206.56 398.26 611.31 993.89 466.50 1177.27 467.91 1083.93 582.63 1011.36 683.26 1156.60 684.84
00005820 00000075 897.91 204.91 396.27 613.59 997.31 465.84 1180.41 466.46 1090.69 580.52 1015.56 683.34 1163.20 683.95
00005821 00000076 899.64 206.21 395.84 614.34 1001.12 461.39 1185.53 461.33 1098.60 577.48 1021.47 682.99 1169.61 682.90
00005822 00000077 901.81 205.08 395.71 618.20 1005.84 458.09 1190.46 456.27 1106.18 574.39 1029.16 683.64 1174.84 681.88
00005823 00000078 903.96 205.24 398.30 618.60 1010.31 457.88 1194.48 453.61 1114.33 575.50 1038.60 685.74 1181.85 681.73
00005824 00000079 905.89 209.85 398.84 613.80 1014.03 462.26 1196.95 456.45 1116.54 583.54 1044.32 688.80 1185.33 683.48
00005825 00000080 905.93 211.84 399.73 613.89 1014.31 466.58 1196.62 460.43 1117.23 591.33 1046.46 692.89 1186.90 687.15
00005826 00000081 906.88 215.11 399.12 610.08 1012.90 469.20 1195.64 464.13 1114.04 594.76 1044.08 693.40 1184.56 688.81
00005827 00000082 905.77 216.44 399.42 605.24 1012.41 468.44 1195.44 464.58 1113.38 595.19 1043.02 692.10 1180.86 688.75
00005828 00000083 903.34 212.67 399.07 605.61 1010.31 465.38 1192.09 461.61 1111.75 588.41 1040.40 688.47 1177.15 685.53
00005829 00000084 900.23 205.53 398.02 616.09 1005.64 460.03 1188.12 454.24 1108.52 574.59 1037.19 685.34 1175.56 680.46
00005830 00000085 898.91 202.65 396.04 619.31 1005.24 455.00 1180.70 451.58 1104.60 563.41 1034.04 678.41 1168.22 675.88
00005831 00000086 901.95 187.60 393.29 612.42 997.83 445.74 1175.07 447.16 1086.76 552.92 1025.95 662.14 1160.41 664.62
00005832 00000087 895.70 181.58 392.42 613.01 990.01 445.20 1165.23 445.48 1077.59 546.52 1018.36 658.02 1151.23 659.77
00005833 DELETE   888.44 178.70 391.69 607.73 979.74 438.54 1156.74 438.90 1064.98 539.69 1003.47 648.70 1138.90 650.49
00005834 00000089 872.58 174.08 398.14 616.24 964.60 435.93 1144.28 426.00 1048.12 533.21 997.31 649.55 1139.10 641.54
00005835 00000090 869.59 164.98 401.48 626.95 958.50 426.38 1138.58 417.83 1038.26 523.17 984.90 639.04 1134.29 632.33
00005836 00000091 871.46 160.36 399.25 631.27 957.38 417.37 1134.09 409.12 1033.85 513.55 981.90 632.00 1131.76 625.29
00005837 00000092 870.89 159.33 400.70 628.68 957.83 416.82 1135.41 408.55 1034.70 512.32 982.01 629.41 1133.64 622.71
00005838 00000093 871.37 163.70 400.37 616.73 958.87 422.93 1138.22 414.79 1036.65 521.64 986.19 632.42 1136.11 625.76
00005839 00000094 874.31 166.31 398.24 607.09 961.33 428.20 1139.62 419.58 1038.83 529.42 991.85 635.90 1136.54 628.92
00005840 00000095 874.95 169.22 396.79 605.64 962.18 429.92 1141.04 421.68 1041.95 534.40 994.39 639.02 1138.59 632.41
00005841 00000096 874.37 171.39 397.53 609.70 962.57 431.86 1141.43 423.80 1042.97 536.15 994.84 642.15 1138.61 635.72
00005842 00000097 876.35 171.66 394.61 616.02 962.59 431.07 1140.64 424.56 1041.04 535.19 992.48 644.30 1136.08 639.27
00005843 00000098 872.20 169.46 396.76 613.73 961.12 430.98 1138.36 423.89 1039.58 533.09 990.89 643.02 1131.50 637.74
00005844 00000099 869.59 170.47 397.92 614.54 958.51 431.43 1133.97 423.51 1036.20 532.33 988.87 641.60 1129.14 635.74
00005845 00000100 868.98 169.90 396.71 611.67 957.81 430.49 1131.26 423.44 1034.90 532.88 988.89 641.29 1126.38 636.03
00005846 00000101 868.01 170.73 396.66 612.98 957.66 429.88 1129.98 423.14 1034.32 532.16 987.97 641.05 1124.60 636.05
00005847 00000102 866.67 171.49 397.98 614.22 958.10 428.51 1129.63 422.18 1035.36 530.76 988.05 641.08 1123.15 636.41
00005848 00000103 867.55 169.78 398.44 618.36 957.76 426.99 1130.54 420.57 1034.72 529.83 986.15 639.62 1124.90 634.85
00005849 00000104 866.97 170.32 398.81 611.90 957.31 427.74 1130.24 421.22 1034.16 529.77 985.52 636.48 1124.95 631.59
00005850 00000105 868.05 169.92 398.01 603.55 957.73 426.78 1130.88 421.13 1035.25 528.57 986.40 632.38 1125.62 628.15
00005851 00000106 867.69 168.48 398.38 598.80 959.77 425.29 1131.42 419.48 1037.63 526.95 989.14 630.29 1125.39 626.01
00005852 00000107 868.39 167.45 397.66 594.71 960.15 422.66 1133.31 416.80 1039.31 523.44 990.19 629.02 1126.07 624.75
00005853 00000108 869.18 166.56 397.59 603.10 959.80 421.83 1132.07 416.50 1037.89 522.42 988.56 630.70 1123.81 627.01
00005854 00000109 866.33 165.80 399.92 609.53 959.65 425.19 1131.01 420.32 1038.10 528.55 989.06 635.48 1122.44 632.09
00005855 00000110 865.07 167.50 399.66 613.15 959.56 429.13 1132.61 425.79 1039.35 534.61 989.06 639.63 1123.51 637.51
00005856 00000111 863.19 169.19 400.10 613.06 958.17 434.96 1132.29 430.34 1039.62 540.99 990.01 643.75 1125.77 640.24
00005857 00000112 863.62 174.13 398.04 613.51 956.42 438.53 1131.07 434.53 1036.17 546.36 987.59 648.03 1124.33 645.04
00005858 00000113 863.97 173.29 395.26 615.50 956.52 439.58 1130.84 436.77 1035.11 547.74 986.37 649.27 1123.39 647.14
00005859 00000114 863.20 171.30 395.07 617.86 955.57 438.01 1129.26 433.94 1035.59 545.36 987.10 648.41 1122.97 645.36
00005860 00000115 860.34 169.23 397.31 615.08 954.34 433.40 1129.38 428.42 1037.62 538.96 988.60 645.18 1124.76 641.09
00005861 00000116 857.94 167.76 400.73 615.79 953.82 429.09 1127.93 424.31 1036.53 534.05 986.81 641.39 1122.32 637.68
00005862 00000117 857.14 166.85 399.57 607.51 953.40 425.49 1128.16 421.68 1037.86 531.26 987.33 637.13 1122.55 634.16
00005863 00000118 858.79 163.49 397.73 607.33 953.89 427.05 1128.27 422.79 1038.51 528.92 987.77 634.41 1123.91 630.94
00005864 00000119 861.32 164.63 393.84 602.38 952.69 429.97 1124.51 421.43 1037.48 526.13 988.89 631.38 1125.00 624.40
00005865 00000120 857.16 165.45 395.87 596.50 952.37 426.46 1123.17 418.47 1038.25 520.25 991.39 628.92 1123.77 622.18
00005866 00000121 854.17 162.35 395.72 598.45 950.46 419.22 1120.38 410.24 1038.10 515.14 988.81 625.53 1120.00 617.81
00005867 00000122 849.14 157.83 394.96 597.58 945.95 411.04 1116.22 400.95 1033.62 504.21 981.76 620.29 1115.14 611.58
00005868 00000123 844.64 157.78 391.38 592.99 941.29 406.06 1113.25 393.30 1030.42 496.97 980.07 619.62 1110.63 608.86
00005869 00000124 843.93 156.81 387.64 593.47 939.18 403.76 1107.18 391.26 1026.04 491.89 976.08 615.56 1106.38 605.25
00005870 00000125 840.86 154.55 387.97 592.84 935.45 399.82 1103.25 386.49 1023.26 484.38 971.64 611.45 1104.98 600.56
00005871 00000126 840.11 152.18 384.76 583.63 934.15 391.16 1104.37 381.78 1024.18 475.74 966.47 601.07 1100.01 594.06
00005872 00000127 838.26 148.65 386.50 578.90 932.67 381.49 1105.34 374.06 1023.26 464.43 961.70 593.35 1096.91 588.39
00005873 00000128 842.21 142.34 381.72 577.40 935.62 373.94 1106.56 366.48 1024.73 449.79 961.20 581.58 1097.88 577.01
00005874 00000129 839.90 121.31 386.96 584.79 931.42 359.35 1104.50 350.92 1009.93 437.30 957.99 566.06 1096.92 559.82
00005875 00000130 843.29 115.10 387.54 580.59 935.43 351.17 1108.57 342.16 1015.67 423.96 963.27 556.78 1100.17 550.15
00005876 00000131 844.90 111.87 387.90 573.83 940.56 342.57 1115.32 335.26 1025.96 417.88 971.20 550.86 1106.24 545.56
00005877 00000132 848.58 107.07 386.74 575.60 944.38 338.48 1118.72 330.34 1030.68 410.23 975.08 543.85 1113.20 537.70
00005878 00000133 856.69 107.20 380.67 570.46 948.42 335.07 1123.50 323.97 1034.31 402.16 979.33 541.26 1119.57 533.07
00005879 00000134 858.84 106.86 380.61 564.89 950.84 330.87 1123.76 320.18 1035.48 395.96 981.07 534.10 1120.93 526.36
00005880 00000135 860.34 107.95 378.77 558.14 951.15 327.80 1123.46 316.72 1036.11 388.54 981.76 526.88 1124.13 518.88
00005881 00000136 860.24 107.09 378.62 555.71 950.29 324.71 1122.05 311.72 1035.53 380.48 981.60 523.96 1123.78 514.50
00005882 00000137 859.23 106.54 380.21 556.44 950.19 323.63 1121.62 309.67 1036.60 377.45 982.68 523.09 1124.80 512.68
00005883 00000138 859.24 106.78 380.66 557.39 949.11 325.19 1119.47 309.94 1034.90 381.12 983.83 526.30 1123.67 514.81
00005884 00000139 860.24 106.36 378.95 560.28 949.05 326.71 1118.61 312.00 1033.54 385.94 983.19 529.94 1121.14 519.03
00005885 00000140 858.54 103.65 379.31 563.07 947.96 330.84 1119.67 317.56 1031.85 391.90 980.38 531.97 1120.03 522.36
00005886 00000141 857.67 104.87 377.84 559.83 946.64 333.34 1118.70 321.54 1029.23 395.79 974.66 533.71 1112.60 525.76
00005887 00000142 856.09 107.28 379.18 556.61 944.17 337.53 1117.08 323.42 1026.74 399.83 973.99 537.62 1110.83 527.79
00005888 00000143 853.87 106.49 383.04 560.59 941.85 342.45 1111.43 326.88 1023.40 409.54 975.65 542.32 1107.76 530.93
00005889 00000144 857.53 107.89 383.91 573.34 939.04 351.45 1105.70 335.21 1012.44 420.12 971.06 549.76 1102.18 537.61
00005890 00000145 861.83 109.52 383.19 574.31 936.70 356.14 1099.53 347.36 996.66 435.08 961.23 551.44 1090.43 545.74
CROP_BBOX: 544 0 1750 1080
