Video ID: 	CtWWwfFu-Fg
H: 	1080
W: 	1920
FPS: 	25.0

FRAME INDEX X0 Y0 W H [Landmarks (5 Points)]

00005562 00000000 799.99 193.76 477.68 724.07 859.58 435.06 1057.29 476.01 872.16 627.21 857.54 711.49 1017.27 745.88
00005563 DELETE   802.36 182.88 483.11 746.24 864.32 445.27 1065.84 479.72 887.04 635.09 870.05 720.13 1031.47 748.93
00005564 00000002 814.72 188.26 477.34 731.45 867.40 452.18 1075.53 484.53 897.79 649.30 878.03 729.43 1047.17 756.40
00005565 00000003 810.39 191.73 474.23 721.46 861.30 454.31 1068.81 487.52 893.76 647.71 865.51 730.10 1031.69 758.58
00005566 00000004 812.44 193.33 465.36 718.11 858.19 453.14 1056.37 490.32 877.69 642.99 855.22 730.94 1012.30 763.05
00005567 00000005 812.59 202.88 463.42 704.50 855.98 451.30 1045.61 494.10 861.34 644.34 849.26 728.53 999.24 765.08
00005568 DELETE   810.87 192.58 468.52 724.11 855.93 456.03 1051.52 492.01 872.77 650.65 858.84 741.65 1009.24 772.76
00005569 00000007 815.14 188.97 473.19 737.01 860.40 456.71 1067.84 495.08 887.51 663.54 870.30 737.42 1035.88 769.87
00005570 00000008 816.92 194.47 476.93 735.86 863.21 455.96 1071.21 491.39 891.52 660.75 872.77 741.27 1035.81 771.28
00005571 00000009 811.95 192.54 482.41 746.46 848.25 441.40 1065.63 494.77 883.47 660.01 859.94 759.59 1011.79 803.61
00005572 00000010 811.63 191.86 480.04 739.31 859.26 450.66 1057.53 489.90 873.20 644.90 853.73 738.87 1012.86 772.20
00005573 DELETE   815.96 189.61 482.00 758.50 869.00 450.02 1070.15 490.47 886.62 653.76 872.85 735.37 1037.10 769.55
00005574 00000012 824.51 185.94 484.03 755.89 873.77 455.04 1081.70 492.06 899.45 662.00 885.07 748.98 1049.93 779.94
00005575 00000013 822.55 188.70 491.52 758.78 864.06 437.15 1074.76 491.57 892.88 666.32 883.72 754.85 1038.87 800.02
00005576 DELETE   825.12 170.12 479.30 754.50 869.97 444.30 1069.25 489.04 880.03 651.56 877.21 745.01 1028.92 779.95
00005577 00000015 811.65 180.32 481.43 746.00 857.96 450.09 1062.02 489.72 877.71 655.28 861.67 740.77 1019.72 774.52
00005578 00000016 816.38 184.14 484.10 755.69 863.79 453.33 1066.52 489.55 883.10 660.80 873.82 746.14 1037.44 776.43
00005579 00000017 820.47 185.66 483.39 760.36 864.91 456.94 1069.67 492.25 886.08 663.67 877.62 748.89 1043.33 778.23
00005580 00000018 816.33 181.75 482.54 758.63 863.50 455.08 1065.54 487.67 883.56 660.07 878.14 745.95 1041.05 773.26
00005581 00000019 814.39 198.98 477.39 729.94 849.67 444.78 1048.41 487.71 863.99 654.30 867.73 741.69 1018.98 777.60
00005582 00000020 809.97 190.52 476.64 732.19 848.44 445.42 1042.74 487.27 859.06 653.03 868.22 739.00 1017.46 773.78
00005583 00000021 795.89 196.12 492.31 741.58 839.15 437.81 1046.75 485.99 861.91 653.93 862.33 746.20 1013.83 785.53
00005584 00000022 794.36 189.55 496.24 745.73 839.59 432.56 1047.85 479.23 862.89 646.86 863.10 740.16 1013.21 778.57
00005585 00000023 802.09 183.63 489.08 733.97 851.22 439.55 1048.36 474.10 861.64 637.59 856.24 726.22 1015.79 754.83
00005586 00000024 796.87 182.17 490.89 733.43 853.27 432.12 1045.26 470.12 858.82 627.36 851.83 717.48 1003.98 749.84
00005587 DELETE   809.04 178.47 487.53 729.60 847.63 412.33 1045.44 460.90 859.61 621.85 871.25 713.41 1013.93 753.28
00005588 DELETE   814.23 172.92 483.33 724.63 851.87 408.47 1053.54 452.76 871.02 616.84 876.37 702.87 1027.79 739.79
00005589 00000027 821.56 149.52 476.71 752.12 860.13 415.59 1057.00 445.86 876.29 611.67 879.03 698.53 1041.58 724.25
00005590 00000028 822.13 139.24 483.09 769.94 863.00 410.24 1058.57 436.72 877.10 605.15 884.27 699.23 1049.69 721.41
00005591 00000029 820.50 139.81 482.29 766.82 863.20 407.69 1056.41 436.54 872.72 601.19 881.16 693.46 1044.75 717.44
00005592 00000030 823.23 144.84 479.11 758.19 865.87 409.30 1051.87 441.98 866.54 603.94 883.60 693.35 1042.22 720.06
00005593 00000031 819.69 154.08 482.91 750.93 866.08 414.65 1057.61 457.93 867.23 614.35 883.61 692.79 1047.39 727.95
00005594 DELETE   826.84 150.13 485.73 764.92 872.85 416.91 1071.53 462.06 875.91 623.72 892.74 701.69 1058.36 738.06
00005595 00000033 828.93 165.41 503.58 765.25 890.80 414.26 1092.89 471.31 895.33 624.73 900.62 707.52 1062.35 753.35
00005596 00000034 840.38 169.66 494.31 745.50 910.05 428.18 1110.86 477.98 917.36 629.64 909.01 701.22 1077.09 741.98
00005597 00000035 844.46 175.87 498.86 737.54 914.57 430.32 1118.68 483.20 925.34 634.14 909.69 703.96 1078.79 747.63
00005598 00000036 854.89 182.72 489.32 732.78 921.49 430.96 1123.96 484.80 929.94 634.52 914.44 705.16 1084.55 749.19
00005599 00000037 863.09 176.03 485.64 732.34 926.22 431.82 1129.36 487.70 936.06 634.84 916.82 707.65 1084.27 754.26
00005600 00000038 882.56 169.96 475.63 737.91 930.04 437.03 1135.45 489.03 940.98 637.94 924.11 713.78 1092.33 757.39
00005601 00000039 887.35 176.12 475.21 726.06 933.36 434.22 1141.41 489.41 947.15 640.25 927.59 711.92 1096.90 758.16
00005602 00000040 903.39 172.37 470.63 743.61 942.86 426.07 1146.58 483.62 954.66 633.10 949.11 718.84 1105.36 767.06
00005603 DELETE   922.81 168.63 459.60 743.67 959.05 425.42 1166.67 482.90 974.24 633.66 963.26 715.86 1119.95 764.51
00005604 DELETE   914.30 169.17 488.12 757.62 993.46 431.59 1192.54 491.19 1002.99 633.37 975.76 706.11 1143.22 756.23
00005605 00000043 914.22 173.61 494.51 774.28 1000.56 434.13 1206.01 500.38 1015.00 641.08 978.08 707.34 1150.63 762.90
00005606 00000044 919.87 166.93 496.08 782.41 1003.30 439.06 1210.20 503.81 1019.36 643.14 979.75 708.94 1155.27 763.26
00005607 00000045 925.12 176.34 489.59 763.70 1005.76 442.85 1213.67 507.17 1025.32 646.49 983.08 710.26 1156.82 764.49
00005608 00000046 930.25 181.92 489.85 753.36 1003.64 451.99 1215.68 514.82 1028.25 655.74 985.46 721.55 1153.63 775.06
00005609 00000047 935.72 191.74 485.54 745.13 1004.28 465.24 1217.45 528.69 1031.48 669.04 991.35 737.69 1152.18 791.54
00005610 00000048 936.91 192.92 484.71 749.64 1002.72 473.06 1220.04 538.96 1035.48 679.44 991.56 752.47 1150.29 808.25
00005611 00000049 932.69 192.17 485.04 763.07 1007.81 468.93 1222.97 536.92 1038.58 674.60 990.89 746.42 1152.59 804.47
00005612 00000050 926.32 185.97 489.50 758.65 1006.44 456.18 1225.35 524.57 1037.73 664.78 981.82 733.50 1147.79 792.01
00005613 00000051 918.14 180.45 493.87 755.40 1002.93 442.95 1219.80 514.22 1032.31 656.12 977.01 720.69 1141.30 781.27
00005614 00000052 916.23 173.49 487.79 752.16 985.39 441.89 1208.32 513.37 1021.42 656.61 966.67 730.64 1129.00 790.37
00005615 00000053 911.41 184.78 474.12 749.04 975.70 446.08 1200.43 520.08 1015.21 659.67 962.90 731.32 1121.04 794.86
00005616 00000054 901.95 180.18 483.52 757.75 971.61 452.41 1190.46 524.39 1009.30 663.44 953.33 736.97 1117.55 798.59
00005617 00000055 882.45 187.29 484.77 743.38 968.51 455.59 1188.22 525.23 1008.71 664.61 947.89 730.71 1106.29 790.35
00005618 00000056 881.64 186.61 483.22 742.89 966.25 449.85 1185.65 513.07 1008.83 662.11 949.46 723.15 1110.33 777.59
00005619 00000057 872.87 181.93 491.52 751.43 965.48 444.92 1186.54 509.12 1005.42 657.47 943.83 710.81 1116.19 765.70
00005620 00000058 869.61 181.51 493.99 749.82 966.22 446.93 1186.51 508.83 1009.20 658.22 946.51 708.07 1121.99 760.89
00005621 00000059 870.34 190.71 495.51 746.67 967.59 451.91 1188.56 514.63 1013.14 664.45 951.15 711.71 1127.79 765.05
00005622 00000060 874.21 194.57 492.80 737.46 972.14 451.54 1191.58 518.26 1015.40 664.52 954.26 715.19 1124.08 771.86
00005623 00000061 872.75 195.75 499.71 729.70 973.17 453.15 1199.14 520.94 1022.41 664.01 954.62 714.37 1125.61 772.16
00005624 00000062 879.84 194.95 494.06 738.20 983.95 448.35 1204.05 520.85 1027.56 658.54 955.04 699.37 1131.24 760.85
00005625 00000063 888.06 188.65 485.02 758.20 993.61 443.31 1211.35 518.04 1033.62 656.11 956.89 691.90 1143.10 754.78
00005626 00000064 888.69 184.29 486.70 764.53 998.99 440.21 1216.53 514.76 1040.04 656.73 959.82 694.87 1140.81 758.28
00005627 00000065 891.87 185.45 483.26 764.01 999.97 442.68 1217.36 517.98 1039.87 661.52 959.83 694.78 1140.99 758.80
00005628 00000066 895.83 187.97 478.90 746.60 990.07 445.96 1225.76 522.10 1045.70 670.54 960.67 705.39 1155.26 769.91
00005629 00000067 892.59 180.41 494.09 750.58 988.35 449.15 1223.47 515.13 1043.26 668.55 962.36 716.55 1155.13 772.02
00005630 00000068 892.95 184.08 486.58 729.58 988.16 441.49 1224.88 520.82 1047.55 661.31 963.20 708.45 1137.68 775.59
00005631 00000069 889.67 178.61 489.18 727.26 986.81 437.01 1224.58 515.03 1047.24 653.23 961.02 707.30 1129.56 773.76
00005632 00000070 882.19 173.98 492.89 736.33 981.38 438.12 1218.16 513.99 1040.79 652.08 960.53 711.82 1124.41 776.36
00005633 00000071 877.41 180.92 490.67 744.39 966.76 441.03 1207.58 517.61 1023.83 663.09 948.34 729.42 1113.30 794.58
00005634 00000072 866.61 190.10 497.09 731.74 957.00 440.51 1189.17 516.76 1006.80 664.09 931.31 735.00 1092.31 799.87
00005635 00000073 853.68 196.91 493.78 735.40 958.03 444.46 1180.75 515.05 1000.06 658.42 927.34 709.63 1105.78 769.52
00005636 00000074 855.13 180.58 487.89 757.81 949.77 441.73 1176.89 510.36 997.77 652.15 921.86 708.18 1112.78 766.81
00005637 00000075 847.23 172.99 493.85 765.50 943.19 441.71 1171.08 508.88 992.61 650.00 915.98 708.72 1104.97 766.13
00005638 00000076 840.42 176.57 497.33 753.29 933.11 445.99 1164.18 512.29 982.74 656.14 915.44 714.36 1100.56 770.31
00005639 00000077 835.90 180.40 498.89 748.44 923.18 439.99 1151.58 513.75 966.53 666.36 901.93 717.88 1084.34 779.64
00005640 00000078 831.67 179.76 498.81 753.80 920.22 443.03 1147.45 510.12 967.28 661.00 902.00 716.66 1088.70 772.71
00005641 00000079 833.06 171.82 494.94 758.95 921.11 439.07 1148.63 507.04 968.97 656.31 899.98 714.21 1084.71 771.63
00005642 00000080 827.18 178.05 500.12 755.11 919.95 434.79 1158.20 509.89 969.07 656.74 900.22 709.69 1081.06 773.13
00005643 00000081 826.23 178.80 501.37 746.12 915.37 438.57 1154.00 512.44 965.23 660.31 900.99 709.77 1078.80 771.96
00005644 00000082 825.16 180.22 501.93 745.79 914.59 438.02 1153.56 516.24 962.33 665.82 897.57 710.08 1075.72 776.10
00005645 00000083 827.01 181.82 497.85 750.85 917.61 435.89 1154.34 513.83 962.39 662.21 895.24 706.10 1076.36 772.12
00005646 00000084 830.78 168.82 499.17 755.99 922.22 432.24 1148.70 506.26 966.81 655.05 897.20 711.66 1077.76 774.33
00005647 00000085 836.64 166.55 495.82 758.99 923.58 429.76 1151.13 504.58 967.11 649.64 895.69 710.69 1077.91 774.52
00005648 00000086 836.62 168.10 493.48 755.93 923.91 430.45 1150.45 504.81 967.04 652.53 896.50 711.07 1078.10 774.43
00005649 00000087 836.59 174.25 492.37 749.07 923.28 434.34 1148.54 508.44 967.52 658.97 898.02 714.07 1074.21 776.84
00005650 00000088 833.85 184.17 489.98 735.04 923.24 435.56 1157.05 518.01 965.40 661.74 898.55 707.56 1072.26 777.20
00005651 00000089 829.39 177.90 505.83 741.71 920.80 441.93 1147.60 515.70 965.07 656.72 894.76 723.66 1060.64 785.90
00005652 00000090 831.26 176.04 505.25 741.35 924.77 436.45 1149.30 517.27 964.61 652.12 895.03 709.34 1066.97 777.72
00005653 00000091 835.56 172.93 501.09 744.83 922.50 434.63 1147.49 514.15 961.36 645.97 893.33 707.57 1068.12 775.24
00005654 00000092 840.09 172.36 497.93 743.45 925.14 433.57 1148.60 513.25 963.19 644.72 896.64 707.70 1067.48 775.45
00005655 00000093 842.29 173.11 494.91 742.18 924.20 430.98 1147.76 508.66 963.45 644.69 896.77 708.51 1065.45 774.68
00005656 00000094 844.43 171.59 488.74 734.35 925.55 427.45 1147.03 505.96 962.88 638.12 896.97 702.29 1063.63 769.08
00005657 00000095 848.11 165.53 482.91 740.14 926.59 424.63 1146.03 502.32 963.68 632.77 896.77 697.23 1064.26 763.40
00005658 00000096 845.68 171.25 476.28 731.03 927.37 424.34 1153.76 497.97 966.09 634.46 902.08 696.74 1062.70 759.55
00005659 00000097 847.47 175.95 475.21 734.63 928.28 425.38 1154.16 499.77 967.60 638.97 902.18 703.92 1061.82 767.31
00005660 00000098 848.03 181.86 474.87 725.00 926.70 432.09 1155.86 508.25 969.73 649.47 904.58 706.93 1067.55 771.36
00005661 00000099 848.71 178.70 482.96 740.73 923.45 435.75 1146.95 507.52 966.58 654.83 899.98 718.78 1067.45 779.93
00005662 00000100 839.69 178.58 487.79 748.56 933.41 441.12 1153.16 511.84 974.30 650.79 910.43 713.94 1076.50 773.95
00005663 00000101 834.01 177.05 495.07 739.18 930.52 426.17 1162.14 511.60 968.01 648.13 904.08 696.94 1073.75 768.77
00005664 00000102 839.03 161.36 493.64 760.86 930.79 421.93 1154.69 505.23 968.05 640.58 899.91 698.99 1079.23 769.48
00005665 00000103 833.82 165.04 491.67 745.31 927.36 422.77 1160.66 504.23 966.44 644.05 907.05 695.63 1073.83 764.12
00005666 00000104 837.40 167.43 482.56 744.86 924.17 429.58 1156.86 509.66 963.34 651.75 901.74 710.43 1063.18 778.34
00005667 00000105 834.89 172.49 484.91 742.36 921.12 432.52 1153.19 509.66 963.66 655.80 900.42 713.48 1061.18 778.74
00005668 00000106 834.65 172.27 485.20 744.93 920.27 429.74 1156.09 508.71 962.95 654.38 898.55 715.47 1061.08 782.44
00005669 00000107 833.86 170.16 489.32 743.32 922.27 427.34 1158.47 506.59 964.08 647.29 899.68 710.19 1062.13 777.72
00005670 00000108 832.39 169.61 489.62 754.03 922.71 426.25 1157.36 506.57 961.36 646.71 899.73 711.25 1062.06 779.51
00005671 00000109 829.14 173.56 493.51 743.50 921.72 429.65 1157.51 507.57 964.79 649.42 898.48 704.76 1065.85 771.05
00005672 00000110 828.97 173.62 491.14 746.19 921.64 434.03 1155.79 507.05 967.87 653.95 902.26 705.03 1075.94 766.87
00005673 00000111 828.54 171.65 490.04 753.55 923.01 430.84 1152.65 505.47 965.60 649.19 902.42 700.91 1076.30 763.94
00005674 00000112 829.00 164.15 488.78 758.36 919.46 426.50 1149.11 494.72 963.58 637.44 903.89 699.32 1079.47 756.93
CROP_BBOX: 397 0 1655 1080
