Video ID: 	LyfM-8YNefM
H: 	1080
W: 	1920
FPS: 	25.0

FRAME INDEX X0 Y0 W H [Landmarks (5 Points)]

00012237 00000000 1182.36 176.52 456.15 617.99 1295.33 397.02 1512.80 425.18 1374.96 523.00 1283.10 627.74 1463.86 651.05
00012238 00000001 1189.28 163.73 457.04 626.26 1300.69 390.07 1517.43 422.94 1377.84 516.70 1283.60 618.02 1469.75 644.31
00012239 00000002 1199.48 158.80 450.51 625.17 1309.91 384.26 1523.70 419.05 1385.13 509.35 1289.98 608.90 1478.62 637.15
00012240 00000003 1207.15 157.35 454.12 621.94 1326.35 379.97 1534.98 423.95 1395.88 500.09 1300.13 598.35 1483.76 634.26
00012241 00000004 1212.80 149.80 458.63 625.72 1331.64 376.11 1540.35 420.46 1398.21 495.28 1307.05 595.84 1485.28 632.38
00012242 00000005 1217.87 148.51 460.30 616.97 1337.73 370.21 1547.21 416.99 1401.48 488.17 1312.13 587.34 1491.42 625.83
00012243 DELETE   1228.33 132.01 461.91 633.10 1351.14 368.83 1548.68 408.82 1409.95 484.13 1321.96 584.22 1485.67 618.63
00012244 00000007 1235.16 125.06 460.88 620.72 1356.57 356.05 1559.79 396.05 1419.33 474.60 1325.69 573.84 1491.95 608.45
00012245 00000008 1243.06 121.71 460.41 614.95 1361.40 349.13 1569.62 385.19 1426.19 465.24 1334.42 570.52 1502.09 601.42
00012246 00000009 1251.72 122.13 458.40 618.18 1371.29 345.80 1577.31 384.39 1432.77 462.21 1342.81 570.55 1505.62 603.60
00012247 00000010 1256.78 122.35 457.17 624.18 1377.01 351.16 1584.13 389.53 1440.33 466.90 1351.19 575.99 1517.13 608.28
00012248 00000011 1263.37 136.41 453.78 610.74 1379.63 354.44 1596.81 397.88 1455.22 466.58 1353.22 581.12 1534.39 616.33
00012249 00000012 1265.03 139.63 454.21 626.21 1385.30 359.76 1600.63 405.12 1461.85 481.91 1358.01 591.14 1539.49 627.92
00012250 00000013 1259.51 154.82 463.40 629.76 1384.91 369.57 1598.38 417.00 1459.81 500.56 1356.89 601.99 1538.22 640.86
00012251 00000014 1256.58 163.27 460.52 631.07 1382.34 379.64 1594.31 426.01 1452.85 516.38 1352.88 611.17 1533.45 649.30
00012252 00000015 1251.37 178.38 462.63 623.81 1378.85 390.77 1590.29 431.32 1452.54 524.72 1352.01 620.37 1531.92 654.24
00012253 00000016 1251.64 181.44 461.73 623.42 1377.59 395.65 1588.58 433.91 1454.84 531.43 1353.65 625.57 1533.36 657.54
00012254 00000017 1247.76 184.28 463.55 624.26 1374.76 397.86 1585.49 434.90 1453.60 537.23 1352.86 628.85 1532.63 659.91
00012255 00000018 1238.03 192.57 463.30 619.89 1368.64 406.15 1575.31 439.35 1448.39 543.14 1347.92 631.95 1526.05 660.45
00012256 00000019 1223.64 186.81 463.85 631.77 1358.84 409.50 1564.25 446.85 1441.14 552.40 1337.32 632.36 1514.46 664.15
00012257 00000020 1204.99 185.12 470.42 637.79 1340.15 409.09 1547.93 443.63 1423.11 547.74 1321.38 633.25 1499.14 662.51
00012258 00000021 1193.63 192.42 469.53 635.63 1317.68 411.92 1537.03 451.42 1402.87 551.60 1300.40 636.15 1486.21 668.33
00012259 00000022 1185.54 182.56 468.00 642.21 1307.52 412.02 1526.21 447.00 1391.13 557.85 1289.63 639.38 1483.51 668.67
00012260 00000023 1179.90 196.85 461.86 637.94 1301.39 412.42 1512.52 446.28 1386.56 555.46 1282.34 636.68 1469.54 664.03
00012261 00000024 1171.07 198.76 459.48 633.60 1293.13 413.78 1500.16 447.16 1377.15 554.03 1275.39 635.14 1454.51 662.21
00012262 00000025 1161.65 192.15 460.21 635.41 1287.97 412.40 1489.20 447.57 1362.00 557.60 1265.12 633.15 1447.01 663.19
00012263 00000026 1156.62 191.84 460.36 634.21 1283.21 412.25 1486.31 448.41 1359.57 557.87 1261.77 634.33 1442.73 665.17
00012264 00000027 1150.37 188.85 463.92 642.47 1279.77 413.20 1482.21 449.24 1356.41 558.34 1259.97 636.16 1441.31 666.60
00012265 00000028 1143.51 189.53 468.48 643.24 1275.62 414.53 1477.98 450.12 1351.38 560.10 1256.22 636.67 1435.75 666.78
00012266 00000029 1136.58 192.66 475.49 643.03 1269.71 415.03 1476.53 450.95 1347.33 563.77 1251.10 634.27 1439.84 664.32
00012267 00000030 1133.15 188.47 475.64 651.26 1266.05 416.73 1474.47 453.54 1345.31 563.56 1246.13 634.54 1440.92 664.80
00012268 00000031 1133.29 182.47 473.67 656.06 1265.07 416.62 1472.48 453.26 1344.03 563.13 1246.03 632.98 1442.32 662.89
00012269 00000032 1134.41 182.76 472.17 655.18 1265.00 417.42 1473.11 453.43 1343.39 563.01 1245.23 632.93 1442.79 662.37
00012270 00000033 1134.24 183.87 472.47 654.52 1265.39 417.79 1473.00 453.16 1343.82 561.91 1245.48 633.44 1442.78 662.40
00012271 00000034 1133.74 186.54 474.62 652.85 1265.23 418.05 1472.27 451.31 1344.01 562.09 1247.97 635.24 1443.50 662.51
00012272 00000035 1134.16 184.95 472.89 652.65 1266.48 420.23 1472.64 453.52 1346.09 561.82 1248.54 635.94 1443.41 663.23
00012273 00000036 1135.65 184.76 471.17 647.90 1267.09 420.20 1472.61 452.64 1347.07 561.92 1250.68 637.52 1441.09 664.46
00012274 00000037 1139.20 182.55 468.63 649.95 1268.78 422.21 1472.71 453.02 1347.98 563.24 1252.18 639.65 1440.88 665.48
00012275 00000038 1141.10 181.26 467.11 650.56 1270.05 424.25 1473.38 454.30 1349.47 562.16 1254.01 641.44 1440.08 666.77
00012276 00000039 1143.86 178.35 464.20 649.63 1274.77 429.18 1473.19 459.27 1352.06 560.73 1256.71 644.18 1435.45 669.65
00012277 00000040 1145.41 177.81 461.75 652.65 1272.58 432.27 1470.13 461.51 1348.81 561.83 1255.20 645.68 1434.06 670.42
00012278 00000041 1146.50 180.90 460.53 653.45 1269.36 434.65 1466.95 463.65 1342.65 563.56 1251.76 646.30 1434.41 670.67
00012279 00000042 1146.21 183.31 460.42 657.47 1264.35 433.44 1463.74 461.32 1337.33 567.54 1249.39 649.75 1433.87 673.19
00012280 00000043 1146.53 187.62 458.47 654.26 1263.21 434.56 1462.26 461.50 1335.60 570.19 1249.56 651.76 1431.95 674.75
00012281 00000044 1142.47 187.20 462.07 660.93 1260.87 434.10 1461.46 463.02 1333.77 571.85 1245.92 652.83 1430.92 677.12
00012282 00000045 1141.66 188.03 461.69 658.23 1259.12 434.14 1460.44 465.12 1331.26 574.95 1244.00 653.87 1427.81 679.89
00012283 00000046 1141.99 189.77 459.81 660.86 1258.63 433.03 1458.87 464.78 1329.76 576.01 1243.42 655.20 1425.71 682.06
00012284 00000047 1143.18 186.22 458.38 658.11 1259.52 434.22 1459.12 461.39 1332.69 573.91 1247.45 656.05 1425.86 679.33
00012285 00000048 1147.40 187.21 455.59 654.63 1260.09 434.36 1459.85 459.36 1333.18 573.59 1251.16 656.98 1427.46 678.75
00012286 00000049 1147.81 186.25 455.31 658.71 1262.11 433.99 1460.43 457.94 1334.89 570.63 1252.11 656.92 1428.48 677.92
00012287 00000050 1145.29 190.44 467.03 654.19 1259.57 433.10 1458.17 455.68 1334.51 566.55 1254.05 657.49 1426.74 676.70
00012288 00000051 1149.83 183.63 461.03 659.30 1256.96 432.12 1461.39 453.54 1333.79 567.29 1253.59 656.97 1422.59 676.18
00012289 00000052 1151.06 184.99 460.67 654.25 1256.38 433.80 1463.04 452.43 1335.71 567.74 1255.19 658.78 1426.96 675.59
00012290 00000053 1159.92 181.40 451.78 650.06 1266.99 431.43 1469.15 450.09 1342.75 564.71 1262.70 658.65 1435.12 675.10
00012291 00000054 1162.12 182.58 453.69 650.54 1262.41 434.11 1470.93 449.93 1339.92 568.15 1264.98 663.46 1435.66 678.10
00012292 00000055 1166.88 183.59 453.73 649.25 1267.42 434.51 1475.22 449.32 1343.94 564.14 1271.47 665.08 1439.04 678.76
00012293 00000056 1170.69 182.53 450.04 654.86 1278.05 428.52 1480.90 446.15 1352.31 560.76 1278.55 665.06 1446.93 680.58
00012294 00000057 1170.65 182.14 450.28 654.79 1282.40 426.71 1482.60 447.39 1354.25 556.85 1275.47 658.48 1443.73 676.58
00012295 00000058 1166.99 180.28 456.66 652.40 1278.90 425.98 1480.08 444.06 1354.36 555.34 1275.17 650.22 1441.75 666.48
00012296 00000059 1166.09 181.30 458.80 650.49 1279.49 425.84 1479.75 443.28 1356.02 552.25 1274.77 645.64 1446.37 661.22
00012297 00000060 1165.06 182.18 459.95 649.28 1278.80 425.01 1478.06 442.87 1355.32 552.02 1272.84 643.04 1447.29 658.91
00012298 00000061 1166.67 184.80 451.23 637.00 1283.15 423.35 1478.91 440.12 1359.47 547.01 1275.28 637.53 1453.17 651.95
00012299 00000062 1166.21 184.89 451.33 636.71 1282.75 422.52 1478.27 438.49 1359.33 544.85 1274.30 634.81 1455.23 648.35
00012300 00000063 1166.00 182.64 450.62 638.32 1283.30 420.75 1479.89 437.17 1360.65 543.13 1273.78 632.61 1456.59 646.41
00012301 00000064 1165.63 180.18 450.86 642.71 1283.17 420.63 1480.92 436.65 1362.02 541.75 1273.26 632.15 1458.29 645.52
00012302 00000065 1167.10 180.31 449.35 639.81 1283.44 419.61 1480.98 435.61 1361.87 541.11 1274.36 631.48 1458.50 644.82
00012303 00000066 1167.84 180.53 448.36 638.91 1282.81 420.68 1480.34 435.71 1361.29 541.09 1274.42 632.03 1458.40 644.61
00012304 00000067 1168.74 179.03 446.79 640.82 1283.16 421.68 1480.08 436.19 1361.33 541.34 1274.54 632.58 1458.73 644.75
00012305 00000068 1168.50 178.66 446.40 642.17 1281.72 422.71 1477.74 436.42 1359.25 542.04 1273.87 633.25 1457.63 644.72
00012306 00000069 1168.68 178.91 446.16 641.72 1280.93 423.01 1477.25 435.81 1358.20 541.29 1274.36 633.67 1458.36 644.30
00012307 00000070 1169.21 179.47 445.39 640.77 1280.33 423.35 1477.08 435.41 1358.46 541.54 1274.79 634.25 1458.70 644.32
00012308 00000071 1169.12 179.67 445.52 642.45 1280.14 423.15 1477.13 435.23 1358.65 541.60 1275.18 634.58 1459.69 644.54
00012309 00000072 1168.77 177.69 445.98 646.37 1279.86 423.45 1477.48 435.55 1359.08 541.42 1273.75 634.52 1460.39 644.37
00012310 00000073 1167.57 179.90 448.18 642.22 1282.06 428.29 1477.63 443.11 1359.77 541.95 1275.23 635.02 1458.86 647.01
00012311 00000074 1169.00 179.97 447.69 634.88 1281.90 430.38 1479.47 443.55 1361.50 541.45 1277.11 634.47 1461.16 645.26
00012312 00000075 1170.01 178.57 446.98 631.48 1281.31 427.98 1481.54 441.83 1363.47 540.93 1277.01 632.47 1462.04 643.70
00012313 00000076 1171.29 175.35 445.16 630.21 1278.04 425.62 1482.47 436.87 1362.53 539.10 1277.39 632.68 1464.68 641.60
00012314 00000077 1173.10 174.78 443.55 626.03 1277.15 422.48 1480.08 429.72 1363.20 535.82 1281.20 632.93 1463.95 638.81
00012315 00000078 1173.59 174.57 443.12 629.22 1274.81 422.00 1477.01 426.64 1361.61 535.12 1282.73 638.61 1460.54 642.63
00012316 00000079 1173.96 174.26 444.27 628.45 1273.54 422.44 1479.22 424.89 1363.47 535.28 1286.77 644.70 1461.98 646.97
00012317 00000080 1175.36 173.73 445.11 628.77 1272.11 421.58 1483.36 424.38 1361.17 537.34 1285.80 648.71 1465.63 650.97
00012318 00000081 1176.47 173.21 445.83 628.15 1272.37 422.46 1486.87 425.37 1360.65 536.69 1286.48 650.71 1465.98 652.99
00012319 00000082 1176.56 172.86 446.16 632.42 1272.57 425.35 1485.25 426.08 1361.33 539.60 1290.36 656.33 1465.92 656.93
00012320 00000083 1176.76 172.62 444.81 631.89 1274.55 426.33 1483.47 424.85 1363.76 538.47 1296.72 657.73 1464.65 656.84
00012321 00000084 1175.68 172.23 445.07 631.70 1275.48 424.61 1482.14 423.95 1364.62 537.67 1297.09 654.75 1464.13 654.65
00012322 00000085 1174.65 171.29 445.79 630.21 1273.81 422.41 1480.12 418.94 1365.03 534.42 1299.58 653.48 1466.70 650.95
00012323 00000086 1173.73 170.70 445.62 632.00 1272.85 420.83 1480.26 417.19 1365.18 533.53 1297.66 652.96 1467.49 650.22
00012324 00000087 1173.16 171.01 448.83 640.43 1273.80 421.94 1479.30 420.05 1365.14 536.26 1295.16 653.02 1466.74 651.63
00012325 00000088 1171.61 170.48 451.01 646.96 1273.52 422.23 1480.37 420.21 1365.85 537.70 1292.41 652.53 1469.49 650.82
00012326 00000089 1169.63 170.64 452.38 648.92 1272.74 422.63 1478.15 419.61 1366.17 538.20 1291.18 649.44 1471.82 646.75
00012327 00000090 1167.03 171.63 454.73 652.25 1270.51 423.51 1475.80 418.07 1364.88 539.70 1289.95 648.67 1475.05 643.88
00012328 00000091 1162.61 168.42 462.69 656.85 1266.86 427.64 1469.70 420.00 1357.78 546.08 1282.81 647.40 1462.43 641.46
00012329 00000092 1160.95 168.67 462.30 652.99 1263.58 431.33 1466.50 424.52 1354.82 554.49 1281.46 648.99 1458.98 643.82
00012330 00000093 1161.43 169.19 453.84 659.42 1263.51 435.60 1464.25 426.98 1356.08 558.76 1285.06 653.59 1465.62 646.23
00012331 00000094 1162.70 168.11 454.80 664.26 1259.35 441.43 1459.91 428.58 1352.82 566.97 1289.96 661.99 1469.80 650.99
00012332 00000095 1165.00 171.61 456.12 668.74 1256.82 447.36 1460.26 432.51 1351.07 575.06 1295.56 679.16 1469.90 666.84
00012333 00000096 1164.91 177.36 456.48 669.06 1261.12 454.44 1462.48 435.85 1358.26 582.91 1307.39 686.43 1474.01 671.51
00012334 00000097 1166.48 184.14 454.59 676.41 1264.99 454.15 1470.56 436.41 1370.23 581.28 1308.78 693.78 1481.02 677.41
00012335 00000098 1169.12 189.43 456.90 676.18 1273.95 458.57 1474.99 443.93 1376.09 585.08 1310.48 690.75 1484.65 676.77
00012336 00000099 1170.41 192.22 456.94 676.03 1279.89 462.10 1480.41 449.37 1382.69 589.56 1314.69 690.14 1489.66 677.85
00012337 00000100 1175.17 195.75 459.36 671.04 1288.95 466.83 1486.84 452.87 1395.17 593.62 1325.05 691.15 1498.30 677.82
00012338 00000101 1180.28 201.10 459.20 670.77 1298.89 472.56 1492.08 459.63 1402.51 598.84 1329.12 691.48 1506.27 679.06
00012339 00000102 1180.63 204.41 463.91 665.46 1303.35 479.99 1499.34 465.30 1412.40 603.92 1335.55 695.70 1515.44 681.88
00012340 00000103 1183.80 207.05 463.56 660.80 1307.67 485.68 1503.88 468.36 1421.08 605.71 1341.72 698.58 1521.34 682.85
00012341 00000104 1184.46 210.56 463.40 656.55 1309.41 488.60 1507.08 470.12 1424.65 610.91 1341.01 696.84 1525.75 680.46
00012342 00000105 1183.95 213.48 464.23 652.69 1310.93 490.49 1507.58 469.97 1426.66 615.36 1344.88 697.20 1528.64 679.25
00012343 00000106 1184.54 215.45 463.61 647.12 1311.13 494.22 1509.44 472.28 1429.50 621.32 1350.86 704.94 1528.31 685.85
00012344 00000107 1182.25 213.77 467.37 652.59 1310.12 499.65 1512.06 477.11 1430.43 629.53 1348.26 707.48 1530.56 687.94
00012345 00000108 1181.22 219.58 458.83 648.51 1309.20 504.68 1510.29 482.95 1428.93 629.32 1348.92 714.44 1525.05 695.71
00012346 00000109 1177.68 224.70 462.94 649.37 1309.24 513.08 1513.32 496.93 1423.54 633.85 1343.89 716.60 1523.42 702.20
00012347 00000110 1174.81 226.88 460.81 647.52 1304.13 518.80 1503.10 501.01 1415.30 636.50 1339.64 717.42 1518.22 701.78
00012348 00000111 1166.99 229.58 465.23 646.39 1293.22 520.59 1495.04 504.07 1404.62 636.86 1328.92 717.73 1509.79 703.18
00012349 00000112 1164.60 228.86 464.43 644.59 1289.15 518.51 1486.73 498.55 1400.11 638.68 1331.27 721.67 1503.64 704.18
00012350 00000113 1163.01 227.28 466.27 643.50 1286.12 515.55 1483.39 495.13 1396.22 638.69 1330.04 720.34 1500.03 702.59
00012351 00000114 1160.93 229.09 466.98 640.71 1281.78 511.26 1480.37 490.34 1392.58 639.92 1329.90 721.18 1497.34 703.03
00012352 00000115 1159.93 225.27 467.80 644.51 1280.48 506.74 1478.60 488.31 1389.47 637.06 1327.98 718.43 1493.92 702.36
00012353 00000116 1158.48 223.03 468.22 645.63 1278.33 502.38 1476.85 481.76 1390.02 632.68 1328.43 715.59 1495.24 697.85
00012354 00000117 1158.38 223.02 467.45 647.42 1279.44 497.43 1475.58 477.07 1390.19 627.75 1331.55 714.39 1493.92 697.02
00012355 00000118 1159.27 218.75 467.07 652.84 1282.44 495.46 1477.61 476.01 1393.21 626.85 1331.79 712.93 1495.09 696.55
00012356 00000119 1160.52 217.65 465.13 650.42 1284.96 492.65 1478.99 472.82 1396.58 620.12 1331.23 707.70 1499.16 690.84
00012357 00000120 1159.24 215.82 465.86 653.42 1285.11 490.89 1477.40 472.92 1394.62 617.32 1326.35 703.21 1497.65 687.87
00012358 00000121 1157.52 213.61 463.75 657.76 1281.91 488.22 1475.22 471.70 1390.85 617.22 1319.99 700.85 1495.33 686.75
00012359 00000122 1154.67 212.06 465.49 657.93 1281.22 489.15 1473.51 475.29 1387.67 613.14 1315.75 697.82 1493.08 685.53
00012360 00000123 1154.38 209.37 464.63 659.91 1279.80 488.58 1472.73 477.32 1383.29 610.63 1311.05 697.07 1488.51 686.52
00012361 00000124 1155.63 203.00 458.62 660.71 1274.39 488.53 1468.82 472.13 1380.04 604.46 1307.03 696.97 1486.32 682.23
00012362 00000125 1153.50 195.48 461.57 666.71 1269.55 479.22 1467.43 460.69 1377.24 595.21 1304.80 692.11 1487.56 675.34
00012363 00000126 1155.51 188.11 462.25 674.27 1263.46 470.71 1464.04 451.17 1364.73 593.91 1304.19 690.54 1483.87 674.24
00012364 00000127 1154.47 183.29 460.48 670.09 1259.62 462.04 1455.90 440.76 1358.87 580.04 1299.27 682.07 1477.80 664.32
00012365 00000128 1151.64 169.18 462.53 676.26 1255.90 450.27 1453.68 428.68 1357.21 570.58 1294.49 672.13 1473.09 654.41
00012366 00000129 1154.33 162.19 456.11 673.92 1255.91 445.21 1451.52 423.11 1357.70 564.42 1294.12 667.00 1470.54 648.83
00012367 00000130 1151.95 166.60 465.01 658.60 1250.59 444.42 1447.84 420.92 1348.00 567.14 1292.93 665.31 1458.65 645.12
00012368 00000131 1149.14 163.45 467.05 654.28 1246.20 441.36 1444.65 416.34 1344.10 563.88 1292.32 661.87 1457.07 640.37
00012369 00000132 1146.78 159.40 467.03 651.80 1241.38 437.22 1442.02 413.02 1338.35 558.21 1286.78 658.21 1451.05 637.79
00012370 00000133 1146.23 154.30 466.24 659.64 1240.23 429.97 1437.05 407.49 1332.54 548.97 1283.74 654.51 1447.50 635.59
00012371 00000134 1143.81 151.69 468.09 662.50 1236.97 425.64 1434.88 400.40 1329.91 540.41 1281.80 652.31 1446.02 631.37
00012372 00000135 1144.30 142.48 462.60 662.27 1236.83 420.81 1433.19 395.87 1328.38 533.13 1281.73 645.08 1444.04 624.19
00012373 00000136 1142.05 147.54 452.28 641.59 1234.35 413.67 1432.80 392.19 1326.67 520.23 1280.40 635.26 1447.36 615.29
00012374 00000137 1137.21 145.80 448.98 638.30 1226.94 409.10 1425.63 385.26 1318.53 511.59 1271.77 626.75 1446.45 604.66
00012375 00000138 1132.18 138.69 452.06 632.25 1220.22 405.19 1421.51 380.24 1312.85 505.86 1261.56 618.97 1443.56 595.84
00012376 00000139 1129.74 137.02 450.86 627.01 1216.84 401.50 1417.01 373.63 1309.11 497.77 1259.20 613.09 1441.14 587.93
00012377 00000140 1126.79 139.49 451.48 619.69 1213.12 399.92 1411.36 370.74 1303.64 491.81 1256.98 610.05 1436.52 583.83
00012378 00000141 1124.25 137.31 450.80 624.35 1211.06 397.92 1406.97 370.44 1300.78 491.32 1254.35 610.05 1431.33 585.44
00012379 00000142 1120.88 132.82 454.98 639.01 1206.82 398.06 1404.23 369.68 1294.79 495.15 1254.23 617.13 1428.03 591.36
00012380 00000143 1119.54 130.84 454.80 647.46 1205.04 398.97 1400.74 369.99 1291.69 495.35 1251.74 620.70 1427.08 594.28
00012381 00000144 1118.65 131.77 450.97 643.92 1202.04 401.06 1397.70 371.24 1289.21 496.67 1246.21 621.39 1423.11 594.63
00012382 00000145 1116.45 131.19 448.34 640.37 1196.95 403.77 1396.63 373.62 1285.13 503.38 1239.45 622.97 1420.74 596.50
00012383 00000146 1115.15 125.23 448.35 647.86 1191.03 401.59 1388.59 367.81 1272.28 506.20 1236.54 620.69 1410.20 592.41
00012384 00000147 1112.82 127.61 444.70 645.83 1188.75 403.00 1383.38 369.08 1265.86 503.92 1232.51 621.53 1402.96 593.32
00012385 00000148 1111.56 128.28 445.08 646.44 1186.64 402.39 1379.40 367.27 1262.70 503.22 1233.73 625.21 1398.32 596.48
00012386 00000149 1110.20 126.80 445.15 646.36 1185.54 400.16 1376.92 364.65 1261.63 499.80 1231.60 620.58 1397.21 591.60
00012387 00000150 1110.40 125.59 444.95 646.86 1184.80 400.41 1376.53 364.31 1260.38 498.88 1229.40 618.73 1398.70 589.03
00012388 00000151 1110.05 128.73 444.17 641.04 1185.69 396.78 1375.78 361.74 1260.22 493.99 1226.91 612.25 1397.49 583.51
00012389 00000152 1109.77 122.61 446.02 643.98 1186.98 393.61 1376.34 358.40 1262.53 488.33 1228.48 605.91 1400.13 576.83
00012390 00000153 1111.26 120.21 443.25 642.93 1189.01 390.59 1379.72 355.54 1266.82 484.50 1230.14 601.54 1404.71 572.32
00012391 00000154 1113.06 114.10 439.20 643.50 1190.31 383.51 1381.53 352.54 1267.69 478.90 1228.85 596.00 1402.93 570.40
00012392 00000155 1113.68 109.38 438.25 637.82 1190.39 377.00 1386.15 347.94 1269.63 472.05 1226.29 589.24 1404.66 564.90
00012393 00000156 1116.34 111.00 438.85 627.13 1191.92 373.00 1387.46 345.14 1270.55 465.50 1226.41 582.99 1404.05 559.56
00012394 00000157 1117.05 107.25 436.53 617.50 1190.69 367.42 1389.90 341.38 1271.72 460.09 1225.15 576.25 1405.49 554.01
00012395 00000158 1115.67 103.69 436.98 618.96 1189.27 364.55 1393.15 336.02 1274.27 454.81 1225.26 572.51 1412.56 547.94
00012396 00000159 1115.16 104.08 438.33 615.75 1187.90 363.13 1392.58 334.08 1272.88 451.72 1225.71 571.08 1412.71 545.83
00012397 00000160 1114.05 104.63 438.43 616.90 1188.19 362.65 1390.90 333.93 1271.76 451.35 1226.39 573.23 1408.51 548.53
00012398 00000161 1112.05 104.88 438.67 622.31 1187.12 364.09 1387.78 336.04 1270.78 454.67 1224.97 574.19 1408.02 550.01
00012399 00000162 1109.46 105.27 442.61 632.92 1183.70 368.72 1383.32 338.93 1264.99 458.01 1221.65 580.15 1404.97 554.86
