Video ID: 	5tdx08iP0TA
H: 	1080
W: 	1920
FPS: 	25.0

FRAME INDEX X0 Y0 W H [Landmarks (5 Points)]

00007058 00000000 507.50 200.45 462.87 626.74 664.42 441.66 880.88 466.71 783.61 551.42 652.16 653.19 846.15 674.87
00007059 DELETE   508.69 197.89 463.25 629.78 665.34 436.36 884.54 462.37 784.99 550.81 651.29 651.04 848.90 673.57
00007060 00000002 510.40 196.09 462.52 634.76 666.54 432.17 886.21 457.12 788.70 550.11 653.35 650.57 852.35 672.24
00007061 DELETE   513.80 193.29 459.39 637.46 668.08 428.12 887.09 452.33 791.67 549.13 655.53 649.53 854.64 670.68
00007062 00000004 516.34 192.30 458.05 640.39 669.79 427.29 886.82 451.15 794.17 548.49 659.29 650.35 856.27 671.02
00007063 00000005 520.04 191.57 455.07 640.42 671.61 426.99 887.70 449.57 795.97 548.46 663.10 650.68 858.77 670.20
00007064 00000006 522.90 192.50 454.85 643.23 673.39 428.85 889.62 449.38 799.00 550.44 666.52 653.96 862.75 671.58
00007065 00000007 524.86 193.29 455.63 642.75 676.14 432.60 892.51 452.03 802.71 554.27 669.86 656.62 865.49 673.29
00007066 00000008 526.58 192.07 457.51 646.96 679.74 435.05 895.93 455.42 805.57 559.53 671.91 658.61 868.32 676.14
00007067 00000009 532.17 201.23 453.21 641.53 685.11 438.73 896.06 462.51 811.05 565.44 674.36 660.98 873.93 680.47
00007068 00000010 537.03 203.36 450.19 638.36 688.23 442.45 899.82 467.35 814.02 569.68 677.65 662.49 878.50 683.08
00007069 00000011 536.18 197.06 455.15 639.06 690.70 446.19 904.09 469.45 814.72 571.21 684.35 664.71 877.01 683.73
00007070 00000012 541.08 206.07 447.11 625.19 692.31 443.51 905.22 469.01 819.45 568.51 686.19 659.75 885.28 680.57
00007071 00000013 542.45 205.61 448.35 623.17 693.02 442.52 907.93 468.08 820.70 567.58 688.09 659.02 887.64 679.79
00007072 00000014 541.53 198.94 452.09 623.68 696.40 446.05 909.92 467.80 819.75 572.61 691.30 659.81 882.90 677.74
00007073 00000015 543.52 196.53 454.62 624.28 698.84 444.69 912.81 464.98 821.71 571.93 692.40 656.40 887.64 673.08
00007074 00000016 546.04 195.42 456.23 623.43 702.25 445.00 914.98 464.34 824.15 571.65 695.93 655.19 890.01 671.06
00007075 00000017 547.30 193.53 456.39 623.29 704.61 443.75 915.97 463.72 825.21 569.94 698.21 653.54 889.91 669.87
00007076 00000018 550.11 192.13 454.88 628.28 705.37 441.51 917.45 460.50 826.56 569.12 699.29 654.51 892.59 670.06
00007077 00000019 551.56 191.44 457.34 633.77 706.05 441.28 918.52 459.89 827.29 568.56 701.39 656.88 893.29 671.86
00007078 00000020 554.59 193.25 452.99 633.13 711.83 438.94 922.44 456.74 834.29 560.30 705.31 658.80 892.07 675.02
00007079 00000021 556.23 195.55 454.06 630.83 712.42 439.82 924.08 456.25 835.50 560.71 707.05 659.38 894.69 674.57
00007080 00000022 556.52 195.38 454.28 630.37 711.71 438.71 924.36 453.83 835.65 559.24 707.73 659.29 896.21 673.43
00007081 00000023 557.62 194.28 453.88 632.27 712.32 436.75 924.58 452.38 835.63 558.20 708.40 657.88 896.86 672.47
00007082 00000024 558.35 194.22 453.74 631.99 711.47 435.72 924.81 451.27 834.45 557.44 708.06 657.20 897.01 671.70
00007083 00000025 557.92 196.81 457.87 627.15 703.98 437.53 919.75 453.58 829.32 558.84 704.41 656.83 901.38 669.22
00007084 00000026 556.64 198.98 459.48 629.32 699.38 432.98 915.79 450.46 821.72 552.54 700.65 655.91 896.48 669.15
00007085 00000027 555.60 199.00 459.85 632.87 698.12 428.96 913.26 447.98 818.68 547.87 697.69 654.57 892.24 669.14
00007086 00000028 556.24 200.05 459.16 633.42 699.28 427.28 913.36 444.00 820.72 544.29 700.25 653.37 893.48 666.03
00007087 00000029 557.65 200.92 459.58 629.43 702.50 425.72 916.11 440.88 825.12 540.80 705.83 651.12 897.09 662.49
00007088 00000030 561.06 201.69 458.49 628.32 708.47 423.03 919.15 436.67 831.48 537.85 712.62 649.91 900.17 660.02
00007089 00000031 563.27 189.32 454.69 638.21 714.70 419.93 922.56 429.73 838.60 534.77 722.51 647.39 905.98 656.67
00007090 00000032 569.23 187.78 452.88 634.69 720.22 421.43 930.78 432.06 847.75 533.90 729.09 646.79 914.37 656.58
00007091 00000033 573.05 188.70 453.36 626.82 723.17 423.83 938.31 433.45 853.65 536.75 732.50 647.41 921.79 656.37
00007092 00000034 574.42 192.09 455.13 617.98 724.56 427.79 945.14 437.40 857.74 542.19 733.58 651.04 925.50 660.01
00007093 00000035 574.39 194.27 458.95 615.92 723.81 433.72 946.94 442.35 856.21 546.89 732.12 653.65 927.21 661.78
00007094 00000036 575.07 195.03 461.15 614.39 725.13 435.93 948.51 444.08 856.97 548.46 733.64 653.43 929.17 661.12
00007095 00000037 576.16 194.54 463.64 618.90 727.68 437.47 950.55 448.10 858.68 550.91 733.53 655.49 929.00 665.11
00007096 00000038 577.99 194.85 464.16 633.19 729.79 438.54 949.15 450.67 859.61 555.21 735.57 662.99 927.33 673.86
00007097 00000039 579.04 196.83 465.90 651.64 733.04 438.72 952.52 454.92 862.84 558.66 734.51 670.85 928.09 684.97
00007098 00000040 579.74 198.26 467.63 651.28 735.06 440.38 954.70 457.76 864.86 560.79 736.20 672.53 929.62 687.50
00007099 00000041 584.91 199.55 464.13 638.25 737.49 443.53 958.12 459.81 866.74 562.85 739.17 670.85 931.42 684.89
00007100 00000042 587.98 199.21 464.65 628.24 738.91 445.96 960.41 460.57 867.35 564.16 741.43 667.71 934.36 680.14
00007101 00000043 589.38 198.55 466.10 628.82 741.31 446.25 963.06 461.00 868.98 565.91 744.21 668.42 936.22 681.00
00007102 00000044 592.03 197.51 465.72 630.57 741.95 444.17 963.49 459.95 868.41 566.11 745.57 669.31 935.33 682.60
00007103 00000045 593.81 198.79 465.17 624.95 739.33 442.88 963.58 458.08 865.05 565.86 745.27 668.55 935.81 681.18
00007104 00000046 595.01 201.36 466.20 620.29 737.27 444.25 964.64 458.49 862.42 566.30 745.92 669.10 937.34 680.83
00007105 00000047 596.45 201.89 466.48 619.17 737.08 443.86 964.41 458.21 860.68 565.53 745.83 668.94 936.98 680.61
00007106 00000048 600.16 202.18 465.27 634.79 737.36 444.41 965.97 459.84 859.75 568.66 746.44 677.25 939.26 689.43
00007107 00000049 606.62 208.74 458.92 638.13 741.73 446.41 964.15 464.46 861.48 567.08 749.40 682.70 939.07 696.40
00007108 00000050 611.14 211.43 459.70 640.92 743.20 451.27 967.13 468.07 861.51 572.87 749.32 686.74 943.70 699.75
00007109 00000051 614.98 213.03 460.75 638.21 746.33 452.96 971.34 469.92 863.88 576.28 752.13 686.16 949.58 699.31
00007110 00000052 619.08 214.22 462.28 632.12 753.85 454.83 977.02 471.21 873.23 579.72 763.76 685.54 958.68 697.88
00007111 00000053 625.79 215.29 460.56 636.17 761.30 455.36 984.18 471.63 882.95 580.87 771.83 689.68 965.17 701.84
00007112 00000054 627.65 217.92 463.74 643.10 770.78 457.88 989.76 468.69 889.63 582.76 774.88 693.25 960.81 702.77
00007113 00000055 633.41 217.57 463.45 643.04 775.30 457.70 993.82 469.56 893.77 582.82 777.70 691.63 965.08 701.98
00007114 00000056 642.45 218.13 460.52 642.13 780.37 455.16 998.43 468.83 897.63 580.59 782.39 690.70 969.17 702.61
00007115 00000057 647.72 216.99 463.52 638.66 785.25 453.67 1005.06 468.08 902.01 579.78 789.06 689.96 974.69 702.39
00007116 00000058 652.78 214.81 465.22 632.88 791.07 454.22 1010.56 468.47 908.28 578.21 797.40 687.06 980.10 699.22
00007117 00000059 659.75 210.89 464.79 631.03 798.22 451.63 1021.39 466.67 919.95 573.05 806.39 684.62 990.92 697.20
00007118 00000060 666.01 208.55 465.87 626.82 812.06 451.76 1037.65 466.49 937.64 572.12 821.84 682.06 1007.26 694.23
00007119 00000061 676.45 200.83 460.23 629.68 826.85 449.06 1048.20 463.87 955.28 573.10 837.26 677.61 1022.50 689.83
00007120 00000062 683.48 200.55 459.76 629.30 835.25 448.39 1054.35 464.53 962.34 573.73 844.19 674.81 1029.27 687.86
00007121 00000063 688.83 204.53 462.27 626.37 839.67 444.70 1058.83 462.78 970.39 568.64 847.82 671.28 1040.22 685.08
00007122 00000064 690.19 203.35 463.24 628.95 845.01 445.11 1061.93 462.79 976.70 570.74 853.91 672.83 1043.19 686.15
00007123 00000065 693.49 196.95 462.50 647.49 856.50 449.11 1067.25 462.59 983.96 572.53 859.35 679.01 1037.30 691.28
00007124 00000066 697.13 197.97 461.35 649.07 858.02 450.73 1068.65 463.33 986.31 573.66 862.61 681.19 1040.97 692.66
00007125 00000067 700.09 198.71 460.22 648.21 859.05 451.00 1070.50 463.66 987.70 574.38 865.43 682.67 1042.35 694.18
00007126 00000068 699.76 197.06 461.39 644.73 859.77 449.96 1072.08 461.05 989.05 572.13 866.68 680.01 1044.17 690.32
00007127 00000069 700.78 194.70 462.04 637.99 860.08 447.92 1075.02 456.87 990.65 568.16 868.62 675.13 1048.19 683.64
00007128 00000070 702.19 192.93 461.67 634.17 859.92 446.39 1077.25 454.05 991.09 563.49 868.90 671.41 1050.95 678.79
00007129 00000071 703.74 194.22 461.67 631.50 861.60 444.53 1079.48 453.17 992.53 561.55 869.67 668.58 1052.57 676.89
00007130 00000072 706.10 194.29 461.08 631.40 863.37 444.81 1081.42 452.98 995.49 561.87 872.62 669.09 1055.49 676.95
00007131 00000073 707.81 194.53 460.26 631.58 864.97 445.79 1082.84 454.08 997.77 562.08 874.48 669.40 1058.30 677.27
00007132 00000074 708.33 196.40 459.97 632.24 866.19 446.49 1083.11 455.97 998.63 563.58 875.21 671.08 1057.58 680.03
00007133 00000075 709.03 197.08 459.01 632.13 865.95 446.20 1083.00 455.46 998.85 563.62 876.14 672.37 1057.66 681.16
00007134 00000076 709.24 197.59 458.97 630.71 865.98 446.91 1082.51 455.68 999.40 563.08 876.99 672.78 1057.79 681.12
00007135 00000077 707.84 196.23 459.35 631.46 864.81 448.05 1081.09 455.76 997.90 562.49 876.69 672.94 1057.21 680.44
00007136 00000078 706.95 195.68 458.52 632.75 862.47 448.69 1078.48 454.91 995.55 563.06 873.96 672.95 1056.18 679.23
00007137 00000079 705.58 197.63 457.95 631.26 861.37 449.13 1075.94 455.49 993.83 563.51 874.27 673.86 1053.54 680.36
00007138 00000080 705.14 197.58 457.45 628.64 859.30 450.99 1074.99 456.59 991.23 564.35 872.71 673.96 1052.37 679.82
00007139 DELETE   702.44 198.48 457.65 622.62 857.87 461.19 1075.12 464.37 988.58 565.74 869.47 672.79 1051.71 676.55
00007140 00000082 701.85 197.54 458.04 622.25 856.65 461.33 1073.23 465.23 986.04 563.76 869.57 671.12 1050.94 675.29
00007141 00000083 700.75 196.60 458.24 629.44 855.83 458.50 1069.39 464.78 983.54 561.31 871.06 672.66 1047.59 678.69
00007142 00000084 701.65 195.39 457.89 632.49 854.41 455.83 1066.93 462.33 979.34 559.19 870.53 672.44 1043.42 678.91
00007143 00000085 702.73 194.45 456.77 633.50 852.66 453.69 1065.28 460.89 975.34 556.08 867.07 670.49 1040.36 677.59
00007144 00000086 703.85 193.92 455.69 631.81 851.70 451.94 1064.88 459.65 972.32 553.97 865.89 669.28 1037.99 676.87
00007145 00000087 704.39 193.91 455.26 626.80 851.66 449.84 1062.88 457.53 969.83 550.14 864.76 664.95 1035.35 672.57
00007146 00000088 704.73 199.44 458.80 611.59 847.58 441.92 1061.47 453.49 970.28 550.14 866.61 661.80 1042.07 668.62
00007147 00000089 704.24 196.24 458.43 609.08 846.38 435.08 1063.72 447.97 970.21 543.11 864.41 655.55 1043.12 663.51
00007148 00000090 707.85 193.11 457.10 614.09 848.63 427.86 1067.73 441.50 972.50 537.48 863.01 653.28 1044.22 662.00
00007149 00000091 710.42 189.11 452.35 631.29 856.80 424.47 1069.03 436.72 977.69 535.74 865.51 655.42 1040.05 667.32
00007150 00000092 711.03 189.55 451.74 630.06 857.85 424.19 1071.21 436.90 980.43 536.63 865.04 655.37 1041.59 667.69
00007151 00000093 712.96 187.93 451.76 623.20 861.16 424.48 1072.37 436.12 983.16 538.39 870.07 650.74 1045.77 662.04
00007152 00000094 713.96 190.86 452.18 615.06 864.58 427.29 1076.34 438.55 987.21 539.44 875.49 650.65 1048.30 661.45
00007153 00000095 716.17 190.09 451.30 616.60 867.48 430.22 1078.20 441.14 991.26 542.25 879.99 653.85 1050.48 664.28
00007154 00000096 714.84 191.10 451.98 613.07 868.74 431.45 1078.33 442.13 993.62 542.03 881.39 653.09 1050.69 663.24
00007155 00000097 715.34 190.62 449.48 606.46 869.50 429.98 1081.16 440.83 994.38 540.98 881.72 651.67 1050.75 661.89
00007156 00000098 713.88 187.84 449.94 613.20 868.60 427.96 1079.69 440.26 993.13 539.51 880.37 651.23 1049.75 662.58
00007157 00000099 711.75 187.94 449.97 610.47 862.25 424.57 1074.99 439.71 991.31 540.53 878.71 651.16 1050.50 661.43
00007158 00000100 707.82 188.02 453.94 610.47 861.39 423.80 1072.57 438.31 990.67 539.32 878.21 648.08 1049.24 657.74
00007159 00000101 703.36 188.08 458.06 613.44 857.09 423.54 1070.95 439.90 985.76 541.17 871.21 648.89 1045.26 660.21
00007160 00000102 700.36 190.53 461.42 613.39 853.27 425.66 1067.19 443.63 979.81 541.11 863.35 648.28 1039.56 660.93
00007161 00000103 697.60 194.39 459.36 612.19 851.28 427.04 1062.69 445.87 975.15 542.38 859.46 649.36 1035.14 662.90
00007162 DELETE   693.91 193.52 454.49 613.11 847.29 439.79 1054.48 457.60 963.56 548.34 852.65 652.24 1024.54 666.64
00007163 00000105 691.16 203.80 453.59 608.71 835.23 439.39 1045.85 460.21 954.68 542.49 843.18 654.78 1021.67 669.99
00007164 00000106 684.12 199.59 453.38 605.22 825.38 441.24 1039.16 459.03 934.88 552.50 829.75 656.21 1005.90 671.05
00007165 DELETE   679.15 200.37 455.75 604.06 812.70 439.54 1032.54 456.32 919.57 553.47 816.69 655.65 998.59 669.75
00007166 00000108 673.88 202.52 456.84 605.15 802.37 438.86 1025.06 454.86 909.74 555.97 806.22 655.11 991.93 668.68
00007167 00000109 669.65 201.46 456.38 607.44 794.93 439.82 1016.02 453.45 902.61 556.55 801.52 657.52 983.61 669.42
00007168 00000110 665.26 201.57 457.28 610.38 790.63 441.38 1007.04 455.93 892.09 556.46 792.97 656.66 974.02 669.43
00007169 00000111 660.85 201.47 458.13 612.03 785.57 440.38 1001.40 455.09 885.39 554.44 786.83 656.25 967.48 669.37
00007170 00000112 657.49 200.71 456.32 614.03 780.86 439.47 995.93 453.82 880.48 553.15 782.32 656.96 960.22 670.15
00007171 00000113 655.22 201.74 453.85 616.52 776.17 439.39 991.28 452.85 875.87 553.43 777.74 660.98 953.74 673.82
00007172 DELETE   651.36 205.29 455.87 613.38 774.50 443.69 990.42 456.11 874.08 553.84 777.09 662.68 952.21 674.80
00007173 00000115 648.41 203.29 456.71 608.61 774.66 442.06 992.35 452.26 878.02 546.94 779.02 658.31 956.78 668.62
00007174 DELETE   644.99 200.49 457.87 604.75 776.11 435.52 992.89 446.58 880.56 536.81 781.76 652.08 954.95 662.89
00007175 DELETE   640.69 193.26 455.22 600.32 767.77 426.29 990.68 441.96 877.17 529.90 777.86 646.67 961.86 657.11
00007176 00000118 640.83 182.71 449.00 597.79 765.30 411.91 987.43 427.64 872.19 518.81 777.32 635.79 958.20 648.24
00007177 00000119 635.08 179.65 451.70 600.77 763.61 402.27 983.85 420.58 872.31 511.14 774.93 631.37 953.53 645.85
00007178 00000120 631.00 177.93 452.92 599.04 760.51 398.90 980.77 418.37 870.80 508.00 771.92 629.49 949.79 645.06
00007179 00000121 626.37 177.50 454.38 595.52 758.88 398.04 980.91 419.25 871.20 507.24 768.10 626.38 949.33 643.74
00007180 00000122 622.60 177.41 453.18 593.17 758.39 396.85 981.15 420.36 873.10 507.04 765.28 622.40 950.15 641.94
00007181 00000123 618.00 178.53 454.04 588.38 756.66 397.69 979.49 421.52 873.74 508.96 765.02 621.39 950.26 641.14
00007182 00000124 615.97 177.09 449.96 585.10 757.29 397.12 978.84 421.46 876.20 509.29 766.34 617.13 951.32 637.31
00007183 00000125 614.78 173.89 448.76 586.76 758.88 395.47 979.11 420.76 879.03 508.27 768.12 613.81 951.89 634.65
00007184 00000126 613.70 174.06 449.05 589.56 759.81 396.98 981.29 422.23 881.86 510.17 769.87 614.91 954.09 635.64
00007185 00000127 612.73 175.97 447.48 591.40 761.52 400.49 980.35 425.26 883.70 515.68 771.31 618.33 952.51 639.00
00007186 00000128 610.21 177.34 447.73 596.44 762.51 407.52 981.04 430.24 886.42 521.57 771.14 625.77 951.44 645.04
00007187 00000129 610.16 177.83 448.47 608.74 765.74 416.50 980.26 438.25 890.45 528.62 769.11 632.92 950.03 651.85
00007188 00000130 610.46 181.89 446.29 607.55 767.87 420.30 977.74 442.73 891.10 532.50 771.53 636.64 945.49 656.29
00007189 00000131 610.83 182.39 445.33 606.25 768.24 424.98 980.67 443.35 895.95 538.62 776.86 643.02 950.80 659.04
00007190 00000132 609.78 182.95 445.65 604.79 770.02 428.17 981.55 443.49 899.10 543.98 780.50 643.75 954.05 657.24
00007191 00000133 609.52 182.64 445.68 613.61 773.30 430.87 978.33 446.74 901.73 545.94 785.84 648.55 950.87 662.42
00007192 00000134 610.68 194.23 445.82 620.43 772.98 431.60 979.84 451.88 908.34 547.66 786.22 657.69 956.76 672.62
00007193 00000135 609.81 198.23 445.28 626.63 770.81 432.42 977.18 453.19 906.89 548.69 783.09 662.65 954.12 678.16
00007194 00000136 609.21 197.73 444.26 627.87 767.10 432.30 976.29 453.63 903.42 548.51 777.26 662.92 953.51 679.03
00007195 00000137 606.00 197.42 445.16 624.93 763.18 432.34 972.78 454.09 898.61 547.55 774.69 662.70 949.27 678.99
00007196 00000138 604.72 189.18 447.41 623.58 760.51 432.81 972.25 452.14 889.45 552.77 767.55 660.36 939.99 677.31
00007197 00000139 600.50 186.64 449.53 619.42 755.09 428.34 969.38 448.88 880.03 549.47 759.41 655.15 933.57 673.47
00007198 00000140 596.18 187.25 450.46 615.81 749.99 424.39 964.24 446.22 872.78 543.61 750.64 648.98 926.65 668.42
00007199 00000141 591.62 190.19 453.99 610.05 745.94 424.32 960.78 447.28 865.97 541.98 743.29 644.47 922.15 664.67
00007200 00000142 587.12 190.44 458.32 609.85 740.63 424.58 956.96 447.50 859.89 541.65 737.49 643.73 918.95 663.92
00007201 DELETE   582.07 196.22 462.35 608.61 734.76 434.79 952.38 453.05 854.03 541.82 733.84 649.45 916.55 665.86
00007202 DELETE   580.34 197.72 462.37 611.62 730.64 433.71 949.41 453.00 848.91 545.83 728.41 652.63 911.10 670.01
00007203 DELETE   579.47 194.95 462.01 614.48 727.90 430.76 949.49 451.71 846.47 548.55 723.19 652.35 908.78 671.06
00007204 00000146 577.94 196.06 461.19 614.44 726.17 430.14 946.58 450.23 844.51 549.12 721.94 652.19 906.87 670.30
00007205 00000147 578.21 195.74 459.54 617.61 726.15 430.10 944.18 450.24 844.77 549.39 722.75 653.66 906.22 671.78
00007206 00000148 576.36 194.06 459.83 624.06 727.99 425.74 942.69 447.79 846.71 544.25 724.45 652.27 905.28 672.02
00007207 00000149 577.14 190.26 457.48 620.18 732.35 422.83 945.03 443.30 853.98 536.04 730.18 645.20 912.11 663.60
00007208 00000150 578.18 189.80 453.75 605.70 736.15 417.32 951.15 438.06 860.70 527.57 735.74 638.26 918.09 656.67
00007209 00000151 578.85 190.01 452.61 595.31 737.38 414.72 954.81 435.16 863.91 524.35 738.55 631.43 924.29 649.43
00007210 00000152 579.39 186.96 452.61 591.42 738.81 413.39 956.55 433.95 865.51 522.31 740.59 627.10 925.90 644.90
00007211 00000153 579.34 187.19 452.42 590.13 739.39 413.39 956.59 433.47 866.58 522.89 742.43 626.34 927.01 643.71
00007212 00000154 579.78 187.10 451.39 589.62 740.12 412.10 956.54 433.00 866.77 522.67 742.52 625.38 926.86 643.51
00007213 00000155 579.26 185.88 451.67 597.52 741.22 410.58 955.39 433.37 867.06 524.07 741.44 628.14 923.35 648.08
00007214 00000156 578.45 185.07 451.36 610.11 740.89 410.12 952.01 433.81 865.79 524.44 738.72 632.75 917.61 653.79
00007215 00000157 579.15 186.49 450.77 609.46 740.46 408.91 952.60 433.50 865.23 524.64 737.29 632.86 917.18 654.64
00007216 00000158 580.75 186.74 450.14 603.87 741.35 409.18 954.85 434.04 865.55 525.07 737.72 629.62 919.65 651.47
00007217 00000159 581.61 186.29 450.91 600.29 742.19 407.91 956.26 433.18 866.00 524.32 739.38 627.26 921.34 649.30
00007218 00000160 584.24 185.51 450.96 600.81 742.92 406.95 956.81 432.32 865.72 524.19 739.78 626.59 921.79 648.68
00007219 00000161 586.98 183.29 452.20 599.24 744.55 404.95 959.27 430.93 866.37 522.83 740.84 623.67 923.86 646.10
00007220 DELETE   589.45 183.32 450.24 593.17 746.78 412.05 963.07 437.01 867.98 523.22 744.06 623.13 928.59 644.65
00007221 00000163 591.98 184.49 449.29 592.06 748.62 414.36 963.80 439.47 868.89 523.17 744.52 623.07 928.73 644.81
00007222 00000164 593.60 183.48 447.79 593.41 750.31 415.39 964.48 438.84 871.06 525.65 748.46 624.26 930.85 644.70
00007223 00000165 595.39 180.92 447.97 598.13 752.64 412.72 966.88 434.00 874.72 528.06 752.56 625.12 935.01 643.99
00007224 00000166 600.96 176.22 444.95 603.06 757.60 408.83 971.74 428.77 882.13 525.37 761.11 625.82 942.81 643.32
00007225 00000167 605.76 174.97 442.68 606.83 764.02 407.77 976.70 425.16 894.16 524.01 769.59 627.68 950.31 643.16
00007226 00000168 608.61 174.88 440.01 613.12 768.70 412.45 978.70 427.49 903.96 526.71 775.56 631.56 955.46 645.17
00007227 00000169 606.38 177.38 441.47 611.88 771.46 415.91 980.10 429.98 908.24 529.28 781.26 634.80 956.64 647.41
