Video ID: 	SmcrU9yO-YU
H: 	1080
W: 	1920
FPS: 	23.976023976023978

FRAME INDEX X0 Y0 W H [Landmarks (5 Points)]

00074211 00000000 876.98 195.45 395.11 548.25 1022.34 428.30 1202.99 424.29 1136.78 553.49 1012.22 590.47 1190.37 590.13
00074212 DELETE   871.78 186.34 399.06 551.13 1019.18 426.23 1195.64 423.66 1129.98 544.86 1007.20 584.23 1184.65 585.04
00074213 00000002 864.36 175.54 400.31 554.89 1011.65 423.13 1184.75 417.60 1120.19 534.71 1003.98 580.96 1175.81 579.08
00074214 00000003 855.82 174.62 400.47 556.55 996.40 421.37 1167.75 409.99 1104.52 525.20 999.61 578.31 1169.07 571.13
00074215 DELETE   844.93 167.63 401.01 566.61 976.10 429.78 1150.67 409.62 1087.70 526.54 993.11 586.99 1165.11 571.31
00074216 00000005 834.08 178.47 406.14 560.42 964.30 439.76 1142.19 413.78 1081.09 535.69 989.54 599.57 1161.50 578.96
00074217 00000006 833.81 183.68 406.39 560.73 959.50 448.43 1133.78 417.60 1075.07 540.50 993.62 610.36 1159.47 584.96
00074218 DELETE   830.64 190.05 403.42 559.37 959.82 456.77 1130.32 423.93 1075.56 547.03 995.21 618.73 1154.46 591.31
00074219 00000008 831.75 196.76 403.43 560.98 963.05 463.62 1135.00 430.34 1079.02 555.67 997.28 624.21 1159.15 596.49
00074220 00000009 834.07 195.98 403.89 565.79 966.79 468.30 1141.81 431.26 1086.72 561.03 1003.85 631.57 1166.31 600.76
00074221 00000010 838.79 196.62 402.99 568.71 971.92 472.65 1150.21 436.92 1093.37 566.54 1007.76 634.26 1173.28 604.38
00074222 00000011 837.38 203.10 403.83 568.58 975.02 478.37 1151.45 440.03 1098.88 573.49 1010.04 638.06 1174.59 606.33
00074223 00000012 831.37 208.28 408.55 566.98 968.93 476.74 1146.52 439.21 1092.63 574.86 1003.62 637.00 1169.82 605.92
00074224 00000013 829.54 223.70 415.21 566.40 962.14 475.34 1137.98 441.25 1086.23 578.41 1000.15 646.64 1165.35 618.89
00074225 00000014 828.87 234.41 413.27 561.24 962.10 482.78 1140.48 448.00 1088.45 587.12 999.52 656.94 1165.82 629.19
00074226 00000015 827.03 237.84 413.67 560.99 960.93 490.84 1142.05 453.04 1091.06 595.20 997.36 663.84 1168.60 633.68
00074227 00000016 825.99 245.35 412.58 560.36 959.93 494.17 1142.33 456.02 1091.99 602.64 999.35 670.83 1173.16 639.61
00074228 00000017 827.85 243.21 413.66 566.85 959.53 496.32 1144.24 458.61 1092.03 606.83 1002.63 679.25 1173.26 648.56
00074229 00000018 828.87 244.70 412.68 568.36 961.48 499.14 1145.30 461.41 1092.94 608.90 1006.21 685.94 1171.83 655.20
00074230 00000019 833.87 248.18 410.36 570.46 966.99 508.09 1149.00 468.92 1096.42 616.49 1013.45 695.39 1172.87 663.50
00074231 00000020 840.39 254.43 408.20 567.37 977.94 513.69 1160.30 472.52 1108.67 620.93 1025.88 702.37 1180.64 668.27
00074232 00000021 853.33 257.73 395.73 560.03 989.65 518.41 1172.55 476.85 1122.00 624.98 1037.94 707.65 1184.73 673.95
00074233 00000022 859.01 258.11 393.38 562.10 996.56 517.07 1180.44 473.61 1133.04 626.82 1046.33 716.72 1187.99 681.79
00074234 00000023 863.27 256.65 388.56 567.07 1004.25 516.35 1186.10 471.77 1141.52 625.87 1048.90 716.67 1188.79 681.18
00074235 00000024 854.83 248.46 394.42 580.30 1008.36 507.59 1175.59 464.18 1141.23 609.33 1062.53 707.40 1195.38 671.14
00074236 00000025 834.33 240.11 411.60 570.45 1006.40 503.89 1180.38 454.70 1153.03 612.71 1067.96 715.84 1190.76 673.82
00074237 00000026 828.56 238.28 415.89 562.17 998.19 488.41 1175.15 446.39 1141.82 581.83 1059.41 681.86 1193.17 645.52
00074238 00000027 823.20 231.00 412.89 556.06 994.60 486.84 1169.12 440.80 1141.07 566.39 1050.18 667.05 1187.69 628.67
00074239 00000028 823.67 221.10 404.34 566.05 989.47 481.58 1161.30 442.87 1131.14 578.38 1058.87 680.44 1178.09 647.24
00074240 00000029 816.00 221.23 406.26 595.15 971.57 469.99 1144.52 447.03 1104.57 581.82 1021.89 685.65 1153.34 667.22
00074241 00000030 817.49 221.63 392.04 560.95 971.80 479.93 1139.42 442.96 1106.73 573.56 1030.56 671.24 1156.11 641.56
00074242 00000031 805.09 223.08 394.08 561.84 959.37 482.32 1136.47 442.17 1102.64 584.07 998.65 680.06 1137.65 647.02
00074243 00000032 800.09 221.86 393.53 566.78 949.60 475.80 1127.20 443.52 1085.15 578.54 988.73 672.29 1130.98 645.36
00074244 00000033 795.71 218.08 395.68 570.88 939.79 470.50 1119.52 439.92 1075.50 576.66 983.25 673.26 1123.93 647.19
00074245 00000034 796.29 212.38 389.86 554.97 931.48 464.14 1112.02 434.47 1060.11 572.33 987.18 666.23 1120.46 640.59
00074246 00000035 774.62 227.89 409.20 564.90 913.01 467.26 1089.50 450.88 1035.18 565.94 963.31 671.06 1091.42 656.47
00074247 00000036 759.05 213.95 419.09 564.69 899.13 472.62 1078.76 448.96 1016.84 565.22 953.02 658.16 1091.88 637.74
00074248 00000037 748.21 217.23 417.51 546.52 871.89 466.59 1051.77 448.24 975.08 565.59 912.36 644.03 1051.63 629.95
00074249 00000038 743.81 222.65 408.03 536.32 851.63 466.84 1023.52 454.65 942.95 564.91 886.88 635.47 1027.00 626.14
00074250 00000039 727.89 218.78 406.44 563.96 821.83 459.10 996.36 461.57 902.19 579.29 840.48 661.73 974.20 663.62
00074251 00000040 721.70 225.11 404.40 579.48 808.05 461.30 977.30 464.25 879.45 571.86 829.06 658.37 967.66 661.32
00074252 00000041 716.76 219.76 408.54 570.12 806.24 457.04 973.94 461.67 867.64 572.21 830.43 653.96 962.71 659.13
00074253 00000042 716.54 221.69 408.86 568.61 803.97 459.92 972.43 460.63 867.36 575.19 835.08 656.96 967.67 658.20
00074254 00000043 715.92 222.14 408.69 563.42 804.40 462.58 971.00 460.03 868.18 577.33 840.89 661.08 967.03 659.55
00074255 00000044 719.18 221.44 407.28 564.91 805.02 464.25 974.73 460.49 869.97 580.84 839.61 662.82 972.26 660.14
00074256 00000045 720.76 229.43 403.69 561.05 804.32 467.25 980.63 466.95 876.31 572.41 826.63 660.74 975.45 660.07
00074257 00000046 725.80 226.00 402.10 565.60 807.69 467.77 984.03 468.27 877.23 571.80 825.55 660.44 975.68 660.46
00074258 00000047 729.49 226.97 403.19 567.92 813.44 467.61 988.96 469.00 882.53 573.82 830.76 660.05 982.18 660.49
00074259 00000048 732.46 226.91 402.09 561.50 817.19 465.78 994.05 467.86 887.83 573.20 833.61 660.09 981.98 660.95
00074260 00000049 736.24 224.15 401.59 571.19 822.41 466.24 999.59 468.52 892.64 578.10 840.67 663.93 988.31 664.88
00074261 00000050 740.28 220.95 401.26 570.84 825.58 464.92 1004.71 468.22 896.13 579.13 842.60 662.55 991.88 664.27
00074262 00000051 747.93 224.05 403.02 569.86 834.89 463.39 1013.78 470.93 904.20 573.19 852.68 656.84 992.73 664.58
00074263 00000052 749.04 218.34 407.36 578.88 840.84 461.19 1016.52 470.48 909.09 570.34 857.84 654.05 996.20 663.14
00074264 00000053 754.98 218.83 406.45 563.99 845.55 451.39 1024.40 471.40 906.62 570.51 849.43 647.92 987.27 665.96
00074265 00000054 760.79 219.17 406.57 560.42 855.53 448.27 1028.87 469.20 916.43 569.37 860.45 646.73 988.60 666.08
00074266 00000055 765.70 217.58 405.25 566.99 860.30 446.88 1031.93 466.55 919.39 566.95 866.80 645.15 998.84 663.68
00074267 00000056 766.24 215.66 405.84 569.93 863.20 446.94 1041.73 466.64 925.29 562.96 863.42 640.25 1009.21 658.41
00074268 00000057 769.56 214.04 401.40 566.80 865.54 443.42 1045.76 466.49 927.28 566.62 860.95 638.96 1006.48 659.94
00074269 00000058 771.05 211.29 402.24 573.85 869.01 441.29 1044.29 467.59 930.56 563.71 857.83 641.02 993.93 665.44
00074270 00000059 771.78 215.00 403.61 582.01 869.32 438.53 1044.85 462.27 939.27 559.23 863.31 645.20 1001.98 665.48
00074271 00000060 773.52 216.10 403.53 574.66 869.08 437.85 1046.72 460.10 939.05 557.24 865.62 641.34 1008.89 660.16
00074272 00000061 774.68 217.25 404.69 576.92 870.81 435.43 1048.50 457.87 940.72 554.86 865.64 641.79 1007.80 660.91
00074273 00000062 776.73 217.77 404.91 571.98 872.69 433.11 1050.27 454.79 941.95 552.33 867.22 639.49 1009.57 657.54
00074274 00000063 781.05 216.35 402.64 561.89 875.26 436.42 1053.43 452.99 945.49 555.11 882.60 643.97 1017.86 657.86
00074275 00000064 782.82 209.98 399.89 565.80 878.28 432.81 1052.47 454.29 938.05 554.06 880.90 632.95 1019.84 652.46
00074276 00000065 781.76 212.90 399.29 565.51 874.77 437.24 1048.95 458.26 932.66 553.35 875.26 630.94 1018.06 650.14
00074277 00000066 778.76 208.96 397.59 570.07 865.67 441.50 1038.20 465.36 916.34 554.11 858.52 629.43 1005.44 650.53
00074278 00000067 772.26 201.09 398.22 581.35 848.01 437.43 1022.68 459.02 893.54 553.77 841.39 632.22 990.47 650.25
00074279 00000068 764.83 202.99 400.16 582.09 836.01 438.83 999.66 457.75 873.45 553.07 828.50 637.41 962.89 652.61
00074280 00000069 759.62 209.09 397.53 573.71 825.45 438.64 985.96 463.05 856.35 553.94 812.92 635.37 939.18 655.45
00074281 00000070 756.91 211.04 398.66 588.59 821.71 441.57 976.58 469.42 845.95 558.70 807.08 641.61 929.29 664.66
00074282 00000071 759.75 216.94 397.43 574.84 824.13 443.29 981.09 468.93 850.44 558.90 814.56 641.41 940.74 662.21
00074283 00000072 764.27 217.14 401.71 577.87 826.88 443.72 989.17 470.01 853.64 563.06 820.37 644.86 955.24 666.26
00074284 00000073 766.37 220.26 400.21 573.58 833.06 446.11 999.70 474.50 865.70 565.58 822.82 643.47 961.19 666.73
00074285 00000074 778.68 236.48 394.19 571.13 853.01 453.49 1014.12 487.96 883.29 569.22 835.54 648.74 969.39 676.97
00074286 DELETE   786.77 242.79 407.49 551.10 879.19 463.02 1050.19 496.16 924.52 579.71 860.12 652.08 1006.67 679.50
00074287 DELETE   808.69 243.39 414.62 571.09 911.21 469.83 1095.87 499.17 987.19 600.00 914.61 670.07 1067.38 693.81
00074288 DELETE   834.56 249.10 411.36 562.30 958.64 481.19 1143.25 500.16 1048.44 598.07 967.25 666.47 1121.87 682.90
00074289 00000078 853.59 247.89 411.01 572.52 986.44 492.95 1169.77 498.66 1091.58 603.30 1003.77 683.04 1158.77 688.21
00074290 00000079 865.06 244.58 405.34 581.72 1005.92 497.03 1193.88 495.65 1125.40 609.97 1019.87 691.27 1182.07 691.01
00074291 00000080 870.98 247.88 402.48 576.93 1016.55 495.92 1205.86 489.84 1144.16 613.84 1037.94 695.56 1197.63 690.97
00074292 00000081 873.54 248.31 402.11 569.54 1029.87 490.06 1215.07 484.37 1157.42 601.80 1050.69 690.73 1204.59 687.54
00074293 00000082 874.77 248.77 402.42 565.70 1033.94 489.13 1217.98 481.00 1162.45 602.39 1057.53 691.17 1206.74 686.07
00074294 00000083 876.01 248.96 399.85 564.93 1037.79 486.70 1218.01 478.42 1164.69 602.37 1063.30 691.11 1205.58 686.12
00074295 00000084 876.88 249.23 399.34 564.02 1040.46 485.46 1217.38 477.32 1164.94 602.61 1066.67 690.92 1204.27 686.03
00074296 00000085 878.77 247.85 394.64 563.65 1034.00 489.40 1216.80 478.16 1164.94 604.40 1060.60 693.93 1204.20 684.85
00074297 00000086 877.14 245.44 391.79 567.62 1032.68 490.16 1216.11 477.66 1165.52 602.29 1058.05 694.06 1202.89 684.25
00074298 00000087 875.92 250.45 389.32 567.24 1028.92 493.46 1211.06 477.46 1161.78 603.22 1055.47 696.31 1200.97 683.54
00074299 00000088 868.13 250.62 392.64 568.96 1023.45 493.48 1203.65 476.35 1155.67 600.40 1052.71 695.78 1196.91 681.88
00074300 00000089 864.37 252.14 392.65 568.93 1017.66 494.92 1197.30 476.20 1148.92 601.93 1051.03 698.64 1192.95 683.07
00074301 00000090 861.69 256.92 391.72 568.71 1011.55 500.23 1194.66 480.47 1144.28 609.39 1043.06 701.08 1193.20 684.89
00074302 00000091 857.73 257.66 392.83 570.58 1009.56 501.09 1192.87 480.37 1142.78 612.54 1042.02 703.24 1190.96 686.11
00074303 00000092 850.86 251.66 394.63 571.83 1003.56 499.77 1183.30 480.72 1133.27 608.20 1036.48 698.93 1183.34 682.98
00074304 00000093 845.17 245.54 394.04 574.04 996.94 498.21 1175.82 478.29 1128.87 604.54 1027.29 693.13 1178.12 676.92
00074305 00000094 837.70 251.40 396.78 567.82 989.82 496.04 1169.26 478.61 1121.84 604.73 1016.38 689.01 1169.30 675.44
00074306 00000095 827.86 245.46 405.54 571.53 978.74 491.92 1163.38 477.33 1109.06 601.91 1007.68 686.37 1163.06 674.92
00074307 00000096 823.89 241.72 408.12 574.01 965.91 494.37 1153.34 479.03 1091.75 605.26 996.58 688.66 1154.39 676.72
00074308 00000097 817.85 245.41 408.08 569.41 954.98 491.90 1141.44 482.36 1074.02 604.91 980.24 685.95 1140.21 678.86
00074309 00000098 813.40 245.51 410.02 568.14 945.67 490.41 1132.45 485.96 1057.23 602.34 967.76 683.31 1128.79 680.01
00074310 00000099 810.17 244.03 409.65 569.32 938.71 487.00 1124.94 484.71 1047.36 600.75 960.43 682.49 1119.90 680.79
00074311 00000100 804.61 241.27 410.98 571.50 927.25 487.38 1115.52 485.31 1034.66 605.35 955.39 690.74 1103.10 688.88
00074312 00000101 800.42 236.94 412.16 577.41 916.66 488.47 1100.68 491.77 1012.25 602.54 942.74 692.06 1083.47 694.30
00074313 DELETE   794.74 243.44 411.52 571.59 899.72 486.50 1083.25 498.51 979.52 603.75 914.93 684.55 1060.00 694.32
00074314 DELETE   794.04 252.56 403.03 557.31 885.09 482.35 1059.74 502.15 945.70 600.22 885.09 676.48 1026.78 693.41
00074315 00000104 794.75 258.04 402.99 553.83 878.83 482.13 1046.23 515.10 920.43 602.26 862.77 671.18 1002.09 698.44
00074316 00000105 800.03 269.08 401.31 570.17 877.73 491.46 1044.65 529.20 906.58 610.76 871.91 692.38 998.68 721.77
00074317 00000106 805.92 272.71 404.76 571.58 882.87 476.75 1045.84 535.84 901.57 615.93 860.55 672.89 1000.14 721.30
00074318 00000107 806.69 274.00 403.16 560.78 878.68 475.11 1044.30 536.23 894.24 612.00 849.12 671.94 987.97 720.37
00074319 00000108 809.60 258.25 401.29 571.69 875.57 475.07 1039.80 523.34 896.07 608.75 854.62 675.99 990.89 714.40
00074320 00000109 809.62 254.51 400.89 575.76 873.35 477.45 1035.38 520.50 894.40 612.23 859.08 679.37 993.12 713.41
00074321 00000110 806.74 260.72 403.01 575.52 869.79 484.90 1032.50 525.29 892.27 617.24 858.81 686.28 993.01 717.79
00074322 00000111 806.50 269.98 401.87 570.23 866.58 490.10 1032.60 530.88 892.10 624.89 857.13 692.89 992.85 724.59
00074323 00000112 806.27 274.40 400.37 571.19 866.48 493.72 1032.55 536.93 892.32 629.48 856.02 696.32 989.71 729.74
00074324 00000113 810.96 277.59 391.97 573.43 865.92 489.86 1026.41 537.79 889.44 634.41 860.96 697.67 994.38 735.89
00074325 00000114 808.82 276.77 392.84 575.29 862.65 488.87 1025.34 537.40 885.73 634.45 858.37 698.01 993.75 736.77
00074326 00000115 807.04 279.96 390.68 568.60 860.07 487.40 1024.03 536.86 883.51 634.66 854.79 694.78 993.80 734.23
00074327 00000116 799.52 281.14 400.18 568.38 859.72 496.25 1028.43 535.26 886.44 626.54 850.99 698.76 988.59 728.34
00074328 00000117 799.71 280.78 397.94 564.71 860.72 494.21 1029.38 532.69 890.44 625.95 853.62 695.83 991.73 725.04
CROP_BBOX: 513 0 1520 1011
