Video ID: 	OzhklOcfPyE
H: 	1080
W: 	1920
FPS: 	25.0

FRAME INDEX X0 Y0 W H [Landmarks (5 Points)]

00007899 00000000 394.63 123.09 599.61 867.05 596.23 460.49 872.87 450.32 778.41 636.73 628.83 772.97 862.44 762.85
00007900 00000001 398.72 120.92 600.89 866.62 598.60 456.68 875.72 444.27 780.79 635.12 633.21 770.26 866.42 758.24
00007901 00000002 402.32 117.76 598.49 849.34 601.60 452.48 880.59 445.46 781.89 644.28 635.76 771.57 867.45 764.35
00007902 00000003 408.86 118.41 596.99 845.56 605.16 450.30 886.38 443.11 784.68 643.98 640.93 770.80 870.06 763.71
00007903 00000004 412.33 118.44 597.04 850.37 604.54 449.69 886.74 438.72 784.60 635.97 640.82 765.11 871.59 755.04
00007904 00000005 414.42 115.78 597.50 848.42 605.86 448.46 888.50 437.29 784.77 636.18 643.08 764.34 872.71 754.28
00007905 00000006 417.40 111.40 595.62 846.24 607.91 447.73 892.02 437.08 786.75 638.76 643.97 763.20 874.14 753.94
00007906 00000007 419.38 108.49 595.17 850.01 610.36 447.04 893.56 437.14 787.66 638.23 646.15 763.95 874.27 755.44
00007907 00000008 421.09 106.45 597.21 858.36 612.85 445.17 895.38 436.44 788.64 637.34 648.23 764.49 874.24 757.04
00007908 00000009 424.87 106.71 597.20 861.52 616.86 443.77 897.96 437.41 790.23 635.97 651.88 766.19 873.59 760.92
00007909 00000010 429.75 106.52 596.62 868.60 622.09 443.90 900.65 439.90 792.80 636.57 655.76 768.57 877.89 765.34
00007910 00000011 438.33 109.25 593.14 857.94 627.73 446.08 906.67 443.25 797.94 637.38 655.12 762.62 886.80 760.43
00007911 00000012 441.63 112.93 591.76 846.10 629.24 446.29 907.56 444.45 797.60 638.78 652.56 755.15 889.10 753.81
00007912 00000013 441.00 109.69 594.69 850.07 633.02 445.58 909.42 444.34 799.40 638.11 650.15 747.79 890.80 747.22
00007913 00000014 442.10 110.51 593.93 845.92 633.84 445.31 909.47 443.69 799.83 638.20 651.09 745.25 891.35 744.38
00007914 00000015 441.91 110.19 594.56 846.69 634.45 446.11 909.46 444.28 799.93 639.17 651.80 745.55 892.23 744.50
00007915 00000016 443.58 110.96 593.97 851.67 635.44 447.76 911.46 443.24 803.80 639.73 664.16 759.84 892.79 756.64
00007916 00000017 445.69 113.07 592.05 850.44 638.36 445.74 914.84 440.95 809.02 638.76 671.08 764.63 892.37 761.46
00007917 00000018 451.33 113.24 589.47 850.00 653.47 443.48 926.13 436.70 825.06 637.30 693.58 772.60 902.12 766.35
00007918 00000019 448.70 109.54 593.87 852.55 655.24 445.17 931.21 440.56 836.67 641.34 699.35 770.49 909.11 765.43
00007919 DELETE   460.14 105.79 596.12 864.88 676.09 454.55 945.52 451.17 857.07 631.42 710.02 764.02 923.82 759.61
00007920 DELETE   476.03 108.54 590.10 856.12 704.44 455.44 967.45 446.78 890.67 626.39 735.06 761.15 947.54 753.76
00007921 DELETE   484.55 108.46 587.48 846.00 722.20 446.40 983.23 438.63 909.55 635.13 752.78 767.19 958.61 759.40
00007922 00000023 486.23 110.74 589.65 845.20 728.24 435.65 989.94 436.49 912.39 632.52 757.68 765.46 956.11 764.29
00007923 00000024 478.68 108.76 596.16 857.21 713.46 432.54 980.13 434.22 899.95 619.99 746.61 765.48 946.85 765.45
00007924 00000025 469.55 96.69 603.14 866.49 705.86 425.34 974.59 427.66 893.23 615.21 739.94 760.60 941.85 761.08
00007925 00000026 475.52 92.06 596.82 862.84 711.26 421.12 977.14 417.48 900.65 609.66 748.34 751.89 952.41 747.16
00007926 00000027 480.45 91.79 592.22 865.49 720.13 420.26 979.15 415.25 907.38 605.47 754.12 747.62 954.73 741.93
00007927 00000028 481.63 92.23 591.78 860.63 720.49 420.82 979.72 417.65 904.29 606.05 747.56 743.22 950.75 739.58
00007928 00000029 480.14 89.03 594.03 868.23 720.69 419.63 979.42 419.82 901.57 605.75 739.38 740.39 947.23 739.91
00007929 00000030 483.53 90.02 593.17 865.62 723.27 417.34 981.16 419.00 903.12 603.96 740.32 738.63 948.75 739.31
00007930 00000031 484.99 91.97 591.58 854.21 727.37 412.55 987.43 414.36 903.87 609.65 746.31 736.54 951.62 736.07
00007931 00000032 487.04 92.63 591.28 857.36 729.49 415.24 989.30 414.77 907.04 611.12 747.03 738.41 955.99 736.03
00007932 00000033 491.20 90.43 591.74 858.41 732.11 418.89 992.27 417.35 909.38 612.73 748.17 738.70 960.20 735.29
00007933 00000034 494.63 90.77 593.51 860.26 735.24 419.01 996.58 416.42 913.86 613.67 751.33 738.50 965.87 734.16
00007934 00000035 498.19 92.29 594.77 859.44 737.88 419.65 1001.39 415.68 918.52 614.34 755.97 739.61 971.82 734.12
00007935 00000036 501.32 95.58 597.46 851.95 742.35 421.07 1005.68 415.99 924.40 613.81 759.26 738.67 976.26 732.59
00007936 00000037 505.87 98.15 597.45 850.78 746.74 419.51 1008.51 415.68 927.07 611.29 762.70 738.59 979.97 733.66
00007937 00000038 512.43 97.16 598.59 853.28 753.88 417.15 1013.23 413.57 933.16 606.28 771.12 737.59 987.68 732.84
00007938 00000039 515.51 99.31 598.54 851.44 756.70 416.79 1017.08 412.28 937.38 605.18 778.59 737.33 993.96 731.54
00007939 00000040 516.31 89.15 600.09 866.35 762.15 420.21 1019.69 418.16 950.18 604.62 784.56 735.81 995.62 733.35
00007940 00000041 522.46 96.41 596.11 854.07 760.87 421.27 1025.24 417.56 952.49 610.27 798.39 747.38 1001.31 743.07
00007941 00000042 524.07 94.59 597.73 861.30 763.18 422.39 1028.41 419.57 955.15 610.80 804.40 752.17 1004.04 748.47
00007942 00000043 529.26 96.45 596.12 870.55 766.77 424.18 1030.71 421.24 958.00 612.11 809.30 757.38 1007.21 753.58
00007943 00000044 529.33 98.73 597.53 870.40 766.79 425.43 1031.34 422.77 958.86 612.65 810.57 759.51 1009.00 755.80
00007944 00000045 527.37 99.13 601.03 876.59 766.89 424.65 1031.12 423.99 958.43 611.77 808.78 760.51 1008.10 758.38
00007945 00000046 526.66 101.95 602.03 876.90 766.38 425.96 1030.92 428.27 956.04 612.73 798.04 757.49 1005.19 758.10
00007946 00000047 525.73 101.04 603.15 880.11 766.79 428.01 1030.75 430.11 955.89 614.12 791.95 754.77 1005.30 755.40
00007947 00000048 526.02 102.89 602.65 880.40 766.45 429.30 1030.13 431.77 954.99 614.02 788.50 753.75 1005.83 754.63
00007948 00000049 528.99 110.05 599.74 858.95 766.37 435.70 1031.86 432.75 956.52 618.42 783.10 746.70 1012.47 743.08
00007949 00000050 526.96 114.25 601.24 846.74 770.69 434.42 1034.76 431.47 962.12 628.09 784.55 750.15 1013.24 746.88
00007950 00000051 527.18 128.16 595.60 834.04 770.48 452.19 1031.85 450.65 958.95 639.96 768.97 753.40 1003.05 752.24
00007951 DELETE   526.65 119.37 595.42 849.80 768.08 465.37 1028.52 465.32 952.79 643.39 756.96 752.81 994.65 752.84
00007952 DELETE   525.03 128.70 596.01 837.16 774.23 466.24 1030.35 466.80 959.49 647.57 763.83 756.95 994.30 758.13
00007953 00000054 535.94 135.19 595.76 832.03 785.23 460.54 1043.09 460.90 971.88 649.49 782.08 762.71 1006.19 763.26
00007954 00000055 541.35 134.84 593.74 831.72 789.34 458.19 1047.99 455.89 976.28 648.69 796.87 767.16 1012.30 765.02
00007955 00000056 541.09 134.15 594.31 828.75 785.26 454.97 1048.29 450.21 974.88 647.88 802.76 768.79 1016.88 764.23
00007956 00000057 538.22 133.84 597.04 835.07 781.47 453.97 1045.17 450.03 970.68 646.50 799.77 767.72 1016.43 763.91
00007957 00000058 536.12 134.66 598.48 838.72 780.38 453.81 1043.75 449.09 970.92 646.06 795.00 765.97 1016.79 761.50
00007958 00000059 534.36 136.15 598.16 836.37 776.93 454.64 1042.12 450.76 967.36 648.45 790.80 766.27 1015.09 762.52
00007959 00000060 531.16 134.45 601.00 834.60 773.72 455.03 1041.59 451.21 964.96 651.72 786.79 764.54 1013.30 760.95
00007960 00000061 529.38 135.90 599.31 827.68 767.87 453.65 1037.75 453.46 957.37 652.16 781.55 764.94 1007.87 764.28
00007961 00000062 529.50 135.74 599.24 826.14 766.94 452.67 1037.50 452.72 956.34 651.98 781.88 765.19 1007.54 764.72
00007962 00000063 532.10 132.53 600.74 831.01 770.59 451.91 1040.04 451.21 959.15 649.43 784.89 764.33 1010.51 763.23
00007963 00000064 540.08 130.94 597.00 832.51 779.70 449.23 1046.01 446.79 967.55 646.16 796.82 762.54 1017.30 760.01
00007964 00000065 544.80 130.90 594.33 827.97 783.01 449.30 1050.28 442.22 973.57 647.54 807.38 766.36 1023.46 759.61
00007965 00000066 550.98 127.27 592.39 830.65 788.22 448.02 1055.25 439.05 978.59 647.07 814.31 766.40 1028.07 758.03
00007966 00000067 553.67 126.27 591.06 831.27 790.44 445.70 1057.95 437.97 979.92 647.86 822.84 769.12 1029.25 761.42
00007967 00000068 554.97 122.92 591.96 837.28 791.22 442.84 1058.18 436.37 979.48 644.49 829.65 771.10 1031.36 764.11
00007968 00000069 554.07 113.93 592.59 842.46 789.04 438.43 1057.39 431.43 978.62 641.95 829.62 770.14 1032.15 762.63
00007969 00000070 551.64 104.84 594.40 847.84 783.63 433.04 1054.54 426.39 973.24 634.86 824.60 766.73 1031.14 759.24
00007970 00000071 547.19 100.79 593.96 850.80 774.76 433.17 1043.31 423.99 963.83 618.82 814.92 756.39 1020.63 747.89
00007971 00000072 541.63 99.34 598.40 851.45 768.30 427.04 1038.74 419.12 956.80 616.18 807.53 750.50 1015.07 743.15
00007972 00000073 535.41 95.64 600.25 843.76 760.91 423.43 1032.14 415.84 948.82 612.29 800.07 743.83 1008.35 736.68
00007973 00000074 525.39 92.00 600.13 831.40 743.59 417.45 1020.16 409.09 933.45 611.07 784.56 734.12 998.77 726.17
00007974 00000075 520.07 86.67 598.42 825.36 729.55 415.97 1013.30 404.14 921.96 610.67 771.93 730.69 992.89 720.07
00007975 00000076 516.93 87.39 596.19 827.68 719.30 414.58 1004.61 404.99 905.73 610.46 758.93 727.25 983.61 718.63
00007976 00000077 515.81 84.69 595.04 827.05 713.83 414.62 1002.60 406.46 898.55 612.15 753.38 727.44 980.37 719.94
00007977 00000078 520.06 88.21 593.18 841.64 719.07 414.54 998.71 410.43 893.93 611.08 745.73 728.32 972.02 725.75
00007978 00000079 519.86 90.11 593.96 838.97 720.02 413.91 1001.53 412.08 894.77 612.59 742.91 726.30 973.36 725.77
00007979 00000080 519.69 89.47 594.13 839.32 720.81 412.61 1001.50 411.68 895.18 610.34 743.01 724.99 972.98 725.02
00007980 00000081 517.80 82.30 596.48 847.24 715.96 407.22 995.15 406.57 887.82 604.37 741.89 727.41 963.20 728.05
00007981 00000082 512.16 77.82 597.75 849.74 707.80 404.27 985.75 400.04 880.63 599.07 738.94 727.48 954.88 725.05
00007982 00000083 506.16 75.60 597.64 852.08 698.86 401.45 980.19 398.68 871.73 597.69 727.84 725.16 949.49 723.41
00007983 00000084 502.14 69.84 598.17 858.99 696.79 398.23 976.96 396.18 869.81 593.58 724.56 722.87 946.75 721.50
00007984 00000085 503.22 69.15 595.97 860.63 695.32 394.97 975.59 394.86 867.45 589.00 722.71 722.11 944.58 722.25
00007985 00000086 494.74 66.76 598.04 858.65 687.41 392.11 968.18 391.22 859.02 582.49 713.82 713.68 942.82 712.32
00007986 00000087 490.29 63.85 598.42 856.52 681.43 390.16 960.75 387.37 851.73 578.04 706.01 705.70 938.79 702.47
00007987 00000088 488.14 66.37 598.59 854.44 676.50 388.11 956.98 386.11 846.30 577.28 699.33 701.96 937.74 699.16
00007988 00000089 488.01 65.79 599.05 852.03 679.25 388.75 959.28 389.06 847.39 579.52 694.91 696.62 938.19 695.91
00007989 00000090 489.10 64.67 598.30 853.22 683.02 391.35 960.22 393.17 849.32 582.93 695.38 695.12 938.58 695.96
00007990 00000091 487.33 66.87 599.35 855.90 678.81 391.12 957.99 392.45 845.16 585.84 690.36 697.10 936.43 697.55
00007991 00000092 485.45 69.79 599.09 855.42 674.66 392.27 954.83 392.47 841.57 587.76 689.60 701.61 933.55 701.09
00007992 00000093 485.28 70.20 597.45 857.62 672.51 393.56 953.47 392.71 840.04 589.36 695.51 713.06 928.09 711.82
00007993 00000094 484.52 75.92 598.67 842.59 669.93 393.26 956.25 393.29 839.06 599.04 706.35 726.58 924.33 726.75
00007994 00000095 482.48 73.06 600.13 848.44 669.43 394.40 954.31 393.98 838.82 600.07 707.17 727.76 922.84 727.58
00007995 00000096 479.76 72.77 600.85 850.60 665.60 395.41 952.39 394.26 836.78 603.18 705.17 730.18 921.13 729.49
00007996 00000097 476.88 70.32 601.35 851.10 662.01 396.58 950.46 394.55 834.68 603.88 701.94 730.60 918.79 729.20
00007997 00000098 475.84 66.66 600.68 856.35 659.05 397.51 948.77 395.31 831.79 602.84 698.79 731.39 916.82 729.92
00007998 00000099 472.09 68.02 599.85 854.64 653.32 399.22 944.27 395.00 828.34 603.51 696.93 734.33 913.27 731.27
00007999 00000100 468.96 69.39 600.93 856.64 649.85 401.60 941.02 397.23 825.50 604.51 693.85 735.88 911.15 732.63
00008000 00000101 463.83 75.30 603.85 848.33 644.44 404.51 933.86 401.84 816.13 605.16 686.01 730.75 904.99 728.63
00008001 00000102 463.09 73.77 604.21 857.76 642.47 407.70 930.84 405.63 811.00 605.86 678.57 730.83 904.26 729.01
00008002 00000103 462.25 76.72 602.80 851.90 638.35 409.03 928.11 406.99 805.96 608.30 673.63 728.13 903.52 726.18
00008003 00000104 459.82 78.93 599.11 860.68 634.63 413.01 926.46 410.56 801.18 611.85 662.48 732.39 898.84 729.75
00008004 00000105 456.15 82.33 600.18 845.03 627.94 414.16 922.09 409.62 796.99 613.43 661.49 728.78 899.17 724.45
00008005 00000106 452.76 81.60 599.34 852.14 626.64 414.76 920.79 410.52 793.50 612.67 659.16 733.95 889.25 729.79
00008006 00000107 449.74 84.40 596.61 832.78 619.80 418.09 917.04 409.02 792.39 616.44 659.43 735.56 892.19 727.18
00008007 00000108 447.64 85.54 598.30 835.34 618.14 418.39 916.96 409.56 791.87 617.00 657.08 739.08 891.42 730.85
00008008 00000109 449.45 89.39 596.04 839.18 622.06 418.03 919.59 410.48 797.76 616.81 654.57 738.86 895.95 731.53
CROP_BBOX: 113 0 1418 1080
