Video ID: 	ntU9VpNGSlY
H: 	1080
W: 	1920
FPS: 	25.0

FRAME INDEX X0 Y0 W H [Landmarks (5 Points)]

00050855 00000000 649.14 179.50 473.30 618.69 885.69 425.14 1066.60 425.84 1030.95 562.18 873.50 647.96 1013.56 652.48
00050856 DELETE   648.82 178.03 470.94 612.76 885.00 420.19 1063.54 420.61 1028.84 556.76 870.37 641.03 1010.90 645.53
00050857 00000002 648.54 167.50 469.86 615.22 886.02 412.57 1064.41 414.87 1030.35 546.87 873.06 633.40 1014.06 638.95
00050858 00000003 649.82 155.53 463.64 617.54 888.05 410.94 1057.72 407.76 1031.20 537.97 888.53 629.89 1017.93 629.18
00050859 00000004 651.58 136.53 462.88 634.20 885.46 402.13 1065.47 404.55 1035.13 528.79 881.89 617.25 1017.96 623.25
00050860 00000005 647.11 138.39 465.86 624.78 889.25 386.55 1063.86 386.19 1037.41 519.01 891.44 612.70 1025.54 613.73
00050861 DELETE   647.99 118.31 462.07 636.20 891.88 381.17 1064.99 375.93 1049.40 507.31 895.96 603.59 1029.90 603.41
00050862 00000007 644.91 104.84 458.86 642.28 889.78 369.92 1060.74 365.23 1048.53 492.73 896.92 594.36 1031.47 593.87
00050863 00000008 645.20 99.70 455.53 639.64 889.66 363.21 1058.97 358.02 1049.36 483.06 901.16 588.22 1035.41 586.75
00050864 00000009 647.88 113.68 452.84 614.58 898.52 355.29 1062.45 362.26 1050.08 479.72 905.11 583.94 1031.60 589.25
00050865 00000010 639.86 101.29 455.68 625.47 889.22 354.17 1054.55 352.21 1048.34 476.16 899.32 577.47 1031.73 578.87
00050866 00000011 641.20 113.43 458.27 618.58 894.17 349.16 1058.23 358.67 1045.00 472.90 902.41 578.32 1027.47 585.33
00050867 00000012 641.78 109.65 458.06 625.37 894.02 345.22 1056.37 354.99 1044.13 469.37 902.19 577.59 1025.97 584.70
00050868 00000013 644.44 105.76 456.49 636.28 893.65 340.64 1056.57 350.57 1042.12 465.44 900.83 575.38 1026.23 582.66
00050869 00000014 641.18 90.19 456.09 646.19 892.93 338.73 1055.51 340.09 1049.09 468.35 887.75 571.17 1026.95 575.01
00050870 00000015 641.06 89.44 453.91 647.02 891.95 336.04 1054.43 339.00 1048.84 465.55 885.15 568.51 1025.93 573.25
00050871 00000016 641.22 84.66 453.26 645.88 892.18 346.92 1042.05 343.17 1041.51 464.04 892.37 572.13 1014.81 571.45
00050872 00000017 642.11 86.75 450.82 637.11 889.63 346.39 1040.65 342.04 1036.61 464.23 898.36 573.27 1016.63 571.82
00050873 00000018 643.93 88.03 450.54 629.95 892.28 350.15 1043.37 342.65 1040.31 467.60 900.28 572.64 1018.74 568.90
00050874 00000019 646.03 92.13 449.15 624.93 892.96 354.57 1044.91 344.36 1041.19 470.54 901.01 573.66 1021.00 567.84
00050875 00000020 647.02 95.79 448.18 620.73 893.84 356.51 1046.71 346.56 1042.46 471.93 902.46 575.50 1021.47 569.92
00050876 00000021 647.74 98.29 447.42 622.55 894.30 358.51 1044.67 347.63 1041.85 473.63 902.34 578.77 1019.31 572.60
00050877 00000022 640.83 97.99 455.26 631.99 889.71 349.92 1052.51 347.95 1046.55 472.83 901.33 579.02 1029.65 580.04
00050878 00000023 647.53 100.82 445.84 625.06 894.36 360.71 1044.49 348.68 1042.77 477.13 908.47 587.38 1021.03 580.24
00050879 00000024 649.71 100.35 444.07 623.48 895.25 361.51 1044.40 350.36 1042.10 476.58 911.79 586.56 1023.04 579.83
00050880 00000025 648.82 101.43 443.57 622.93 893.50 362.74 1043.94 350.44 1041.75 477.33 911.65 587.72 1023.66 580.09
00050881 00000026 638.81 99.36 454.74 626.88 885.04 354.31 1050.69 349.25 1046.68 474.69 902.60 581.94 1033.10 580.43
00050882 00000027 639.14 99.27 454.52 632.92 886.09 353.02 1051.57 350.10 1046.18 475.69 901.03 582.98 1032.01 583.32
00050883 00000028 638.51 100.18 455.44 634.42 885.55 353.23 1051.72 350.33 1046.20 476.60 897.12 583.26 1030.15 583.92
00050884 00000029 638.45 101.38 456.27 635.64 886.56 354.60 1052.02 351.61 1046.56 478.39 897.05 584.19 1029.41 584.89
00050885 00000030 640.74 99.64 454.98 639.48 888.35 357.29 1053.12 351.70 1048.42 480.05 896.71 585.72 1029.31 584.48
00050886 00000031 641.42 102.76 454.67 636.49 888.13 359.62 1053.58 353.32 1048.10 481.13 898.17 587.79 1029.57 586.07
00050887 00000032 643.16 101.60 453.65 638.04 887.22 362.59 1054.68 355.92 1047.23 481.71 900.07 589.55 1032.83 587.04
00050888 00000033 644.51 102.16 453.91 635.67 887.46 364.81 1056.27 359.02 1047.65 482.95 902.69 591.22 1034.97 589.20
00050889 00000034 646.41 102.33 454.06 634.50 889.63 365.77 1058.50 357.88 1049.88 483.66 905.93 591.19 1037.45 587.38
00050890 00000035 648.88 101.12 454.15 639.11 893.72 364.05 1060.78 359.10 1051.13 483.42 908.06 590.98 1037.98 589.34
00050891 00000036 651.87 102.95 453.68 640.99 895.70 362.36 1063.63 358.86 1053.26 483.72 907.55 590.38 1039.59 590.17
00050892 00000037 655.42 113.33 454.32 635.21 902.87 358.35 1067.52 365.87 1052.45 482.79 907.85 590.98 1033.21 596.78
00050893 00000038 657.82 116.63 452.80 634.27 903.78 356.83 1068.76 364.45 1052.95 482.04 907.03 590.05 1033.63 596.07
00050894 00000039 657.62 115.48 453.59 636.57 904.77 356.12 1068.86 362.60 1054.52 481.15 905.56 589.07 1033.93 594.37
00050895 00000040 656.97 114.47 454.09 640.50 903.98 353.93 1067.66 359.88 1054.29 479.75 904.53 589.22 1033.61 594.10
00050896 00000041 656.67 116.37 454.59 639.59 902.07 352.82 1066.90 358.81 1052.09 478.91 902.26 588.11 1034.38 592.94
00050897 00000042 655.13 115.15 455.50 638.93 899.33 351.79 1065.80 360.18 1048.75 477.22 900.34 585.34 1034.46 591.89
00050898 00000043 652.29 116.23 457.73 635.90 897.17 350.42 1065.78 361.37 1046.95 476.68 895.81 583.27 1031.70 591.99
00050899 00000044 648.73 112.16 459.60 640.32 893.68 350.48 1063.62 360.36 1045.54 475.86 892.71 583.45 1030.45 591.31
00050900 00000045 644.03 111.93 460.69 640.47 890.97 348.32 1059.88 361.92 1043.08 475.49 887.85 582.13 1023.37 592.95
00050901 00000046 638.48 113.61 461.75 636.08 886.30 345.37 1054.27 355.75 1038.29 473.51 885.54 580.84 1019.03 588.74
00050902 00000047 632.67 96.62 459.33 642.67 878.20 354.68 1037.03 350.25 1030.50 474.07 880.49 581.55 1009.43 580.82
00050903 00000048 625.18 94.31 460.57 644.03 870.06 351.24 1028.83 343.30 1024.44 470.70 875.70 580.10 1004.74 576.57
00050904 00000049 621.44 90.08 459.35 647.81 863.10 348.35 1023.88 342.32 1015.84 468.26 871.47 578.09 1002.19 575.64
00050905 00000050 617.15 89.50 460.57 649.10 857.31 348.54 1019.05 338.39 1010.67 469.64 866.45 578.86 999.05 573.25
00050906 00000051 613.96 92.02 460.67 647.66 853.43 348.62 1016.67 337.30 1007.32 470.00 863.15 580.82 996.82 574.25
00050907 00000052 611.07 91.65 461.37 650.25 850.68 349.80 1014.27 336.88 1005.73 469.11 861.37 582.02 995.51 574.05
00050908 00000053 611.24 95.83 459.81 645.52 848.20 350.94 1013.19 337.49 1003.71 470.01 861.49 583.38 995.85 574.95
00050909 00000054 613.54 94.05 460.86 652.00 848.78 353.58 1015.18 338.06 1004.63 471.44 862.58 587.93 997.80 577.99
00050910 00000055 618.30 96.42 459.68 652.26 852.62 357.12 1017.40 343.20 1005.67 474.73 868.96 591.09 999.79 582.24
00050911 00000056 623.47 97.42 457.60 652.89 854.66 361.89 1023.04 347.80 1009.22 479.99 875.30 595.70 1006.69 586.30
00050912 00000057 625.95 104.53 459.13 649.30 861.14 363.57 1028.84 354.50 1014.66 483.57 881.98 599.85 1008.52 594.73
00050913 00000058 630.40 110.50 460.36 652.96 869.64 367.77 1034.88 360.58 1023.91 489.58 885.40 605.32 1010.82 602.41
00050914 00000059 635.74 116.02 459.85 651.23 884.82 365.25 1050.74 370.57 1040.76 501.99 879.65 601.84 1015.01 610.46
00050915 00000060 645.19 117.53 463.51 652.17 895.20 372.93 1060.19 374.65 1049.36 505.85 888.61 604.17 1020.59 609.70
00050916 00000061 654.45 126.29 462.19 647.47 908.38 376.47 1069.20 379.29 1057.77 503.65 900.08 608.15 1029.88 611.52
00050917 00000062 666.24 124.46 458.55 641.64 916.59 373.10 1085.26 379.32 1068.43 501.01 912.69 605.73 1045.92 611.84
00050918 00000063 679.68 119.57 448.55 636.58 921.69 370.19 1093.81 378.13 1073.26 498.94 923.00 605.05 1055.42 612.22
00050919 00000064 683.65 113.84 448.31 638.25 926.54 367.49 1097.00 374.33 1078.80 497.13 928.23 604.09 1057.64 610.24
00050920 00000065 683.42 109.45 447.63 636.50 926.96 363.31 1098.39 373.17 1078.98 494.82 928.69 602.44 1057.12 610.78
00050921 00000066 674.19 99.98 452.83 650.10 916.47 367.89 1084.93 365.75 1072.54 491.39 925.13 597.25 1052.50 598.09
00050922 00000067 667.60 101.02 455.34 648.96 915.37 365.10 1080.32 366.56 1071.12 490.62 920.54 594.39 1045.98 598.50
00050923 00000068 659.93 99.65 460.50 652.35 909.08 364.12 1077.28 366.05 1067.23 491.30 912.74 593.85 1044.01 598.16
00050924 00000069 661.16 115.09 458.49 639.96 913.33 359.26 1079.11 368.54 1064.19 489.78 911.43 597.00 1038.96 604.87
00050925 00000070 654.51 117.16 459.85 639.43 908.16 358.54 1072.53 366.57 1059.70 487.62 906.86 595.65 1032.22 602.34
00050926 00000071 648.13 104.36 456.33 640.89 900.66 357.40 1063.89 357.54 1059.06 485.65 903.61 589.33 1033.32 593.01
00050927 00000072 649.61 115.21 456.77 627.65 904.02 351.98 1065.24 357.86 1056.41 479.00 907.67 586.99 1033.12 591.53
00050928 00000073 645.19 112.29 460.52 632.33 899.85 346.61 1063.43 353.27 1053.83 473.48 904.63 585.09 1031.89 589.97
00050929 00000074 644.41 113.47 460.28 629.60 898.21 346.19 1061.21 353.00 1051.44 472.69 902.34 582.85 1028.62 588.01
00050930 00000075 645.70 114.94 457.87 622.16 898.16 349.05 1061.92 356.52 1051.18 473.65 902.96 582.52 1030.48 588.20
00050931 00000076 648.66 113.49 455.53 618.19 902.39 351.84 1065.49 357.86 1055.18 477.29 905.32 581.21 1033.52 586.01
00050932 00000077 648.89 104.68 453.74 624.19 899.38 357.60 1064.64 351.71 1060.03 480.81 906.04 581.84 1037.56 580.75
00050933 00000078 660.18 111.81 452.83 627.07 909.19 356.21 1077.29 362.80 1063.71 483.08 912.40 588.58 1042.37 593.99
00050934 00000079 662.35 111.23 458.61 643.79 912.66 357.99 1080.31 363.95 1066.69 486.20 911.03 592.77 1043.63 598.30
00050935 00000080 670.19 109.41 455.49 643.99 919.11 362.24 1085.95 367.57 1072.33 491.74 918.01 597.88 1048.32 603.25
00050936 00000081 675.45 113.76 450.93 638.75 924.13 366.69 1091.05 373.01 1077.62 496.37 922.64 599.60 1053.64 605.88
00050937 00000082 681.15 116.14 446.83 636.66 927.20 371.86 1095.01 377.06 1081.10 501.19 925.84 603.11 1057.75 608.56
00050938 00000083 683.77 117.67 447.18 633.51 927.91 376.24 1097.30 380.30 1081.52 505.72 926.99 606.20 1059.71 610.76
00050939 00000084 677.54 110.76 452.85 644.30 920.03 382.98 1088.77 373.70 1080.98 506.33 923.79 605.39 1055.00 601.47
00050940 00000085 679.69 122.50 449.98 635.26 925.42 381.27 1094.72 382.08 1080.13 510.67 921.38 608.84 1058.20 611.35
00050941 00000086 673.03 121.02 451.23 639.18 921.43 380.13 1089.31 381.02 1076.41 508.71 918.29 606.66 1054.91 609.03
00050942 00000087 667.01 121.71 455.01 639.73 916.06 377.83 1083.31 377.85 1071.58 504.72 913.24 604.78 1049.06 606.43
00050943 00000088 659.45 113.91 458.11 647.32 904.04 378.53 1071.12 371.89 1065.03 500.42 905.46 599.17 1042.66 597.49
00050944 00000089 655.22 117.43 457.38 643.06 900.98 377.36 1066.80 370.04 1061.32 501.59 900.90 599.87 1036.29 598.14
00050945 00000090 650.63 118.91 455.86 641.56 895.99 377.07 1061.25 368.74 1057.53 501.44 895.46 600.29 1031.91 598.06
00050946 00000091 645.94 114.55 456.30 648.70 892.25 377.06 1056.32 368.28 1053.58 500.88 889.75 600.71 1027.76 598.13
00050947 00000092 644.14 112.15 455.09 653.64 890.29 375.50 1053.89 367.90 1052.55 500.80 886.96 600.74 1026.20 599.09
00050948 00000093 641.98 111.80 456.19 654.73 889.43 371.79 1052.20 366.66 1051.08 499.47 883.25 599.90 1021.78 600.41
00050949 00000094 640.12 111.12 458.31 654.19 888.30 368.99 1052.49 364.74 1050.37 497.63 881.36 599.12 1021.30 600.28
00050950 00000095 640.68 109.18 456.88 652.37 888.72 366.40 1053.11 363.62 1049.52 493.50 884.15 597.13 1022.35 599.26
00050951 00000096 640.42 107.64 457.46 651.14 889.80 362.97 1054.10 362.25 1049.30 489.66 886.77 594.76 1023.57 598.19
00050952 00000097 641.76 105.36 457.35 651.34 892.45 360.53 1055.89 361.25 1049.61 489.27 889.19 593.86 1023.19 598.36
00050953 00000098 643.60 103.29 458.42 652.80 891.35 363.81 1058.55 362.59 1050.14 491.38 889.52 595.02 1026.49 597.71
00050954 00000099 643.75 105.04 460.73 653.53 893.22 368.46 1059.47 368.34 1052.49 497.64 890.08 597.76 1027.08 601.38
00050955 00000100 650.40 112.83 461.20 649.62 899.79 374.29 1065.94 374.48 1056.80 506.51 895.92 603.64 1028.42 607.95
00050956 00000101 655.81 131.10 466.20 641.44 910.52 381.47 1073.59 383.72 1058.30 516.59 902.84 614.43 1031.37 617.98
00050957 00000102 663.91 126.34 463.21 647.81 909.94 389.35 1079.31 387.96 1060.87 525.08 904.07 618.49 1028.73 621.84
00050958 00000103 668.05 120.01 461.75 651.87 917.83 391.98 1082.52 389.43 1069.87 522.93 916.09 618.34 1035.61 620.74
00050959 00000104 673.79 120.22 459.01 647.71 922.77 390.03 1088.01 388.23 1077.18 517.42 924.44 615.35 1044.94 618.13
00050960 00000105 679.53 113.19 455.24 648.64 928.29 383.14 1092.06 381.68 1081.97 513.77 926.90 609.47 1049.35 612.29
00050961 00000106 677.99 109.11 457.38 651.94 925.77 378.67 1092.05 378.27 1081.39 508.12 926.40 607.71 1051.14 611.29
00050962 00000107 675.42 109.61 457.57 653.90 921.39 375.11 1088.41 376.15 1076.28 505.85 920.37 605.79 1047.21 610.63
00050963 00000108 668.78 111.06 460.46 654.50 915.09 374.23 1085.46 377.46 1073.11 504.81 911.39 604.51 1044.76 610.93
00050964 00000109 667.01 121.94 459.60 642.92 920.64 376.83 1088.10 384.65 1072.45 508.07 913.06 607.29 1045.91 615.25
00050965 00000110 666.50 123.37 457.90 639.06 918.56 377.58 1088.06 384.40 1072.03 507.20 912.42 606.22 1047.48 613.22
00050966 00000111 665.49 122.66 456.55 638.60 918.01 376.13 1086.16 382.61 1070.92 504.57 914.20 605.85 1045.75 612.43
00050967 00000112 663.85 116.95 458.00 643.14 915.64 373.58 1083.08 375.70 1069.53 499.98 916.00 605.22 1046.53 607.78
00050968 00000113 662.99 120.51 454.01 635.32 910.67 369.33 1077.06 370.35 1064.91 491.76 917.67 601.33 1046.40 602.31
00050969 00000114 657.12 115.10 454.14 635.89 904.90 365.93 1068.38 367.75 1058.61 486.72 914.58 597.72 1039.23 599.00
00050970 00000115 647.79 104.70 455.95 638.71 892.06 364.31 1059.65 357.25 1053.14 484.19 904.97 591.29 1037.33 588.79
00050971 00000116 643.27 103.84 456.84 639.19 889.50 362.23 1056.11 355.78 1050.23 483.23 900.45 590.83 1032.65 588.96
00050972 00000117 641.08 103.00 456.44 647.05 889.81 361.20 1054.45 354.08 1051.18 482.76 898.80 591.79 1031.39 589.65
00050973 00000118 639.37 102.65 458.03 652.22 890.34 359.36 1054.35 352.88 1052.86 484.15 894.48 593.13 1028.59 591.78
00050974 00000119 638.37 105.02 458.40 653.79 890.51 357.94 1053.93 352.80 1053.48 485.38 890.57 593.44 1026.30 593.53
00050975 00000120 637.59 105.15 459.10 651.49 889.83 357.46 1053.94 353.13 1052.57 484.83 887.50 591.32 1024.86 592.19
00050976 00000121 640.64 104.20 456.98 653.69 891.36 356.27 1055.69 357.04 1050.72 485.30 885.38 589.99 1023.81 594.70
00050977 00000122 645.00 109.14 456.95 653.31 896.21 357.03 1058.95 359.25 1054.54 488.66 886.51 591.26 1025.50 597.28
00050978 00000123 648.80 108.20 457.51 659.71 898.90 359.53 1062.80 362.43 1057.56 490.51 889.10 593.18 1029.73 599.65
00050979 00000124 652.47 115.82 461.79 656.94 907.04 364.44 1068.49 370.06 1058.71 493.23 891.44 594.92 1030.12 600.72
00050980 00000125 657.73 118.94 461.63 652.03 910.86 366.90 1073.79 371.57 1062.78 497.10 897.04 597.37 1035.76 602.73
00050981 00000126 661.11 122.33 461.05 648.65 914.52 370.42 1077.86 374.05 1067.45 499.55 901.96 599.48 1040.42 604.16
00050982 00000127 661.38 120.95 461.18 650.31 916.69 374.26 1078.31 376.51 1070.27 502.56 904.33 601.59 1041.13 605.46
00050983 00000128 660.98 124.86 460.75 646.14 916.30 378.22 1077.23 378.60 1068.96 506.45 904.02 603.89 1039.12 606.31
00050984 00000129 662.15 114.00 458.38 654.64 909.12 379.79 1073.84 375.21 1069.00 507.88 901.27 603.12 1038.16 603.86
00050985 00000130 661.07 119.53 456.93 647.83 906.74 382.59 1071.69 375.21 1066.61 510.85 900.03 605.75 1035.88 604.48
00050986 00000131 658.92 120.22 455.73 644.40 902.67 386.81 1068.07 374.16 1063.57 512.83 896.86 606.94 1033.14 601.73
00050987 00000132 654.64 121.46 455.41 642.19 898.26 388.52 1064.29 373.51 1060.67 512.95 892.59 607.66 1030.35 600.68
00050988 00000133 652.23 117.29 453.52 645.44 896.34 387.71 1060.39 371.78 1058.23 511.12 889.22 606.41 1026.57 598.68
00050989 00000134 647.93 115.46 452.83 650.27 892.56 388.08 1056.32 371.32 1055.49 509.70 886.93 606.25 1025.90 597.74
00050990 00000135 644.78 116.33 454.31 648.48 890.24 386.64 1053.91 369.90 1053.38 510.46 885.58 606.29 1024.36 597.78
00050991 00000136 640.83 116.09 456.76 653.38 888.51 383.33 1051.35 370.75 1050.30 508.77 885.45 607.50 1021.54 602.32
00050992 00000137 641.04 117.03 454.06 649.53 885.63 384.28 1050.83 372.82 1046.85 510.43 885.52 608.91 1019.51 604.76
00050993 00000138 640.08 119.79 455.25 646.95 885.53 385.49 1051.69 376.20 1045.02 514.65 883.58 610.93 1016.08 608.77
00050994 00000139 639.64 116.32 457.91 653.13 885.65 389.82 1053.56 377.86 1045.52 519.55 881.08 614.66 1015.14 610.31
00050995 00000140 643.07 117.95 458.86 652.76 887.06 395.80 1056.19 382.00 1045.98 523.33 883.33 616.69 1018.77 610.43
00050996 00000141 647.34 127.78 461.75 645.44 892.19 396.04 1062.56 386.94 1047.66 526.87 886.87 620.17 1018.75 617.37
00050997 00000142 652.78 135.88 461.83 638.89 896.77 397.79 1064.76 392.25 1047.29 530.59 889.43 621.67 1016.83 621.88
00050998 00000143 660.77 135.65 458.44 642.32 903.02 401.23 1070.85 393.61 1054.50 531.23 896.84 624.05 1023.27 622.72
00050999 00000144 663.14 135.32 459.48 640.37 914.75 398.80 1076.77 392.37 1061.12 527.91 913.40 625.13 1036.41 621.65
00051000 00000145 668.40 126.26 461.63 644.16 917.78 393.24 1085.11 388.19 1071.91 525.93 916.61 620.65 1037.41 621.01
00051001 00000146 673.50 124.98 459.20 640.98 924.09 388.76 1087.51 384.46 1077.74 519.35 924.61 615.29 1043.11 616.23
00051002 00000147 681.55 128.23 453.08 637.05 931.21 379.13 1098.95 385.65 1081.57 508.92 924.05 609.48 1054.68 616.21
00051003 00000148 679.98 115.69 453.66 650.97 929.84 368.76 1098.17 379.79 1080.05 501.24 917.66 602.62 1051.62 613.03
00051004 00000149 673.17 112.25 458.17 653.57 926.05 363.01 1093.50 374.71 1076.38 496.71 912.66 599.52 1045.58 610.58
00051005 00000150 666.43 102.40 460.59 660.59 917.54 361.19 1081.20 368.84 1070.63 493.07 908.15 590.92 1040.65 600.84
00051006 00000151 670.34 112.23 456.73 653.57 925.64 361.28 1089.40 374.12 1073.54 493.12 910.73 597.00 1041.35 608.91
00051007 00000152 672.86 106.56 455.87 662.34 930.44 362.64 1095.67 375.63 1080.96 496.13 913.83 599.72 1046.09 612.01
00051008 00000153 675.40 108.12 454.97 662.82 936.45 367.25 1098.10 378.27 1087.24 500.97 917.41 602.37 1047.97 613.41
00051009 00000154 679.95 115.53 450.74 655.23 941.34 371.14 1099.03 379.23 1092.49 503.10 921.73 603.14 1050.88 612.13
00051010 00000155 684.09 118.84 448.12 653.92 944.65 372.30 1100.29 379.26 1095.36 504.15 924.33 604.27 1052.55 612.50
00051011 00000156 684.67 106.25 451.38 663.36 936.20 370.28 1094.02 372.88 1090.93 499.83 927.02 598.97 1053.37 604.94
00051012 00000157 689.34 118.25 447.00 646.39 944.67 369.54 1103.82 376.72 1097.30 501.56 929.66 602.93 1056.62 611.23
00051013 00000158 683.40 103.93 450.60 651.67 931.11 370.02 1093.57 369.76 1087.35 495.71 931.59 595.49 1058.82 598.14
00051014 00000159 682.34 98.87 450.55 652.05 926.39 369.23 1092.07 368.43 1081.89 492.78 928.78 593.37 1057.97 595.22
00051015 00000160 679.97 97.13 449.32 651.14 924.95 368.30 1090.99 369.01 1081.25 492.26 926.49 592.73 1055.07 595.97
00051016 00000161 678.51 98.39 449.69 656.26 925.16 366.11 1088.62 370.15 1080.30 492.10 923.26 592.35 1051.62 598.58
00051017 00000162 681.53 105.93 447.84 650.59 932.75 362.50 1098.29 376.60 1082.37 495.29 921.96 596.95 1050.92 609.90
00051018 00000163 679.80 106.20 449.23 651.84 932.58 361.50 1098.43 375.80 1083.03 493.74 921.32 596.90 1050.10 610.11
00051019 00000164 679.90 105.12 448.74 649.92 931.73 358.77 1098.08 373.35 1081.36 490.47 921.80 594.24 1050.29 607.54
00051020 00000165 679.28 106.01 448.82 648.77 930.06 355.48 1095.28 367.74 1079.87 487.02 921.71 593.13 1049.66 604.51
00051021 00000166 676.23 106.86 449.79 649.66 926.90 352.46 1092.23 364.02 1077.09 482.02 920.47 591.14 1049.06 601.67
