Video ID: 	-YYuh0UHDgQ
H: 	1080
W: 	1920
FPS: 	29.97002997002997

FRAME INDEX X0 Y0 W H [Landmarks (5 Points)]

00003232 00000000 450.82 106.24 488.13 704.30 525.78 364.08 740.26 359.05 580.50 451.41 530.45 609.12 704.50 606.80
00003233 DELETE   445.56 106.71 487.93 705.03 522.33 363.15 735.05 357.89 575.56 452.97 528.31 608.85 702.92 606.06
00003234 00000002 440.54 106.88 491.29 709.40 519.48 364.74 731.61 356.02 571.54 453.29 528.10 611.28 703.10 605.30
00003235 00000003 436.18 107.03 494.37 719.83 518.21 365.00 730.84 354.71 571.90 455.04 529.06 615.80 708.45 608.12
00003236 00000004 435.15 105.27 495.20 730.21 518.57 365.20 731.24 353.44 572.42 456.57 531.21 620.48 711.98 611.35
00003237 00000005 433.96 104.51 498.19 732.21 517.99 368.40 732.09 353.69 574.09 457.94 533.58 624.65 714.94 612.97
00003238 00000006 431.87 108.21 499.89 726.89 516.91 372.33 730.25 356.03 575.57 462.18 535.29 623.31 719.37 610.03
00003239 00000007 430.89 107.51 500.59 718.35 515.50 374.81 730.13 358.46 577.74 466.01 535.39 620.70 720.61 607.78
00003240 00000008 431.34 109.01 500.40 707.96 513.42 378.54 730.88 361.06 580.53 469.13 533.60 620.14 720.96 606.83
00003241 00000009 433.62 111.01 500.07 707.52 514.64 379.73 731.85 362.01 581.82 471.41 534.93 620.47 723.19 606.81
00003242 00000010 434.63 110.38 501.26 713.73 517.31 378.91 732.40 361.28 582.69 471.20 538.68 622.39 723.03 608.52
00003243 00000011 436.86 109.67 498.80 716.79 519.90 376.42 733.38 359.82 582.84 468.80 540.56 622.50 722.37 609.25
00003244 00000012 438.80 109.27 493.61 709.39 521.70 372.00 734.75 358.28 586.01 465.84 541.06 618.25 720.27 607.51
00003245 00000013 440.69 105.66 492.21 702.95 520.57 371.82 736.29 356.41 587.45 458.54 537.91 614.74 715.01 603.57
00003246 00000014 441.05 104.10 494.05 700.83 521.53 369.15 740.15 355.66 590.03 456.93 535.30 610.40 714.18 601.09
00003247 00000015 444.92 106.17 490.62 699.40 525.19 369.56 741.05 357.09 591.63 459.94 538.22 610.53 715.83 601.79
00003248 00000016 446.64 106.67 488.51 700.10 527.03 369.97 740.25 359.24 591.31 462.88 540.92 613.08 713.84 605.64
00003249 00000017 444.62 107.75 486.78 702.79 527.15 369.74 736.82 359.65 589.97 463.92 544.56 616.58 707.50 609.50
00003250 00000018 438.54 109.42 494.72 705.39 523.58 370.17 733.75 364.47 585.06 470.27 537.13 619.40 698.48 616.43
00003251 00000019 435.08 112.53 497.47 703.69 516.19 374.67 725.02 369.39 572.46 478.73 528.87 625.84 687.63 623.53
00003252 00000020 426.21 117.22 500.69 706.04 510.42 377.46 717.24 370.64 566.13 486.23 524.24 633.89 675.96 630.38
00003253 00000021 422.83 119.86 502.85 706.49 504.76 383.91 706.77 376.92 550.12 488.27 514.01 638.04 664.16 634.65
00003254 00000022 420.20 122.60 505.62 704.90 499.65 383.53 696.54 381.27 531.75 487.44 503.81 635.29 653.44 635.64
00003255 00000023 414.47 128.41 499.76 693.11 492.63 382.00 688.57 382.62 523.70 487.74 495.73 629.64 644.97 632.05
00003256 00000024 412.54 128.63 496.71 692.20 488.25 382.21 687.19 381.97 519.87 485.89 491.75 629.52 643.50 630.95
00003257 00000025 412.50 128.93 496.66 689.36 488.66 380.82 687.47 382.09 521.35 486.36 492.92 627.24 644.71 629.93
00003258 00000026 415.78 127.22 494.70 686.70 490.94 380.57 689.78 382.93 526.12 489.07 495.50 626.33 649.95 629.88
00003259 00000027 416.49 125.56 499.69 687.94 494.42 380.29 693.27 382.38 531.57 489.30 499.75 625.80 654.97 629.33
00003260 00000028 417.83 119.22 503.94 697.83 499.64 380.59 701.01 381.13 542.27 490.59 506.26 626.85 665.77 629.06
00003261 00000029 421.90 119.60 503.69 697.01 504.58 381.56 709.18 377.80 556.59 492.29 515.13 628.60 675.71 627.30
00003262 00000030 425.67 118.03 502.77 697.98 509.16 381.38 715.98 374.60 567.84 492.19 525.56 628.11 688.24 623.92
00003263 00000031 430.65 121.25 499.30 690.66 513.48 380.69 723.36 373.74 575.48 489.46 532.17 626.33 698.08 621.79
00003264 00000032 431.97 118.15 498.92 691.99 518.76 379.23 729.33 370.14 585.45 485.51 540.40 625.50 703.81 619.21
00003265 00000033 437.14 118.55 497.49 695.77 525.33 379.84 735.37 368.55 592.74 482.34 548.56 627.12 709.48 618.87
00003266 00000034 442.78 121.07 494.26 698.03 529.26 383.44 739.08 370.52 598.13 482.71 551.80 631.33 713.83 621.63
00003267 00000035 446.74 118.68 493.77 705.81 532.68 386.76 741.24 371.66 600.81 482.34 556.75 637.14 713.46 625.87
00003268 00000036 446.58 117.03 492.66 707.34 531.82 388.52 740.98 373.69 600.18 484.28 555.27 640.30 708.67 629.61
00003269 00000037 445.04 118.00 494.48 711.04 530.71 389.51 739.94 374.05 598.97 484.56 553.71 643.43 705.74 632.32
00003270 00000038 441.49 120.03 496.50 715.93 531.24 389.98 738.22 374.14 597.88 483.14 555.97 648.96 699.16 637.70
00003271 00000039 439.22 130.18 500.82 715.61 525.13 390.03 740.16 373.77 596.21 482.53 553.26 655.40 700.48 644.95
00003272 00000040 440.18 121.28 495.42 713.34 526.33 392.42 736.37 376.49 592.60 488.41 547.97 648.56 704.25 636.87
00003273 00000041 434.78 121.81 497.92 702.74 522.53 393.09 730.12 379.05 586.18 491.43 540.57 639.80 703.45 629.60
00003274 00000042 429.36 122.12 502.98 700.10 518.48 392.31 724.54 378.34 580.41 491.63 538.34 637.37 701.36 626.98
00003275 00000043 426.37 120.72 506.16 700.44 514.68 389.46 721.35 376.86 575.67 493.22 535.57 636.35 698.28 627.07
00003276 00000044 425.90 119.24 505.05 702.68 513.44 385.26 720.07 374.02 573.77 492.21 534.43 635.21 696.92 627.01
00003277 00000045 424.65 117.97 504.43 699.62 511.44 383.29 720.12 372.54 574.50 492.01 533.05 632.59 697.28 624.82
00003278 00000046 427.12 117.80 498.83 692.91 511.52 383.01 721.12 372.46 576.83 490.41 533.55 629.15 700.19 621.50
00003279 00000047 428.78 119.38 495.88 687.86 511.93 383.83 722.12 370.94 580.49 489.03 536.86 628.96 702.19 619.27
00003280 00000048 432.17 118.68 493.55 687.71 514.14 383.64 725.67 368.31 586.04 487.01 541.11 628.03 708.81 616.20
00003281 00000049 436.46 120.04 490.94 686.09 519.62 381.12 731.76 365.41 595.49 483.12 547.53 625.87 715.95 613.57
00003282 00000050 437.40 118.78 494.08 689.45 524.85 381.58 738.57 364.78 602.28 478.26 552.16 624.21 722.99 610.76
00003283 00000051 435.56 116.59 501.10 692.39 531.18 381.13 744.00 364.97 608.79 478.23 559.07 622.84 729.70 609.68
00003284 00000052 438.67 114.57 502.18 699.13 537.04 379.10 749.96 364.24 616.31 480.41 565.11 623.85 736.91 611.61
00003285 00000053 443.67 116.79 501.96 701.56 545.16 379.70 757.32 362.81 628.65 480.86 576.79 626.37 745.25 612.29
00003286 00000054 442.54 116.75 508.91 702.40 551.94 379.35 767.54 360.77 641.11 478.44 587.30 628.41 751.78 612.95
00003287 00000055 447.11 115.09 507.40 698.49 559.75 380.31 780.05 362.81 653.13 478.22 595.13 628.58 761.09 613.99
00003288 00000056 446.51 112.87 507.85 698.31 559.31 374.18 792.75 354.69 668.35 468.83 600.10 631.18 778.19 613.46
00003289 00000057 449.10 111.42 509.92 702.51 569.63 368.03 802.20 350.17 682.29 462.76 614.23 630.27 785.74 613.67
00003290 00000058 447.47 104.91 520.87 730.63 584.22 368.98 807.42 354.73 691.66 462.40 623.63 631.04 790.02 617.33
00003291 00000059 450.62 104.28 520.65 735.72 589.79 364.46 814.41 352.16 700.20 464.28 629.82 630.48 798.94 617.57
00003292 00000060 454.68 101.23 520.95 738.79 598.05 365.37 821.24 351.99 709.90 461.72 635.11 629.01 805.86 615.01
00003293 00000061 460.43 100.89 510.19 731.27 602.34 360.17 822.05 345.68 719.07 452.67 639.35 625.46 810.79 612.83
00003294 00000062 468.24 96.82 512.87 737.81 609.96 360.41 840.08 345.28 730.93 449.06 649.82 627.32 828.96 613.21
00003295 00000063 472.69 93.82 510.87 727.67 613.63 359.07 845.42 345.37 735.62 455.07 652.11 621.31 832.86 608.19
00003296 00000064 476.77 96.24 509.36 721.86 618.38 356.62 849.85 343.36 742.90 455.56 658.64 620.38 837.11 607.71
00003297 00000065 476.35 97.55 508.55 711.93 621.14 354.46 847.05 345.08 745.34 453.00 659.75 615.74 834.11 606.52
00003298 00000066 478.04 97.78 507.97 716.42 624.59 353.80 849.11 344.40 751.48 453.51 663.54 617.51 838.53 608.34
00003299 00000067 479.80 99.21 507.16 713.75 625.94 354.37 851.04 345.46 754.01 454.40 664.60 617.55 840.98 608.72
00003300 00000068 480.17 99.61 507.31 712.29 625.30 355.58 851.64 346.33 753.18 456.40 663.79 617.79 841.74 608.59
00003301 00000069 479.42 98.67 506.47 710.21 622.91 356.52 850.12 347.82 748.95 456.63 660.67 617.13 839.55 608.37
00003302 00000070 478.15 97.63 505.67 709.93 620.31 361.14 846.87 351.19 742.61 457.30 655.90 616.63 837.09 606.81
00003303 00000071 480.42 99.90 500.69 704.25 619.72 369.59 841.46 358.09 739.28 461.30 648.80 616.03 835.66 606.69
00003304 00000072 477.43 99.72 502.38 704.48 615.33 368.41 837.66 357.21 733.22 460.75 643.84 616.26 830.08 607.14
00003305 00000073 473.57 93.16 502.84 710.40 609.18 369.57 831.28 355.21 725.82 458.72 639.04 616.12 825.59 604.32
00003306 00000074 469.38 96.51 503.23 709.30 604.81 368.07 824.92 351.98 719.50 455.31 637.89 616.50 820.45 603.28
00003307 00000075 464.06 97.95 512.23 717.12 593.70 361.84 824.51 339.69 710.98 449.37 640.72 622.71 817.75 602.40
00003308 00000076 457.16 97.17 515.38 717.08 585.57 363.03 813.48 337.87 699.57 448.35 637.22 622.50 810.18 599.58
00003309 00000077 448.23 102.12 512.68 699.91 576.01 365.79 810.32 342.17 696.43 452.46 628.67 622.76 804.54 600.78
00003310 00000078 444.66 102.52 511.41 699.77 568.10 367.54 799.20 341.50 684.28 453.64 620.52 623.07 794.01 598.94
00003311 00000079 437.70 104.13 513.44 699.77 558.76 365.04 790.53 335.07 673.95 450.74 613.82 625.66 785.64 598.49
00003312 00000080 430.23 99.88 518.58 716.08 551.39 367.59 780.95 332.34 663.26 450.91 608.52 629.94 781.89 598.81
00003313 00000081 423.41 96.38 522.19 718.06 542.58 369.18 773.53 331.07 654.50 451.01 600.29 628.34 778.06 595.11
00003314 00000082 410.89 94.29 531.34 716.82 535.43 370.25 763.13 331.48 646.31 448.63 595.68 624.38 770.41 590.42
00003315 00000083 403.16 93.59 538.36 718.92 530.63 371.04 757.51 332.17 640.67 445.21 590.43 621.23 765.43 586.72
00003316 00000084 405.67 96.15 532.32 713.64 529.65 372.26 757.11 335.26 636.15 448.48 580.06 618.01 755.38 586.51
00003317 00000085 395.44 90.84 536.60 714.53 520.47 372.95 741.81 335.50 629.65 441.18 580.22 615.93 752.21 584.47
00003318 00000086 391.87 89.18 536.27 716.30 516.18 373.87 735.22 333.56 623.46 441.42 576.63 616.03 747.49 582.21
00003319 00000087 388.59 91.04 536.92 720.76 512.32 374.44 732.73 333.03 619.03 442.27 571.87 619.34 743.86 584.74
00003320 00000088 386.18 91.10 536.74 719.42 509.22 375.05 729.71 331.86 616.13 444.13 570.56 620.47 741.06 584.64
00003321 00000089 383.10 92.97 539.86 720.00 504.79 375.03 724.22 328.28 611.89 445.23 570.49 622.65 739.39 583.73
00003322 00000090 379.58 90.87 540.79 717.47 500.75 375.64 720.16 326.42 608.04 447.38 569.75 624.48 735.82 583.33
00003323 00000091 377.43 89.39 543.84 716.36 495.04 377.50 717.96 325.63 601.80 449.04 563.24 625.58 734.32 582.18
00003324 00000092 374.36 88.53 546.00 716.66 491.23 379.57 714.59 324.75 597.84 450.13 560.39 626.10 733.07 580.31
00003325 00000093 372.51 89.18 546.32 721.75 490.03 380.07 711.77 323.96 595.41 448.53 560.93 629.40 729.22 582.60
00003326 00000094 372.20 91.17 543.50 734.31 496.48 378.05 707.19 324.22 598.21 444.09 572.34 636.29 721.20 592.01
00003327 00000095 372.71 92.24 542.82 728.76 496.64 378.11 708.47 325.83 598.27 445.82 571.63 635.01 720.03 592.01
00003328 00000096 374.56 89.80 540.46 704.20 493.62 379.00 712.09 327.18 598.01 450.32 567.51 625.73 723.47 582.84
00003329 00000097 375.34 88.36 537.60 698.63 495.51 377.41 715.14 327.76 601.79 451.44 568.21 621.64 726.71 580.40
00003330 00000098 377.63 86.15 538.01 704.09 499.86 378.35 719.22 329.66 608.06 452.01 570.20 618.91 734.95 578.05
00003331 00000099 384.31 85.78 535.45 704.93 507.94 385.56 723.26 336.16 616.13 451.92 576.03 617.04 745.75 574.98
00003332 00000100 390.11 89.78 530.14 706.73 516.70 387.35 727.89 337.30 626.90 445.77 585.80 617.61 754.16 575.36
00003333 00000101 392.48 88.50 531.74 709.16 521.78 383.85 734.29 335.31 636.74 444.19 591.98 617.73 762.81 577.34
00003334 00000102 398.68 82.96 527.49 700.56 525.81 381.56 740.98 332.17 645.50 442.82 598.80 614.30 771.02 573.27
00003335 00000103 402.41 81.11 525.50 697.24 529.92 376.99 744.95 328.24 651.92 440.57 602.60 609.61 777.60 569.27
00003336 00000104 406.29 80.45 523.16 691.85 532.38 375.05 748.06 324.89 655.37 438.97 606.02 606.94 780.89 565.53
00003337 00000105 408.05 81.12 524.49 691.46 534.60 373.71 752.04 323.47 658.40 434.98 610.22 606.69 784.18 565.25
00003338 00000106 410.67 81.30 524.58 692.73 535.94 370.47 754.59 321.75 658.81 433.21 610.00 604.50 785.48 564.41
00003339 00000107 403.45 79.66 539.41 717.46 539.47 366.87 759.52 318.98 659.28 427.62 611.42 611.13 783.28 569.05
00003340 00000108 404.20 84.19 536.73 718.28 540.23 363.27 759.67 318.10 657.35 427.29 608.82 611.70 779.73 572.11
00003341 00000109 404.61 83.66 535.63 720.11 539.16 359.08 759.92 316.54 653.26 426.25 602.37 610.09 775.37 572.68
00003342 00000110 406.51 81.33 533.87 720.81 537.13 355.70 759.98 314.07 649.42 423.76 597.72 608.70 772.54 572.09
00003343 00000111 408.14 77.61 532.40 723.28 535.61 353.44 760.41 313.11 646.62 424.35 592.39 606.76 768.97 571.37
00003344 00000112 412.73 77.38 528.50 720.97 535.36 351.77 761.38 314.80 644.05 423.53 588.60 606.91 763.00 574.76
00003345 00000113 416.43 77.96 524.45 716.53 535.17 354.23 760.50 318.76 642.38 423.36 586.97 607.33 760.23 576.47
00003346 00000114 426.20 83.38 513.92 708.22 539.81 360.66 760.07 330.84 637.03 432.16 582.67 606.15 752.84 581.32
00003347 00000115 427.07 88.07 513.40 705.11 537.03 364.80 758.17 335.58 630.80 432.50 577.32 606.33 747.14 582.11
00003348 00000116 426.39 84.65 510.72 705.76 533.19 363.09 755.91 336.61 625.71 432.75 570.65 605.07 741.77 583.39
00003349 00000117 430.01 85.34 507.01 706.61 533.25 361.04 755.44 336.86 622.40 437.06 566.67 604.72 738.39 585.13
00003350 00000118 432.33 88.72 504.50 705.42 535.46 359.99 757.74 339.00 623.19 438.12 565.82 604.94 736.29 588.11
00003351 00000119 436.43 91.85 503.12 704.74 538.52 362.16 760.78 340.48 627.02 443.79 570.61 610.20 740.53 592.58
00003352 00000120 433.92 93.03 509.00 711.60 546.37 363.08 768.09 342.30 639.34 448.98 580.26 614.74 749.77 597.60
00003353 00000121 439.55 96.62 510.18 710.27 555.64 365.03 778.25 345.26 649.80 453.29 589.83 617.96 761.59 601.56
00003354 00000122 439.60 100.84 512.07 701.45 554.70 362.94 786.78 335.14 663.43 451.38 605.19 625.68 777.48 600.76
00003355 00000123 444.55 102.17 511.59 699.88 563.11 365.11 796.32 338.10 677.50 452.20 615.22 626.54 787.81 602.03
00003356 00000124 447.39 103.07 513.16 700.18 569.65 367.74 803.85 341.15 686.98 453.33 624.33 626.15 798.79 602.06
00003357 00000125 454.09 93.78 513.45 714.80 584.09 376.65 801.24 346.26 692.94 452.02 631.67 623.72 803.66 598.59
00003358 00000126 456.15 91.98 512.85 713.24 587.68 377.80 804.22 344.80 699.95 449.52 638.66 622.60 812.76 595.17
00003359 00000127 458.35 94.49 510.94 707.35 588.15 377.02 806.36 342.45 703.08 448.08 641.35 620.73 816.35 592.24
00003360 00000128 458.67 93.87 510.96 706.04 588.70 375.18 807.83 341.11 705.56 446.79 642.22 619.01 819.34 590.97
00003361 00000129 458.18 93.25 510.68 705.94 588.64 374.77 807.78 341.18 705.38 445.01 641.47 617.11 818.99 589.47
00003362 00000130 457.00 93.78 510.43 701.24 586.91 374.37 805.47 339.88 702.76 442.45 640.33 614.90 815.96 586.52
00003363 00000131 454.46 90.92 512.88 699.37 583.07 372.70 802.72 336.85 697.59 438.92 636.40 611.18 812.60 581.71
00003364 00000132 452.87 87.20 514.40 699.07 580.04 370.34 795.93 332.76 690.16 434.68 632.79 606.22 805.63 575.32
00003365 00000133 448.17 85.32 519.25 700.96 574.02 371.02 789.30 330.12 683.06 434.48 629.52 607.00 799.10 573.31
00003366 00000134 438.04 96.23 524.20 694.33 562.16 367.26 792.39 323.94 681.80 432.66 629.54 617.68 806.17 579.36
00003367 00000135 434.60 92.04 525.84 699.01 559.47 365.49 788.23 322.17 677.44 429.90 627.45 618.11 797.78 580.12
00003368 00000136 432.09 92.60 527.11 697.30 555.96 366.78 782.50 322.95 672.22 429.24 625.42 619.47 791.47 581.09
00003369 00000137 428.09 93.34 528.37 697.18 552.17 370.95 776.17 324.91 665.79 433.52 622.27 621.99 785.72 581.75
00003370 00000138 425.84 99.82 529.39 695.33 549.01 372.09 773.83 326.94 660.85 438.65 618.89 624.92 781.51 585.66
00003371 00000139 424.88 99.75 529.99 697.17 546.72 374.60 772.44 328.74 658.35 441.92 615.95 626.30 781.85 586.45
00003372 00000140 424.17 99.01 529.71 697.65 545.90 375.94 772.45 329.79 658.64 444.32 615.33 627.21 782.74 587.08
00003373 00000141 424.39 98.76 530.30 696.23 545.66 378.73 772.22 330.80 659.45 448.29 616.07 627.91 785.52 586.17
00003374 00000142 426.82 98.73 528.25 695.29 546.47 382.18 772.19 332.43 660.38 450.65 616.82 628.48 789.94 585.17
00003375 00000143 428.05 100.05 527.52 694.41 549.21 390.01 773.85 337.49 665.31 450.04 618.80 628.56 799.45 582.72
00003376 00000144 428.19 99.19 529.86 694.42 552.53 389.43 778.50 336.10 671.93 449.29 622.68 627.25 806.57 580.55
00003377 00000145 441.64 88.95 520.58 700.66 565.84 390.12 782.31 340.06 678.99 449.94 624.30 618.61 806.64 576.18
00003378 00000146 446.99 88.34 516.64 698.86 574.30 388.82 791.59 342.45 691.41 450.32 630.19 615.06 817.45 575.69
00003379 00000147 454.63 85.31 511.62 703.41 582.43 384.68 798.81 341.86 701.10 447.29 638.68 613.89 824.61 577.87
00003380 00000148 459.31 87.28 508.62 699.40 587.75 380.80 807.65 339.67 711.86 449.31 647.04 614.49 835.29 580.07
00003381 00000149 462.40 86.15 509.41 696.54 593.08 377.13 818.17 337.82 723.14 450.88 653.20 613.50 845.47 580.45
00003382 00000150 469.19 85.24 507.64 695.24 599.31 375.25 826.26 336.90 732.77 451.39 658.72 611.92 853.01 579.83
00003383 00000151 474.83 86.30 502.65 692.62 606.78 371.86 832.00 337.25 740.85 450.50 662.69 607.53 857.01 578.84
00003384 00000152 478.30 88.06 502.96 692.28 610.60 369.05 836.43 337.33 743.55 450.30 663.43 605.45 858.14 579.33
00003385 00000153 480.26 91.75 503.11 687.43 612.66 367.77 839.75 337.82 745.58 450.44 664.31 604.67 859.61 579.84
00003386 00000154 480.37 91.41 507.05 688.47 613.72 367.50 842.13 339.27 745.71 451.04 664.20 605.57 858.94 582.01
00003387 00000155 480.25 92.16 510.02 690.48 613.45 366.25 842.43 339.64 743.75 451.73 662.22 608.26 855.36 585.89
00003388 00000156 479.82 91.99 511.10 690.97 611.65 365.96 840.91 339.54 740.74 452.28 660.86 610.26 852.24 588.02
00003389 00000157 477.39 91.57 512.74 693.55 608.00 367.01 836.21 339.39 734.07 451.72 657.30 611.66 847.81 588.34
00003390 00000158 476.90 89.18 512.69 693.92 605.22 366.79 831.67 338.66 728.70 451.95 654.80 610.92 842.81 587.16
00003391 00000159 475.41 86.57 509.84 693.21 602.06 366.19 826.55 338.51 723.10 449.49 651.27 609.21 835.20 585.96
00003392 00000160 471.19 87.40 509.30 693.35 599.37 365.08 821.04 338.58 716.02 445.86 647.42 607.81 824.24 585.85
00003393 00000161 464.72 86.36 509.29 699.00 597.94 362.29 813.28 338.15 709.03 442.73 644.32 605.12 811.40 585.11
00003394 00000162 459.77 87.75 511.01 703.05 590.39 365.10 806.87 336.76 700.30 438.97 638.77 608.35 807.03 584.99
00003395 00000163 455.15 85.87 512.50 710.80 585.04 372.32 797.22 340.07 691.35 438.67 631.82 610.88 801.04 584.19
00003396 00000164 450.54 89.92 513.67 715.12 577.78 376.78 788.03 339.74 681.87 441.71 626.44 616.54 795.10 585.94
00003397 00000165 437.05 100.89 514.46 708.76 560.74 374.86 786.18 334.39 674.28 447.37 619.61 628.53 794.15 592.92
00003398 00000166 431.65 98.42 516.25 709.76 553.64 376.65 780.99 334.54 669.07 449.90 614.31 629.93 791.91 593.02
CROP_BBOX: 196 0 1285 1010
