Video ID: 	EBOafgYJABA
H: 	1080
W: 	1920
FPS: 	23.976023976023978

FRAME INDEX X0 Y0 W H [Landmarks (5 Points)]

00004717 00000000 375.30 60.86 532.33 723.74 560.47 280.69 789.19 321.94 679.98 440.04 561.55 566.95 723.04 600.56
00004718 00000001 371.74 64.00 549.93 740.80 573.11 284.51 805.34 324.60 696.07 448.75 564.78 563.42 742.67 595.61
00004719 00000002 379.44 59.42 545.53 727.80 575.79 280.65 814.34 330.62 703.58 444.10 560.76 559.58 752.68 600.47
00004720 DELETE   375.81 53.29 562.25 710.50 575.65 283.91 825.69 327.59 711.16 445.30 564.94 560.26 761.25 595.37
00004721 DELETE   378.54 70.50 550.38 735.07 590.85 286.88 830.47 327.41 723.98 454.87 585.02 571.02 764.02 602.77
00004722 DELETE   368.09 66.91 567.33 772.55 592.39 291.06 829.72 322.85 736.07 461.86 603.81 587.92 776.51 614.71
00004723 00000006 384.06 78.89 556.03 743.24 597.32 291.00 844.54 334.82 737.13 457.96 594.07 591.13 777.33 625.54
00004724 00000007 377.42 76.70 560.71 772.64 604.30 299.16 844.14 334.82 752.21 464.41 611.04 600.25 788.48 630.11
00004725 00000008 393.61 81.58 552.47 759.07 609.82 297.17 854.15 341.70 748.36 464.12 606.51 601.14 787.42 637.20
00004726 00000009 401.07 98.81 547.14 758.01 618.75 304.60 856.16 338.69 757.72 474.73 621.06 608.89 792.44 636.86
00004727 00000010 401.95 102.94 553.09 763.93 629.59 306.13 864.51 339.53 762.51 484.28 627.00 615.51 795.68 642.52
00004728 DELETE   401.35 104.49 551.39 773.21 627.97 313.12 864.86 346.00 765.93 496.88 618.84 617.75 801.23 643.64
00004729 00000012 400.39 107.03 551.28 762.50 622.78 322.08 861.43 354.01 761.97 501.88 619.31 622.00 799.74 647.10
00004730 00000013 399.05 104.28 551.28 773.23 624.82 323.74 859.01 360.24 760.85 504.81 615.71 626.46 793.04 655.68
00004731 00000014 393.39 120.88 561.27 761.22 618.19 326.49 855.36 364.95 758.25 503.52 606.62 627.38 791.31 657.97
00004732 00000015 392.97 130.43 560.66 761.04 613.31 326.67 852.79 369.53 748.89 505.74 590.40 621.16 791.03 655.37
00004733 00000016 395.67 131.50 553.54 752.79 606.67 329.52 846.44 368.14 742.96 508.78 587.41 619.42 789.02 650.62
00004734 00000017 399.23 132.19 548.37 748.82 606.54 328.93 843.43 369.23 740.84 507.61 584.54 615.33 787.72 648.17
00004735 00000018 394.86 137.99 553.18 748.00 606.74 324.95 843.27 365.99 740.62 509.77 582.58 615.01 787.70 648.08
00004736 00000019 397.88 128.29 553.22 750.71 607.77 320.20 845.46 356.65 742.47 504.63 592.20 610.08 789.96 638.83
00004737 00000020 392.43 115.99 556.95 760.06 612.45 317.24 845.38 353.85 743.21 505.08 596.47 606.30 783.75 635.12
00004738 00000021 388.84 115.55 558.28 763.12 613.70 315.19 844.31 352.41 745.37 503.16 595.28 605.17 783.32 634.70
00004739 00000022 390.32 112.43 552.54 761.47 615.14 313.96 842.60 352.72 747.10 501.26 595.92 599.70 783.08 631.15
00004740 00000023 384.59 102.86 555.34 770.17 615.45 313.54 841.05 353.60 751.65 495.40 595.63 598.89 783.60 631.70
00004741 00000024 382.37 107.24 559.92 776.51 614.69 312.86 840.70 353.73 748.07 496.07 595.49 601.75 782.67 634.69
00004742 00000025 389.68 110.76 560.08 771.83 612.66 315.02 845.69 355.75 740.96 500.77 597.71 608.60 781.00 640.77
00004743 00000026 393.65 114.17 557.57 775.75 609.56 315.67 845.66 353.44 737.73 503.20 598.89 618.69 780.58 648.20
00004744 00000027 395.46 113.87 557.07 771.51 608.27 319.47 844.41 354.09 737.21 503.73 602.76 623.77 778.12 650.64
00004745 00000028 394.64 115.81 560.44 773.61 606.07 320.18 844.01 356.31 733.43 504.72 600.83 625.66 775.98 653.70
00004746 00000029 394.14 113.92 559.37 779.50 605.94 320.51 841.87 358.00 732.11 504.05 597.14 624.73 774.64 653.96
00004747 00000030 394.64 117.24 558.56 775.19 606.71 319.96 842.83 362.05 733.14 504.03 592.09 619.69 775.64 652.69
00004748 00000031 393.59 117.94 561.06 770.72 606.69 319.20 842.78 360.67 733.76 503.10 591.81 616.45 776.70 649.27
00004749 00000032 387.71 120.89 565.65 769.24 607.49 318.30 842.54 360.24 736.83 502.50 591.37 616.24 777.33 649.54
00004750 00000033 383.24 121.31 569.80 767.68 606.57 316.82 844.38 359.10 737.89 503.20 592.13 615.79 778.35 649.21
00004751 00000034 391.05 119.61 561.33 766.09 608.43 318.32 844.83 357.83 737.94 501.00 595.40 615.23 779.71 646.34
00004752 00000035 391.20 120.28 561.80 760.53 610.32 318.32 845.37 358.14 737.73 501.05 596.46 612.20 779.15 643.61
00004753 00000036 383.83 120.39 567.21 764.44 610.59 315.61 845.24 358.48 738.58 502.75 589.74 608.07 778.66 642.01
00004754 00000037 380.86 118.20 567.92 765.95 612.39 317.34 843.72 360.15 743.29 507.15 585.00 604.76 778.65 639.12
00004755 00000038 386.41 121.42 563.72 768.74 613.37 318.42 841.73 362.96 740.73 507.66 583.61 604.27 779.47 640.13
00004756 00000039 388.00 118.66 559.89 767.22 613.17 319.10 840.96 363.02 739.64 508.28 582.72 601.72 778.58 637.30
00004757 00000040 384.31 115.52 562.90 770.61 611.56 318.79 839.56 362.00 738.96 508.59 581.64 600.38 777.06 635.19
00004758 00000041 384.27 120.14 564.96 768.79 611.73 319.59 840.17 362.89 738.75 506.83 582.58 602.29 778.71 636.97
00004759 00000042 377.53 119.55 569.88 765.63 611.32 317.96 840.04 361.68 742.61 505.73 584.34 601.05 779.68 636.15
00004760 00000043 375.05 120.40 570.24 767.24 610.35 317.23 839.39 360.75 744.42 505.41 583.54 602.28 780.15 637.38
00004761 00000044 373.58 123.65 575.02 766.37 608.43 316.56 842.11 358.33 743.58 506.26 585.84 606.80 781.97 640.02
00004762 00000045 369.89 120.75 576.95 768.36 606.22 315.52 843.15 359.78 741.14 508.18 586.78 613.05 775.67 648.00
00004763 00000046 386.44 121.13 564.39 762.85 606.21 316.09 843.59 355.13 733.94 504.63 599.97 617.43 775.82 647.87
00004764 00000047 379.82 120.83 570.48 768.88 605.02 316.66 841.03 358.62 732.69 504.04 597.22 620.19 770.87 653.06
00004765 00000048 382.83 119.06 568.28 772.04 604.13 317.22 840.07 358.59 730.52 503.66 597.24 621.20 770.84 653.58
00004766 00000049 379.48 120.65 570.73 767.96 603.04 318.04 841.39 360.83 732.10 506.00 593.28 619.35 771.24 652.87
00004767 00000050 380.77 124.64 572.14 761.86 605.04 319.55 840.25 362.90 733.40 505.20 591.14 615.48 774.82 649.63
00004768 00000051 376.68 121.81 574.03 764.06 603.79 317.54 839.95 360.05 735.31 504.89 589.80 612.39 777.44 645.94
00004769 00000052 374.40 123.00 575.38 760.14 601.87 317.76 839.55 359.20 735.11 505.34 591.96 612.62 777.12 645.55
00004770 00000053 373.79 119.51 574.81 763.12 602.62 316.73 839.43 357.57 736.07 504.59 593.26 612.78 777.25 645.30
00004771 00000054 378.33 120.20 570.76 757.88 603.33 316.19 839.00 356.92 734.30 505.55 594.40 610.86 774.81 643.43
00004772 00000055 375.41 119.36 573.96 758.65 603.06 315.57 839.55 355.14 735.72 505.69 596.44 611.24 775.66 642.71
00004773 00000056 374.36 115.19 573.18 754.39 602.81 314.16 840.17 353.53 736.41 505.41 596.20 607.22 774.39 638.69
00004774 00000057 374.83 112.14 568.58 747.57 603.23 314.16 839.67 353.46 735.96 508.38 595.13 602.23 772.01 633.71
00004775 00000058 378.13 112.23 564.32 748.00 601.89 314.22 839.47 352.20 736.92 507.92 592.91 600.86 776.36 631.22
00004776 00000059 381.41 110.95 560.17 745.24 601.04 313.27 838.56 350.89 733.91 508.05 592.94 598.52 775.92 628.81
00004777 00000060 385.40 111.51 559.85 754.17 601.01 314.16 837.29 351.29 731.76 509.11 593.59 603.28 775.42 633.29
00004778 00000061 381.93 114.19 565.04 752.78 602.45 313.88 836.43 351.82 732.81 508.19 597.32 605.13 773.95 635.38
00004779 00000062 376.75 117.03 570.74 751.54 600.98 314.71 836.86 355.34 733.30 506.53 594.08 603.79 773.95 635.99
00004780 00000063 375.56 115.06 569.99 748.98 601.39 314.34 837.49 355.39 733.39 506.76 593.10 600.35 773.48 633.12
00004781 00000064 374.62 116.31 569.54 747.41 600.65 313.81 837.83 354.39 734.08 507.50 591.58 600.96 773.99 633.63
00004782 00000065 373.77 113.83 568.69 746.63 601.85 315.45 838.42 354.70 736.28 508.33 589.25 599.41 774.18 631.22
00004783 00000066 376.38 113.79 566.34 750.57 601.91 316.72 836.64 354.47 735.33 507.51 587.45 598.43 774.50 628.98
00004784 00000067 373.50 109.29 567.08 745.93 600.80 315.84 836.30 352.83 735.21 507.11 589.65 595.26 774.77 624.94
00004785 00000068 369.92 113.61 572.36 752.94 600.71 316.33 835.69 354.52 734.66 506.02 588.64 596.21 776.57 626.61
00004786 00000069 373.00 114.94 571.30 756.53 597.15 314.40 835.32 353.65 732.20 506.08 581.66 598.50 776.31 630.10
00004787 00000070 376.59 112.88 573.01 762.20 598.93 314.68 836.37 353.13 729.75 507.21 587.53 604.60 778.60 635.47
00004788 00000071 382.54 114.47 568.49 758.42 599.07 315.97 838.37 354.98 729.33 506.99 588.77 606.72 779.83 637.60
00004789 00000072 378.45 117.47 572.32 759.88 599.13 315.83 839.75 358.54 727.49 507.49 589.04 610.06 774.48 643.99
00004790 00000073 373.27 113.60 572.08 763.55 598.18 315.51 838.12 361.70 727.58 509.36 580.76 610.48 767.90 647.48
00004791 00000074 373.92 116.56 571.82 763.40 599.62 315.72 836.93 361.11 729.26 508.65 580.64 610.45 769.05 647.02
00004792 00000075 368.79 120.70 578.86 765.61 598.49 314.06 837.66 360.57 728.93 507.50 577.85 608.46 770.87 645.79
00004793 00000076 367.09 119.44 577.97 767.32 597.27 313.82 836.08 359.59 728.17 507.48 577.25 606.06 772.12 642.83
00004794 00000077 369.00 120.69 574.31 763.71 598.38 313.60 835.68 357.85 729.38 507.16 580.22 604.41 773.26 639.90
00004795 00000078 370.05 125.60 573.62 759.23 598.80 313.98 835.97 358.19 729.89 508.52 581.67 604.65 773.33 639.89
00004796 00000079 367.80 124.93 577.39 757.49 598.11 313.08 837.80 360.23 729.34 509.01 580.35 606.50 770.55 644.16
00004797 00000080 373.36 118.18 570.39 754.62 598.01 313.50 838.81 360.98 727.78 508.23 581.59 608.12 768.17 646.15
00004798 00000081 374.27 117.97 574.97 753.43 597.78 314.48 840.63 360.43 727.09 506.71 585.47 612.10 768.44 648.73
00004799 00000082 375.82 118.75 573.37 761.91 599.18 317.30 840.10 354.89 731.66 504.89 598.49 620.44 772.04 650.23
00004800 00000083 381.94 114.39 567.83 765.03 601.17 315.71 836.91 351.35 729.55 501.75 602.52 623.09 767.69 651.49
00004801 00000084 382.54 96.02 563.14 780.95 598.05 314.60 830.60 346.84 725.33 496.57 604.80 618.55 767.83 644.69
00004802 00000085 371.88 86.11 568.84 789.53 587.38 315.68 825.03 346.71 720.56 490.08 596.34 612.68 768.30 638.20
00004803 00000086 371.20 87.45 564.32 773.20 586.24 312.57 822.72 343.01 716.84 492.18 594.69 603.41 763.07 628.73
00004804 00000087 366.90 84.17 560.39 751.54 583.45 309.72 821.96 342.31 717.27 493.36 590.74 592.37 765.03 619.14
00004805 00000088 363.79 85.56 562.58 748.90 582.36 309.73 820.90 343.41 717.99 491.49 589.42 591.54 766.11 618.99
00004806 00000089 361.95 85.84 567.16 757.49 582.88 309.17 822.24 344.19 718.66 493.17 588.66 593.04 767.25 621.22
00004807 00000090 372.11 89.73 558.85 762.00 584.90 310.21 824.74 344.24 717.34 497.88 589.83 602.51 765.12 630.31
00004808 00000091 374.83 105.90 560.28 760.13 587.56 312.08 823.22 351.31 715.59 500.30 580.60 602.63 759.98 634.60
00004809 00000092 377.03 116.08 562.74 764.52 588.65 312.46 824.36 351.67 713.47 503.44 572.63 607.19 760.21 638.59
00004810 00000093 378.98 112.85 561.53 771.37 588.54 313.20 824.13 353.89 712.28 502.36 567.91 607.73 759.52 640.80
00004811 00000094 376.17 116.59 563.36 768.36 588.07 313.34 823.74 353.29 713.36 501.84 567.04 606.79 759.54 639.32
00004812 00000095 379.60 111.01 559.60 773.21 589.18 313.27 824.54 353.52 712.72 500.78 568.25 606.72 759.60 639.61
00004813 00000096 374.79 111.16 563.59 769.81 588.74 311.65 823.57 352.09 714.56 499.78 570.26 605.59 758.50 638.74
00004814 00000097 372.63 111.32 565.49 773.78 587.20 311.58 822.92 353.08 713.13 499.55 566.31 605.80 758.09 639.96
00004815 00000098 370.66 108.42 568.19 777.09 586.86 311.61 822.75 353.95 713.01 497.55 566.11 606.62 757.25 641.52
00004816 00000099 369.05 102.76 569.21 774.64 587.32 311.03 823.20 352.51 717.03 495.69 571.29 605.66 758.57 639.80
00004817 00000100 371.63 105.76 564.85 775.66 587.85 311.29 824.01 352.68 719.20 495.07 571.33 607.94 759.83 642.12
00004818 00000101 369.52 101.11 567.57 783.30 589.31 311.27 824.26 354.08 719.11 492.66 571.99 609.62 759.22 644.85
00004819 00000102 372.36 102.49 565.31 778.46 589.19 311.25 825.37 352.32 719.92 494.81 573.85 610.51 760.19 644.37
00004820 00000103 375.70 98.47 562.17 783.45 590.38 311.53 824.72 352.60 718.47 494.34 574.01 609.51 760.02 643.49
00004821 00000104 372.92 92.27 563.94 782.92 590.58 311.64 825.67 350.57 722.20 492.51 579.41 609.70 761.17 642.07
00004822 00000105 379.22 91.21 559.02 785.44 594.99 311.57 824.93 350.77 719.24 495.58 582.95 608.48 759.25 641.17
00004823 00000106 381.34 92.14 556.84 783.74 593.87 312.70 825.57 348.51 719.44 494.73 588.96 610.10 761.25 639.98
00004824 00000107 383.54 93.55 555.51 786.08 594.68 313.00 824.61 349.59 718.10 494.19 589.10 611.40 760.96 641.82
00004825 00000108 381.25 89.34 556.78 789.92 593.07 314.11 823.91 349.48 716.70 494.53 589.45 611.79 760.53 641.25
00004826 00000109 383.91 88.65 555.94 795.75 591.85 313.85 823.28 349.93 714.48 492.41 585.62 613.35 761.26 643.19
00004827 00000110 387.77 93.68 549.78 791.84 590.33 314.87 823.00 350.66 712.78 491.90 583.32 616.56 759.51 646.17
00004828 00000111 383.98 92.62 554.79 795.76 587.80 315.05 822.47 350.16 711.95 495.04 582.99 620.23 759.30 648.96
00004829 00000112 389.83 92.47 549.56 794.81 588.56 315.85 821.99 351.69 709.77 494.10 582.07 619.90 757.82 649.13
00004830 00000113 385.04 95.44 553.14 778.65 588.84 314.65 822.54 353.17 711.01 493.31 582.36 610.09 756.37 641.93
00004831 00000114 377.01 100.52 556.48 774.77 586.93 312.24 820.47 350.59 713.93 495.31 575.84 602.35 759.13 634.24
00004832 00000115 374.61 99.14 556.94 769.92 587.00 311.48 818.59 349.27 715.75 495.70 573.52 597.68 760.07 629.69
00004833 00000116 375.20 102.65 560.04 777.43 587.97 313.46 819.92 351.15 719.41 493.55 571.10 596.73 769.67 628.05
00004834 00000117 372.85 105.31 562.00 771.40 589.28 313.46 820.77 349.94 722.82 495.83 569.50 594.11 770.22 624.36
00004835 00000118 375.80 103.76 560.45 765.71 590.56 310.12 821.16 347.64 720.62 494.98 578.04 591.00 769.37 621.80
00004836 00000119 372.09 102.80 562.10 756.06 590.13 308.55 821.13 346.75 718.50 498.16 578.55 589.32 764.71 620.96
00004837 00000120 374.30 101.87 557.55 757.28 587.75 309.24 821.45 347.45 719.33 496.67 574.37 591.61 767.00 623.65
00004838 00000121 379.84 101.84 560.76 761.41 588.24 309.83 822.30 346.76 714.59 499.07 576.91 594.91 765.82 625.75
00004839 00000122 380.42 102.71 559.53 766.14 588.82 312.07 822.44 349.83 714.20 498.67 579.01 600.24 762.68 631.68
00004840 00000123 388.04 107.93 552.95 761.16 590.08 312.35 824.70 350.79 712.44 497.60 580.02 603.94 760.63 635.69
00004841 00000124 379.11 112.35 561.44 769.98 588.03 313.25 823.21 354.54 712.75 497.03 569.89 605.21 759.49 639.07
00004842 00000125 373.53 105.83 566.81 779.99 588.08 309.16 822.03 352.81 714.96 494.52 567.01 603.24 761.34 639.04
00004843 00000126 376.10 104.77 563.85 779.72 589.98 310.51 822.86 352.79 718.33 493.89 565.39 598.74 764.93 633.67
00004844 00000127 371.15 101.49 565.51 776.73 588.35 311.62 822.98 352.67 722.12 492.58 565.88 595.38 767.52 629.46
00004845 00000128 370.45 100.41 566.74 778.27 588.82 312.18 823.09 351.73 724.38 492.30 566.46 596.32 769.03 629.33
00004846 00000129 373.81 104.25 561.75 769.44 588.34 310.80 823.26 351.67 721.04 493.65 568.44 595.75 767.11 629.76
00004847 00000130 373.98 105.20 567.40 769.71 590.46 309.12 823.33 350.46 717.51 499.71 573.02 598.00 763.60 632.29
00004848 00000131 372.85 105.43 567.99 771.67 588.40 310.25 826.08 349.05 716.98 500.84 581.76 607.39 762.35 639.61
00004849 00000132 377.38 105.68 565.95 787.71 586.94 314.06 824.90 351.72 713.00 497.05 584.99 621.09 760.82 651.96
00004850 00000133 377.63 98.19 565.87 800.16 591.69 311.08 825.97 349.70 712.18 499.58 585.90 626.10 753.36 657.73
00004851 00000134 392.63 104.89 539.68 776.31 588.52 315.69 823.87 345.88 712.71 494.09 594.64 627.86 758.90 653.13
00004852 00000135 394.43 99.91 534.10 772.74 586.37 313.50 826.05 346.59 721.71 479.00 585.68 620.86 767.89 647.49
00004853 00000136 367.87 102.22 560.37 783.71 581.00 313.47 821.62 346.92 722.73 475.42 574.46 616.30 775.61 642.73
00004854 00000137 355.14 117.66 573.32 790.68 575.10 318.23 817.06 344.36 724.13 480.28 574.44 618.77 786.25 637.76
00004855 DELETE   344.77 116.98 576.26 779.82 580.16 324.40 819.93 342.46 733.53 491.20 585.61 619.49 787.48 631.92
00004856 DELETE   349.57 120.39 567.72 765.14 581.62 327.74 822.64 342.79 739.59 497.03 599.63 624.25 792.03 633.59
00004857 00000140 369.67 126.34 550.50 748.07 581.55 337.26 825.81 345.51 740.22 502.24 611.36 634.50 798.61 636.92
00004858 00000141 373.01 136.28 549.26 748.95 586.70 345.55 823.31 353.75 741.83 502.63 614.17 633.01 803.15 634.93
00004859 00000142 380.27 131.54 539.84 746.57 589.70 347.62 825.56 353.98 746.98 501.02 619.62 629.81 811.26 630.52
00004860 00000143 373.08 136.18 551.21 749.81 589.87 347.92 824.69 358.14 749.12 500.15 614.22 627.77 811.86 631.56
00004861 00000144 373.18 131.58 552.11 753.59 589.58 350.69 825.06 360.16 749.84 496.09 618.10 628.91 813.09 631.93
00004862 00000145 371.98 124.64 556.00 768.02 589.90 351.67 824.96 361.78 748.71 496.08 615.72 628.28 813.12 631.73
00004863 00000146 375.60 124.17 552.72 766.27 593.27 352.04 826.14 362.27 750.27 494.61 619.17 627.73 813.42 631.67
00004864 00000147 379.20 128.58 548.64 756.31 596.22 344.95 826.57 357.99 747.97 499.01 615.84 619.79 807.22 626.81
00004865 00000148 378.98 123.37 553.15 763.18 597.97 333.15 834.98 351.64 749.87 501.07 611.56 622.51 801.72 634.17
00004866 00000149 371.33 121.41 561.96 762.56 598.64 327.56 834.54 347.78 747.36 501.87 611.24 620.29 796.41 633.32
00004867 00000150 369.94 119.47 562.89 766.73 595.79 323.82 832.25 338.72 744.48 500.12 611.11 618.43 795.31 627.53
00004868 00000151 359.28 112.16 567.94 764.47 596.52 316.25 830.39 332.31 745.70 493.91 602.96 611.90 787.51 623.20
00004869 00000152 353.62 94.37 571.01 781.50 593.19 313.13 823.35 329.58 742.58 481.62 595.45 603.48 784.85 615.70
00004870 00000153 336.04 83.58 583.17 765.72 583.58 303.33 818.61 325.87 735.60 470.40 587.89 591.51 776.26 608.90
00004871 DELETE   341.97 95.51 575.94 754.97 575.00 293.40 812.08 319.81 722.06 464.61 583.76 585.65 770.98 606.49
00004872 DELETE   353.51 77.84 561.51 753.85 567.90 290.15 805.42 313.97 710.55 449.34 575.78 574.90 765.31 594.34
00004873 DELETE   357.06 75.91 557.45 725.13 565.27 284.47 800.57 325.06 696.55 439.41 557.99 554.04 753.26 585.64
00004874 00000157 373.25 74.21 540.78 717.38 562.04 277.81 795.98 322.53 683.61 433.63 549.11 546.42 741.66 581.50
00004875 00000158 374.93 73.89 533.05 692.33 558.73 270.73 792.54 321.78 678.67 425.34 543.37 535.84 733.79 576.85
00004876 00000159 374.15 70.74 537.37 699.56 554.22 267.65 791.32 321.33 666.33 426.94 537.06 530.62 725.84 574.59
00004877 00000160 370.30 72.34 541.41 699.18 549.42 266.03 788.12 318.58 658.12 429.02 529.19 528.78 724.54 572.01
00004878 00000161 368.02 73.66 550.58 716.40 545.55 265.92 784.32 318.41 651.73 431.32 525.48 532.79 720.99 576.12
00004879 00000162 379.76 73.16 535.77 710.85 548.48 267.09 781.44 320.90 649.71 427.23 524.82 532.73 713.39 577.36
00004880 00000163 382.46 70.79 536.28 716.35 546.76 269.65 783.78 320.23 651.82 425.33 532.13 545.52 709.72 587.23
00004881 00000164 369.22 53.53 552.35 752.26 545.54 272.16 782.07 314.11 659.76 429.80 534.06 556.66 715.50 593.08
00004882 00000165 371.84 53.75 550.20 756.07 548.45 275.44 781.90 318.82 657.78 428.02 533.29 559.23 714.31 597.05
00004883 00000166 356.97 56.13 564.76 773.91 545.72 272.54 779.32 319.58 659.20 428.83 523.80 553.71 717.42 594.33
00004884 00000167 367.15 74.87 548.68 726.53 540.79 266.97 780.57 320.48 648.86 426.21 520.31 541.83 712.55 586.44
00004885 00000168 362.97 74.91 556.14 722.31 539.28 267.13 779.13 319.86 645.15 428.38 515.19 534.30 719.88 577.77
00004886 00000169 367.82 69.95 550.02 739.44 541.86 269.47 777.46 322.93 648.18 431.12 507.44 530.98 725.81 575.20
00004887 00000170 366.04 69.77 552.22 745.62 545.43 270.85 778.52 323.51 654.07 433.83 505.31 529.85 729.92 573.92
