Video ID: 	-6rCMbctoZk
H: 	1080
W: 	1920
FPS: 	25.0

FRAME INDEX X0 Y0 W H [Landmarks (5 Points)]

00002177 00000000 699.08 191.59 551.79 772.72 869.16 468.77 1111.94 496.57 981.07 621.49 857.91 752.72 1042.95 777.38
00002178 00000001 705.60 192.67 549.89 773.17 875.53 469.28 1117.00 495.45 988.74 623.80 865.33 754.52 1051.03 778.08
00002179 00000002 709.29 195.86 551.21 783.16 880.21 474.24 1121.89 500.72 995.11 632.12 869.98 761.99 1058.25 785.72
00002180 00000003 710.61 205.38 549.61 772.71 879.92 472.07 1121.06 497.94 990.09 638.57 873.43 763.69 1057.87 787.28
00002181 00000004 715.38 200.94 545.44 778.76 881.77 473.71 1119.43 497.35 993.54 627.39 875.27 765.53 1053.93 786.99
00002182 00000005 713.73 198.08 545.58 775.67 875.83 469.11 1113.20 490.95 984.90 621.68 872.70 760.78 1048.36 780.91
00002183 00000006 704.73 188.89 547.85 780.06 865.60 465.83 1105.87 488.63 970.19 622.98 862.66 755.67 1040.17 777.24
00002184 00000007 695.40 194.34 544.68 773.63 852.30 469.75 1093.22 491.82 955.48 625.46 848.27 754.36 1029.98 775.07
00002185 00000008 684.12 184.04 546.58 784.79 833.88 472.21 1082.20 494.05 941.64 628.78 833.25 756.37 1022.83 776.33
00002186 DELETE   674.38 183.28 546.81 786.82 819.03 474.13 1070.57 490.54 925.68 626.11 820.83 756.99 1012.73 772.35
00002187 00000010 670.32 180.14 541.72 785.53 805.51 474.69 1054.33 482.68 910.08 622.08 814.87 759.53 1002.02 768.18
00002188 00000011 664.54 190.09 534.99 777.37 798.96 476.13 1033.57 481.48 904.04 619.58 812.33 758.61 996.43 764.70
00002189 00000012 660.69 193.31 534.78 770.19 793.94 476.83 1030.54 479.06 900.90 618.54 811.43 760.28 993.96 763.98
00002190 00000013 657.20 195.16 535.70 767.12 791.87 476.86 1027.86 478.99 897.37 618.07 809.34 760.47 991.04 764.02
00002191 00000014 655.12 194.46 535.21 766.14 789.46 477.59 1026.19 479.20 895.17 619.45 807.34 760.10 989.52 763.12
00002192 00000015 653.88 193.20 534.67 764.71 787.47 478.16 1025.74 478.99 894.71 620.31 806.60 760.53 990.18 762.83
00002193 00000016 652.44 196.67 533.58 762.41 786.28 478.72 1025.49 481.40 893.99 622.57 803.14 760.66 989.53 764.53
00002194 00000017 651.81 197.82 533.01 764.62 785.95 481.94 1024.46 484.47 893.51 625.39 802.92 763.69 989.27 767.41
00002195 00000018 650.88 200.62 534.20 767.42 787.65 483.27 1025.85 488.51 895.88 629.22 804.00 766.44 988.70 772.49
00002196 00000019 650.81 195.52 533.97 780.10 793.02 484.97 1030.71 489.58 904.29 632.41 807.38 769.76 993.86 775.25
00002197 00000020 652.12 205.94 534.10 777.56 797.40 487.24 1035.72 493.06 910.91 634.35 812.48 774.02 999.35 780.06
00002198 00000021 649.90 198.05 540.02 788.75 800.34 489.55 1040.29 492.53 917.71 635.12 818.44 777.32 1004.47 780.90
00002199 00000022 650.83 198.37 542.04 791.66 803.91 490.66 1043.41 493.22 922.59 637.98 822.11 780.11 1007.09 783.32
00002200 00000023 653.11 200.97 543.86 792.62 807.56 492.73 1048.67 495.88 927.94 640.97 825.65 782.68 1012.95 786.24
00002201 00000024 652.99 194.89 548.09 801.90 811.82 497.72 1054.10 499.17 935.30 646.49 829.59 785.91 1020.58 787.89
00002202 00000025 654.64 196.17 549.60 802.46 814.82 500.78 1058.98 501.73 941.02 650.58 834.41 788.66 1027.30 789.98
00002203 00000026 657.58 201.81 548.67 797.40 817.22 503.50 1060.38 503.82 944.36 652.94 838.18 791.34 1031.18 791.96
00002204 00000027 660.10 200.36 548.46 798.24 820.64 505.16 1062.54 506.02 947.31 654.36 842.13 792.11 1032.93 793.18
00002205 00000028 663.57 200.46 548.70 797.77 825.96 505.13 1065.99 506.38 951.51 654.88 848.19 792.75 1035.22 794.33
00002206 00000029 666.70 201.89 548.04 797.71 829.06 505.36 1065.85 509.78 950.10 655.48 848.98 793.63 1031.10 797.73
00002207 DELETE   669.32 204.59 542.46 789.08 827.08 513.57 1058.82 524.19 940.73 653.57 840.27 789.24 1017.74 798.27
00002208 DELETE   665.22 201.50 542.13 773.16 820.86 492.94 1058.41 509.08 933.07 637.75 831.22 781.17 1006.48 794.17
00002209 00000032 671.98 195.91 535.85 788.45 821.12 486.56 1053.66 502.64 928.18 629.36 823.27 773.68 994.17 788.59
00002210 00000033 672.33 190.68 539.97 787.83 822.06 477.83 1058.38 497.62 928.67 625.48 822.59 766.83 994.87 785.11
00002211 00000034 671.93 189.04 545.50 774.86 824.84 470.56 1064.59 498.25 933.17 624.36 826.85 764.09 1003.71 786.85
00002212 00000035 675.69 183.09 541.60 801.71 832.00 478.70 1068.90 498.97 942.94 629.43 828.84 767.97 1014.13 785.69
00002213 00000036 677.23 193.46 543.49 792.33 838.40 480.22 1073.06 498.39 953.51 631.72 839.09 771.42 1024.13 786.91
00002214 00000037 674.58 213.48 546.82 765.83 837.71 482.41 1082.58 495.43 955.28 638.79 847.48 774.89 1031.13 787.01
00002215 00000038 684.61 202.94 542.10 780.65 844.93 484.31 1082.71 502.31 963.03 634.03 849.32 774.34 1034.28 789.86
00002216 00000039 684.72 204.00 541.58 776.30 844.02 484.96 1081.98 501.91 962.39 635.87 849.13 773.97 1035.02 788.56
00002217 00000040 684.55 199.07 539.26 781.90 841.01 486.96 1077.17 502.10 957.38 635.88 847.25 776.42 1029.01 789.93
00002218 00000041 682.25 204.20 539.50 781.74 834.12 487.83 1074.04 503.48 950.83 637.92 842.41 780.17 1027.19 794.06
00002219 00000042 679.93 207.86 540.13 781.87 828.05 490.28 1068.99 505.27 943.14 642.23 837.19 783.24 1021.25 796.70
00002220 00000043 679.60 201.36 539.24 788.91 825.81 490.00 1066.16 502.97 940.12 639.91 837.57 783.70 1019.16 795.53
00002221 00000044 679.57 200.72 538.06 790.93 825.10 487.52 1065.27 499.13 940.87 636.06 838.94 782.15 1019.44 792.91
00002222 00000045 679.51 204.06 537.09 787.07 824.54 485.52 1063.49 496.62 940.75 634.34 840.28 779.89 1021.71 790.17
00002223 00000046 679.33 206.37 537.52 782.68 824.98 485.54 1063.68 496.67 941.08 634.90 840.76 779.29 1022.94 789.50
00002224 00000047 679.46 202.71 537.54 786.79 825.56 486.02 1064.99 497.27 942.38 636.05 840.25 779.64 1022.98 789.90
00002225 00000048 679.41 203.47 538.21 783.20 824.73 487.03 1066.14 497.86 942.65 636.74 839.77 779.92 1022.76 789.94
00002226 00000049 678.29 202.08 538.33 778.58 821.78 488.63 1068.73 499.88 942.92 641.12 834.67 777.86 1026.71 788.21
00002227 00000050 676.99 197.27 538.57 778.65 820.63 489.12 1068.48 498.60 942.86 640.90 833.56 776.22 1027.90 784.98
00002228 00000051 675.66 202.55 537.82 771.85 818.84 488.56 1066.18 498.39 940.80 640.60 831.97 775.37 1025.46 784.40
00002229 00000052 673.57 205.24 537.66 768.30 816.88 487.77 1063.81 497.51 938.40 639.15 829.63 774.38 1022.30 783.46
00002230 00000053 671.29 204.78 538.06 768.36 814.45 488.74 1061.83 496.84 936.18 640.13 827.97 774.53 1021.08 782.39
00002231 00000054 668.36 200.22 539.95 774.73 813.63 488.63 1060.98 496.18 934.88 639.21 826.89 773.95 1019.46 781.34
00002232 00000055 666.50 198.23 542.07 781.33 813.47 489.07 1060.01 496.00 934.43 639.17 826.47 774.63 1019.17 781.49
00002233 00000056 664.42 193.65 545.03 798.80 814.43 489.83 1058.72 497.36 933.30 639.18 824.82 776.98 1020.17 784.11
00002234 00000057 664.80 197.88 544.73 801.80 814.55 488.36 1059.72 497.80 933.31 641.45 818.83 774.79 1027.98 782.98
00002235 00000058 664.38 195.85 547.32 803.85 816.15 488.83 1061.53 499.47 934.43 642.28 817.64 772.68 1031.29 781.62
00002236 00000059 667.19 190.12 547.52 801.98 820.38 492.04 1065.35 505.76 937.99 647.49 818.11 769.87 1034.16 781.31
00002237 00000060 671.40 194.22 553.05 790.90 826.97 497.83 1072.07 514.70 944.02 658.21 825.40 769.71 1040.15 783.33
00002238 00000061 671.87 216.23 555.53 768.38 834.83 500.59 1084.66 520.37 950.06 668.58 829.44 772.02 1042.50 789.54
00002239 00000062 674.75 229.86 557.51 766.54 840.34 508.83 1091.84 530.23 956.35 676.04 834.23 780.45 1048.21 799.20
00002240 00000063 676.42 236.77 560.88 768.40 841.78 510.27 1093.60 530.08 958.75 676.89 833.93 782.17 1054.05 799.32
00002241 00000064 677.54 227.35 558.23 787.61 839.34 509.39 1087.83 528.20 953.75 673.92 830.40 782.50 1055.24 798.66
00002242 00000065 677.53 224.35 557.89 793.50 840.33 512.78 1083.60 533.97 949.49 669.54 828.79 781.80 1050.49 800.04
00002243 00000066 681.41 224.89 554.35 786.89 839.77 513.37 1084.74 539.04 945.47 670.71 827.96 782.13 1047.79 804.29
00002244 00000067 684.22 230.37 552.92 768.04 842.03 516.64 1087.65 546.94 945.09 676.64 828.43 780.16 1043.01 806.26
00002245 00000068 691.21 235.65 550.01 757.38 846.14 518.93 1091.07 549.06 949.27 680.62 835.61 784.32 1042.00 810.52
00002246 00000069 696.27 228.90 551.67 764.95 855.52 519.41 1097.01 548.26 957.92 675.84 845.09 785.48 1044.15 810.64
00002247 00000070 699.19 216.82 553.14 776.68 861.30 520.14 1103.52 549.35 964.00 673.98 849.96 786.08 1048.05 811.56
00002248 00000071 700.47 222.80 552.00 770.62 864.27 519.27 1105.08 550.02 966.35 673.49 850.47 785.99 1046.11 813.00
00002249 00000072 698.17 221.79 553.21 770.23 864.12 517.44 1105.86 550.38 966.31 673.14 847.83 785.27 1043.40 814.20
00002250 00000073 694.34 219.63 554.57 768.18 862.20 514.63 1102.51 548.68 962.85 671.19 846.24 781.27 1037.32 811.15
00002251 00000074 686.47 214.41 555.98 761.91 854.10 510.45 1096.88 540.38 957.80 662.84 842.94 775.39 1034.64 801.85
00002252 00000075 682.22 209.87 560.83 758.67 847.42 506.04 1091.96 537.07 952.47 655.96 840.99 773.17 1027.86 798.88
00002253 00000076 679.85 207.60 553.33 754.61 839.92 504.76 1082.03 531.14 946.75 649.70 838.28 768.34 1027.42 790.33
00002254 00000077 675.28 199.59 548.33 765.31 837.64 500.63 1081.88 520.21 950.23 643.46 833.00 765.65 1028.22 782.90
00002255 00000078 673.65 193.52 546.50 761.22 830.44 497.05 1069.08 513.33 943.05 636.07 836.28 762.80 1025.91 775.79
00002256 00000079 667.40 195.79 545.47 778.51 828.43 499.25 1066.09 511.59 944.48 634.66 826.90 765.16 1027.83 775.44
00002257 00000080 668.28 199.41 547.01 778.95 827.71 501.30 1066.77 515.74 942.39 639.15 825.03 768.80 1025.70 780.94
00002258 00000081 669.88 196.46 549.23 783.89 829.35 507.54 1068.07 523.31 943.40 645.13 827.19 773.67 1026.55 786.77
00002259 00000082 672.62 197.21 554.49 779.69 831.86 513.44 1071.61 533.28 942.08 653.62 829.08 777.71 1023.45 794.12
00002260 00000083 672.77 205.73 558.31 764.70 832.09 516.30 1076.22 538.75 937.67 660.44 834.58 783.22 1018.17 801.98
00002261 00000084 673.59 202.37 559.56 772.74 831.05 519.05 1075.33 540.77 935.16 661.22 833.91 786.37 1017.38 804.49
00002262 00000085 673.46 207.35 559.94 771.09 832.11 519.38 1075.28 543.73 934.59 664.15 832.22 787.39 1015.30 807.87
00002263 00000086 670.09 194.46 560.48 810.22 832.48 518.54 1068.54 545.92 935.84 660.16 825.84 793.18 1010.03 816.09
00002264 00000087 665.77 195.46 557.53 806.60 826.69 519.46 1064.04 543.90 932.39 658.54 820.81 789.69 1010.49 809.94
00002265 00000088 659.09 200.87 554.67 801.21 819.16 519.87 1057.62 542.47 925.65 660.56 811.11 786.95 1009.52 805.76
00002266 00000089 653.72 210.12 556.70 765.02 807.52 517.53 1053.33 536.24 917.31 661.09 812.57 785.61 1003.15 801.27
00002267 00000090 654.28 204.80 550.96 797.82 810.57 519.11 1048.74 537.12 917.49 662.59 808.80 790.69 1002.10 806.01
00002268 00000091 653.18 204.11 550.96 808.56 808.96 519.44 1045.79 536.01 915.54 661.36 808.48 795.72 999.96 809.90
00002269 00000092 651.94 214.23 548.74 786.62 807.13 519.74 1043.50 529.49 916.22 661.91 811.31 797.44 1001.46 806.94
00002270 00000093 652.26 214.44 552.19 792.48 807.71 519.52 1047.66 530.49 917.95 662.54 812.26 803.80 998.59 814.61
00002271 00000094 653.72 219.02 551.26 790.88 811.53 520.18 1050.82 532.90 921.56 664.08 813.34 805.83 998.22 818.27
00002272 00000095 653.38 220.25 553.94 787.20 816.22 522.38 1053.07 538.46 924.94 665.18 813.55 800.69 1000.20 815.57
00002273 00000096 656.00 210.92 558.89 809.12 818.68 522.93 1058.74 547.25 928.28 664.58 811.29 801.04 1006.83 821.20
00002274 00000097 659.90 205.02 560.83 817.63 823.09 525.64 1064.03 554.91 930.78 670.94 810.59 800.63 1009.86 824.78
00002275 00000098 659.81 208.08 563.84 812.25 824.46 528.61 1068.04 558.72 932.98 674.40 810.96 801.50 1011.90 826.31
00002276 00000099 661.88 210.91 563.16 809.29 826.31 530.59 1068.50 562.08 932.95 677.38 811.36 801.60 1012.38 827.57
00002277 00000100 663.57 211.00 561.06 808.94 828.86 533.68 1068.02 563.82 934.49 679.59 815.44 803.13 1013.14 828.03
00002278 00000101 665.68 218.05 558.76 801.51 830.18 535.83 1068.33 566.26 934.74 682.92 817.32 804.55 1013.78 829.74
00002279 00000102 668.02 224.11 556.69 790.43 829.12 537.54 1069.14 568.16 934.04 686.97 817.60 807.08 1012.47 832.47
00002280 00000103 670.13 226.02 555.40 782.66 828.75 538.96 1070.34 570.85 933.23 691.11 817.43 808.34 1011.16 835.01
00002281 00000104 672.53 234.03 555.56 773.37 831.12 537.16 1071.54 570.84 934.03 689.20 820.75 810.11 1008.80 838.28
00002282 00000105 671.36 246.81 552.94 752.64 841.78 534.88 1086.44 564.66 950.32 690.23 828.08 802.38 1014.07 828.85
00002283 00000106 676.37 232.66 553.10 766.72 850.46 533.66 1091.44 562.83 959.29 687.88 836.68 802.41 1020.19 828.45
00002284 00000107 678.85 226.37 556.69 770.96 853.82 528.72 1093.96 557.78 960.97 681.42 839.84 797.38 1025.38 823.41
00002285 00000108 679.07 219.62 558.82 777.92 854.71 524.33 1095.88 552.89 962.09 675.38 841.02 796.08 1027.59 821.84
00002286 00000109 682.07 220.66 558.59 772.54 855.82 520.09 1095.58 549.37 960.70 669.18 842.31 791.06 1028.42 817.37
00002287 00000110 687.27 218.93 560.12 769.61 860.82 515.72 1098.70 545.07 962.13 661.87 847.68 784.57 1031.89 810.78
00002288 00000111 693.25 197.04 569.24 782.04 861.89 511.00 1107.01 548.23 964.37 653.62 848.03 775.35 1038.88 805.63
00002289 DELETE   699.84 197.53 566.71 789.55 867.42 500.73 1114.75 539.61 973.90 649.80 851.28 773.26 1049.10 804.89
00002290 00000113 709.23 193.49 562.80 800.51 885.69 498.89 1122.66 542.13 989.40 646.20 862.48 770.34 1054.17 805.41
00002291 DELETE   718.53 204.03 557.60 795.25 901.15 501.57 1135.85 547.67 1006.02 650.60 860.81 765.11 1067.87 803.78
00002292 DELETE   721.82 204.97 560.82 787.60 903.75 497.08 1143.41 544.57 1011.17 653.69 862.60 765.55 1069.61 805.63
00002293 00000116 720.84 203.14 564.22 790.30 907.16 491.57 1147.10 538.22 1018.33 651.95 868.64 768.12 1069.10 807.66
00002294 00000117 715.60 213.68 566.98 772.89 901.00 483.60 1144.13 529.37 1010.55 656.86 869.86 768.17 1061.36 808.11
00002295 00000118 711.47 215.43 566.16 767.42 897.57 483.40 1141.30 530.11 1007.09 660.14 869.82 769.43 1056.38 810.12
00002296 00000119 704.39 207.73 567.77 778.96 886.09 488.60 1133.91 540.66 1000.22 660.46 862.07 778.93 1051.14 821.34
00002297 00000120 696.77 221.54 563.53 777.98 880.41 494.31 1126.24 537.85 991.65 665.96 853.17 784.98 1040.75 823.31
00002298 00000121 692.03 212.67 561.65 802.60 870.98 500.05 1120.42 545.40 985.14 668.52 840.82 785.37 1041.88 824.34
00002299 00000122 683.94 212.38 558.44 804.48 861.93 501.65 1112.07 545.20 977.97 670.69 829.06 780.92 1040.20 818.36
00002300 00000123 671.76 213.04 564.17 798.04 852.10 502.32 1091.90 540.89 962.82 665.04 822.59 776.72 1034.32 808.17
00002301 00000124 658.03 219.10 562.09 799.74 835.65 505.87 1077.69 541.01 956.31 673.54 812.27 770.65 1032.40 800.61
00002302 00000125 654.03 219.20 559.04 801.79 825.82 502.49 1070.25 538.14 944.71 670.38 799.99 768.74 1023.69 799.33
00002303 00000126 647.54 213.59 559.73 795.62 817.06 493.96 1067.91 530.82 938.69 662.06 800.16 768.31 1013.87 799.94
00002304 00000127 654.14 210.26 550.06 785.64 817.79 492.13 1063.26 523.05 933.00 657.92 801.53 774.86 1005.78 801.52
00002305 00000128 648.51 210.65 545.53 787.36 804.61 492.18 1053.47 517.49 921.69 654.42 795.39 777.50 999.86 799.71
00002306 00000129 642.35 211.24 545.29 791.55 795.59 492.91 1044.60 516.23 911.36 652.76 789.75 778.21 994.55 798.70
00002307 00000130 633.06 213.81 541.70 776.48 783.72 491.39 1029.28 508.35 897.29 649.36 784.92 771.90 994.39 786.69
00002308 00000131 627.53 199.47 539.38 787.94 778.99 489.56 1021.82 503.97 891.31 642.91 782.18 768.82 986.41 781.40
00002309 00000132 622.18 209.18 540.87 774.09 772.55 486.98 1014.35 500.00 882.52 640.52 779.16 768.04 975.53 779.87
00002310 00000133 617.95 209.96 543.28 767.67 766.20 484.59 1009.50 496.64 875.53 637.43 772.83 765.86 969.32 777.07
00002311 00000134 617.22 208.80 544.52 767.71 765.62 483.27 1009.24 496.52 873.65 635.86 770.51 764.69 967.08 777.07
00002312 00000135 617.44 213.03 545.41 765.64 765.63 484.58 1010.38 498.71 874.40 639.85 771.69 766.53 968.68 779.45
00002313 00000136 618.35 209.21 547.56 775.37 769.76 489.50 1014.20 503.62 880.48 645.60 777.40 771.97 973.68 784.92
00002314 00000137 618.41 213.58 548.12 772.62 772.99 490.24 1018.05 504.95 885.51 647.03 779.54 770.54 977.87 783.82
00002315 00000138 619.06 209.39 548.81 778.54 775.91 489.31 1020.69 501.31 891.88 643.85 783.60 770.69 984.00 781.37
00002316 00000139 621.19 203.53 546.69 789.51 778.01 487.16 1023.22 496.22 897.79 639.96 785.15 772.88 992.81 780.81
00002317 00000140 628.78 208.36 537.47 791.01 774.32 484.01 1025.57 495.84 902.70 636.63 789.63 768.09 998.78 776.43
00002318 00000141 632.06 204.81 535.53 795.92 776.91 481.52 1026.25 494.37 903.58 632.93 790.82 767.21 998.54 776.30
00002319 00000142 629.21 195.81 543.87 804.72 783.34 475.92 1025.75 478.98 904.32 630.72 793.99 770.04 1001.95 772.79
00002320 00000143 632.59 187.64 539.99 796.57 783.91 473.76 1028.72 475.54 904.86 626.54 798.67 764.16 1002.52 765.95
00002321 00000144 635.12 183.93 543.18 789.12 786.24 474.40 1030.03 474.84 907.42 616.02 802.02 759.87 1001.67 761.11
00002322 00000145 637.43 191.92 537.28 778.50 784.92 473.59 1031.81 476.04 904.57 626.03 801.68 759.78 1002.43 762.20
00002323 00000146 638.28 195.91 536.89 774.59 785.45 476.14 1031.86 478.95 904.93 629.74 800.75 760.79 1001.75 763.66
00002324 00000147 639.56 194.06 535.76 776.46 786.19 476.01 1031.36 479.74 904.79 630.35 799.56 759.98 1001.72 763.60
00002325 00000148 640.67 196.51 535.13 776.02 786.79 476.02 1031.62 481.08 903.73 630.73 798.26 759.83 1000.23 764.71
00002326 00000149 642.52 195.95 535.82 776.03 786.13 477.30 1030.35 484.14 899.74 631.33 795.58 760.65 995.30 767.39
00002327 00000150 642.64 193.25 536.87 776.14 787.19 481.42 1029.35 488.87 900.37 627.07 795.52 763.33 990.75 771.05
00002328 00000151 642.69 197.80 537.22 775.41 785.09 478.68 1029.70 489.65 893.37 631.44 790.24 762.21 987.27 772.88
00002329 00000152 641.88 198.32 540.55 778.36 784.11 478.07 1028.62 491.63 889.42 631.86 787.78 763.28 983.21 776.27
00002330 00000153 641.48 201.88 540.58 781.93 782.02 477.97 1024.01 495.63 882.27 633.15 781.33 762.82 977.18 779.36
00002331 00000154 639.65 211.87 541.25 776.49 777.59 477.37 1017.39 495.48 874.29 631.31 776.22 764.15 971.18 781.11
00002332 00000155 636.84 211.94 545.21 782.60 774.74 477.86 1012.90 496.98 868.90 632.82 772.02 766.56 969.10 784.15
00002333 00000156 637.17 211.68 545.09 783.97 773.61 480.24 1013.73 500.78 869.13 638.45 771.06 767.55 973.39 785.98
00002334 00000157 638.87 212.88 543.18 778.41 776.38 482.59 1018.82 503.96 873.90 641.03 773.76 766.26 973.81 785.64
00002335 00000158 642.41 218.20 539.41 765.31 780.28 487.37 1026.82 507.01 883.24 646.36 781.14 768.50 981.96 786.24
00002336 00000159 648.18 208.24 542.36 784.29 790.87 494.14 1039.14 510.50 903.27 650.22 794.80 780.32 993.91 795.03
00002337 00000160 650.31 207.75 545.38 786.41 796.60 496.64 1045.50 511.60 912.24 653.19 803.24 782.35 1002.98 795.54
00002338 00000161 653.31 208.33 547.52 789.28 803.48 498.91 1051.19 514.52 920.77 658.22 809.41 786.12 1008.64 799.76
00002339 00000162 652.87 207.17 549.84 800.59 808.71 499.16 1055.18 516.94 927.05 660.40 811.81 789.43 1011.50 804.80
00002340 00000163 650.84 206.57 553.10 806.13 809.65 508.23 1056.96 528.45 928.00 664.48 806.61 791.89 1015.03 808.81
00002341 00000164 651.64 212.39 552.75 801.72 813.23 517.94 1057.68 539.44 930.00 664.93 806.52 794.83 1013.59 812.48
00002342 00000165 651.81 219.89 553.30 794.17 815.89 523.27 1060.31 544.95 934.19 670.29 808.62 796.48 1016.37 814.07
00002343 00000166 652.59 225.41 552.78 786.78 819.91 526.96 1063.90 547.15 939.54 673.44 815.11 799.29 1018.41 815.78
00002344 00000167 655.19 232.81 550.52 778.57 823.84 529.43 1066.74 547.16 945.47 675.68 821.78 802.03 1022.45 816.56
