Video ID: 	6ZzOcAexKnI
H: 	1080
W: 	1920
FPS: 	25.0

FRAME INDEX X0 Y0 W H [Landmarks (5 Points)]

00013863 00000000 997.97 152.16 405.32 517.50 1093.56 320.03 1273.23 316.56 1161.08 394.13 1103.55 526.41 1241.64 524.07
00013864 DELETE   990.04 139.24 410.17 537.00 1083.39 318.46 1264.25 315.86 1146.77 390.01 1094.22 527.17 1231.99 525.86
00013865 00000002 984.71 136.89 409.12 545.23 1069.98 319.30 1250.60 315.51 1128.74 390.29 1081.66 529.91 1222.58 527.60
00013866 00000003 981.49 142.81 403.92 539.61 1061.99 321.09 1240.99 315.44 1119.29 394.68 1073.36 532.78 1213.07 528.81
00013867 00000004 980.59 145.93 401.22 534.59 1055.43 322.73 1233.82 313.57 1110.68 396.36 1068.08 535.47 1206.95 528.48
00013868 DELETE   977.03 142.83 400.96 535.91 1050.79 321.72 1228.99 310.89 1107.01 398.20 1065.76 534.15 1203.78 525.54
00013869 00000006 971.55 149.37 401.05 527.86 1043.27 321.84 1223.73 307.64 1103.63 398.97 1062.79 536.07 1200.88 524.17
00013870 00000007 966.88 150.24 406.75 524.80 1033.69 322.82 1219.51 315.57 1093.15 399.17 1057.66 535.60 1197.93 529.54
00013871 00000008 959.69 146.93 410.79 529.15 1025.10 325.07 1211.99 314.25 1085.33 398.46 1050.51 536.34 1192.76 527.67
00013872 00000009 949.76 141.15 410.52 531.66 1020.98 331.61 1205.08 309.27 1075.74 402.05 1042.05 534.41 1184.81 516.73
00013873 00000010 944.80 142.85 414.52 533.42 1015.15 332.12 1196.99 309.01 1067.06 403.75 1037.75 535.57 1178.19 517.25
00013874 00000011 938.35 156.24 414.32 522.12 1010.82 332.96 1192.10 313.15 1064.64 406.90 1034.44 538.97 1172.14 523.43
00013875 00000012 932.36 157.63 415.86 519.88 1006.57 337.56 1187.15 316.91 1060.64 407.44 1029.49 539.40 1169.95 523.12
00013876 00000013 928.04 160.48 417.37 517.28 1002.76 340.82 1183.31 321.10 1057.46 409.67 1025.68 541.60 1167.05 525.95
00013877 00000014 924.04 164.15 417.12 514.96 999.86 342.75 1181.20 323.86 1057.45 412.52 1023.73 543.87 1166.88 528.78
00013878 00000015 921.36 164.28 417.13 516.24 998.97 343.63 1180.73 326.11 1057.62 414.76 1023.05 545.92 1166.88 531.81
00013879 00000016 919.47 158.75 417.37 525.54 998.53 344.36 1181.14 328.15 1058.00 416.93 1022.45 547.55 1167.23 534.41
00013880 00000017 919.85 156.91 414.98 530.66 998.24 344.50 1181.75 328.61 1060.52 418.69 1024.17 550.73 1166.88 538.01
00013881 00000018 917.77 163.81 414.92 529.57 995.67 346.93 1180.09 329.81 1059.52 419.96 1023.16 554.97 1165.58 541.18
00013882 00000019 913.74 164.57 416.02 536.63 990.63 348.39 1174.78 330.38 1055.40 421.58 1020.55 557.21 1162.06 542.62
00013883 00000020 911.38 166.89 413.77 534.09 987.85 353.74 1170.90 333.55 1051.55 423.17 1017.00 560.29 1157.71 544.00
00013884 00000021 910.22 158.01 411.72 542.18 982.97 355.64 1166.82 335.16 1045.04 424.96 1009.14 560.55 1152.12 544.18
00013885 00000022 908.64 165.62 411.33 534.85 980.25 357.78 1162.71 336.68 1041.30 425.67 1005.46 560.40 1147.49 543.34
00013886 00000023 908.14 163.68 410.08 536.23 977.58 358.75 1161.04 336.84 1038.51 427.00 1002.11 561.81 1144.32 543.97
00013887 00000024 907.26 164.50 410.01 536.70 977.39 359.44 1161.29 338.87 1040.74 428.59 1002.78 561.90 1144.33 545.26
00013888 00000025 908.45 167.62 409.32 535.91 978.73 360.77 1163.03 341.93 1042.25 432.37 1004.98 564.20 1146.23 549.00
00013889 00000026 908.71 168.27 409.07 536.60 981.14 361.61 1168.00 343.27 1047.75 432.81 1008.57 565.74 1152.12 551.22
00013890 00000027 909.67 167.05 408.44 537.46 983.42 363.19 1170.27 345.28 1051.11 434.30 1011.38 567.61 1155.37 553.50
00013891 00000028 911.23 173.36 406.91 531.36 985.50 364.57 1173.92 348.02 1053.72 437.55 1013.02 570.00 1158.79 556.96
00013892 00000029 911.09 174.03 407.03 531.68 985.22 364.47 1172.55 348.65 1052.98 438.44 1011.79 569.63 1157.26 557.26
00013893 00000030 908.37 177.97 407.84 528.46 978.73 360.78 1163.91 347.34 1040.25 441.37 1002.17 568.96 1147.99 558.03
00013894 00000031 907.25 183.70 404.22 522.39 972.95 357.91 1153.53 344.49 1029.37 441.00 993.62 569.69 1137.62 558.28
00013895 00000032 906.41 185.60 403.36 520.01 968.60 356.97 1147.31 345.27 1018.58 441.10 985.40 569.87 1129.59 559.31
00013896 00000033 906.98 184.23 408.10 525.01 966.66 357.61 1145.53 347.62 1012.58 444.25 981.13 571.40 1123.36 562.66
00013897 00000034 910.47 186.33 405.04 527.85 967.84 357.15 1145.54 348.89 1012.44 447.34 982.61 573.44 1123.27 566.26
00013898 00000035 915.70 193.51 398.73 525.12 970.40 355.56 1146.61 351.25 1011.59 450.29 983.08 575.95 1120.38 572.18
00013899 00000036 916.15 190.58 401.72 530.20 973.46 364.57 1145.26 365.85 1001.40 453.70 978.70 576.88 1109.94 578.40
00013900 00000037 920.53 191.26 399.68 527.26 976.61 362.84 1149.49 367.20 1003.06 454.71 979.84 576.91 1111.33 580.94
00013901 00000038 924.47 191.47 399.04 526.43 978.82 361.83 1151.21 368.71 1003.52 455.40 979.90 577.18 1110.34 583.35
00013902 00000039 927.70 193.44 395.53 522.24 980.87 359.34 1149.93 369.91 1002.81 453.53 976.83 573.64 1104.76 582.84
00013903 00000040 933.33 197.08 386.70 514.22 981.53 348.39 1148.28 358.74 1006.29 450.86 977.12 571.95 1106.57 580.21
00013904 00000041 933.58 193.50 388.38 513.53 980.94 343.91 1145.67 361.02 999.96 448.20 968.10 564.93 1094.52 578.76
00013905 00000042 935.12 189.23 388.66 515.36 982.93 341.49 1147.23 361.04 998.69 445.48 964.13 562.57 1088.12 578.36
00013906 00000043 937.51 199.91 388.57 502.55 986.73 339.99 1148.18 360.00 999.84 440.04 967.46 560.80 1088.27 576.58
00013907 00000044 937.91 184.57 394.62 524.37 992.13 337.71 1153.06 354.18 1006.25 432.86 976.42 558.52 1098.16 572.37
00013908 00000045 940.62 191.48 398.92 518.26 995.90 334.15 1159.41 347.50 1012.45 426.90 981.54 556.85 1106.30 568.28
00013909 00000046 942.33 186.60 401.08 522.20 999.54 332.52 1163.34 346.21 1014.45 423.12 981.30 552.38 1109.45 564.41
00013910 00000047 944.20 176.61 402.00 534.26 1003.83 332.16 1166.25 346.51 1015.93 419.03 983.27 548.90 1110.04 561.88
00013911 00000048 947.57 172.53 402.08 541.16 1006.56 329.84 1169.09 344.04 1016.57 413.63 983.47 547.99 1110.32 561.06
00013912 00000049 949.75 171.70 401.93 541.47 1007.23 329.01 1168.99 341.30 1016.95 409.58 983.61 548.15 1107.31 559.75
00013913 00000050 951.99 169.40 402.39 534.41 1008.28 329.28 1165.04 344.23 1013.62 411.71 981.43 543.73 1094.63 556.81
00013914 00000051 952.47 163.59 399.38 526.56 1008.12 328.00 1161.56 352.04 1011.06 413.84 973.76 538.51 1082.24 557.29
00013915 00000052 949.47 172.14 399.56 516.21 1008.21 327.83 1162.07 357.26 1011.39 419.12 969.17 538.08 1079.98 560.94
00013916 00000053 947.71 171.57 402.60 515.25 1007.11 329.27 1165.66 360.07 1012.09 422.86 967.65 540.42 1084.47 564.44
00013917 00000054 946.46 175.32 404.98 513.36 1007.81 330.89 1171.71 362.22 1016.55 428.68 971.27 542.69 1092.37 567.50
00013918 00000055 947.63 180.74 406.27 511.76 1009.13 335.53 1172.14 365.49 1016.68 434.37 976.51 546.15 1098.84 570.31
00013919 00000056 947.46 183.05 404.39 510.52 1008.58 338.83 1171.60 368.51 1016.30 437.67 976.23 549.94 1100.23 573.85
00013920 00000057 947.10 187.81 404.94 507.36 1009.10 339.62 1171.52 369.67 1016.16 438.33 974.00 552.17 1097.54 576.21
00013921 00000058 948.47 189.38 405.36 505.07 1010.31 340.01 1172.87 370.20 1016.07 438.60 974.91 552.50 1098.84 576.68
00013922 00000059 950.50 190.10 403.92 511.95 1012.44 339.01 1173.54 365.57 1016.62 435.45 977.80 555.40 1098.46 577.16
00013923 00000060 951.56 188.51 402.48 516.57 1012.11 340.96 1171.86 366.64 1014.88 435.85 977.62 558.29 1096.13 579.35
00013924 00000061 951.26 191.80 402.54 515.83 1011.54 341.75 1167.84 369.64 1010.15 438.21 976.53 559.04 1090.85 581.53
00013925 00000062 949.06 196.89 398.65 515.80 1008.81 342.74 1161.25 373.84 1005.95 444.87 973.83 563.71 1083.37 588.29
00013926 00000063 952.66 210.09 389.07 519.31 1008.31 347.97 1157.50 388.83 1010.17 457.56 978.62 570.81 1080.48 604.36
00013927 00000064 955.00 217.69 386.69 524.79 1003.28 362.07 1151.24 392.27 1001.30 477.29 978.27 588.34 1080.84 611.81
00013928 00000065 952.51 229.53 382.56 524.64 998.72 375.49 1150.31 408.68 1003.47 492.90 970.08 602.60 1075.78 629.11
00013929 00000066 944.40 234.02 387.79 523.80 992.89 384.20 1149.50 415.75 1000.51 502.76 966.25 611.84 1079.24 637.01
00013930 00000067 942.73 234.63 387.81 524.79 990.13 387.29 1148.68 420.24 998.24 508.28 963.06 614.62 1081.05 640.86
00013931 00000068 939.98 236.01 387.59 525.83 987.49 387.65 1146.42 421.79 997.77 511.83 961.12 615.36 1083.43 642.48
00013932 00000069 937.71 242.23 388.09 522.20 987.31 389.90 1146.69 423.32 1000.11 514.22 964.80 617.19 1089.54 643.79
00013933 00000070 937.37 246.62 385.49 523.75 985.63 391.57 1143.66 424.43 998.86 518.31 965.11 620.25 1091.19 646.55
00013934 00000071 936.51 257.04 384.84 515.72 983.52 392.15 1141.76 426.14 997.84 521.54 965.05 624.00 1090.68 651.08
00013935 00000072 936.97 257.32 382.54 517.75 984.88 396.09 1144.39 428.81 999.94 526.81 967.34 628.31 1092.21 654.63
00013936 00000073 936.57 258.24 382.48 520.15 985.89 398.86 1145.69 432.62 1001.41 531.19 968.60 631.13 1093.58 658.14
00013937 00000074 937.66 261.82 382.78 516.08 987.39 399.72 1147.17 434.37 1003.00 532.61 969.44 631.79 1093.55 659.40
00013938 00000075 938.94 254.15 385.18 521.56 990.31 398.51 1149.66 432.08 1004.96 528.54 969.60 629.02 1093.87 656.09
00013939 00000076 940.56 249.63 389.67 518.01 991.06 393.21 1151.57 426.94 1005.48 521.50 967.87 622.15 1091.89 649.23
00013940 00000077 945.99 236.31 389.52 522.41 992.71 387.59 1157.04 420.53 1008.10 514.18 970.45 615.66 1095.40 641.97
00013941 00000078 948.50 227.78 393.60 523.60 996.86 383.22 1165.76 417.93 1012.97 508.04 971.76 607.45 1100.79 635.30
00013942 00000079 947.91 222.43 394.97 521.33 998.77 383.45 1167.91 414.64 1016.34 505.13 976.68 602.50 1104.05 627.45
00013943 00000080 952.31 220.82 394.48 520.84 1002.42 382.10 1170.96 411.40 1020.00 502.10 982.35 598.03 1111.73 621.79
00013944 00000081 956.79 221.60 397.80 514.60 1006.67 375.40 1176.57 405.94 1025.11 499.06 986.54 592.43 1113.97 617.23
00013945 00000082 958.97 221.47 398.45 510.53 1009.70 371.41 1179.26 403.15 1027.68 495.92 988.97 588.53 1116.93 614.25
00013946 00000083 961.03 219.41 398.78 511.19 1011.08 369.16 1181.54 401.12 1029.15 494.87 991.05 586.74 1119.26 612.74
00013947 00000084 960.98 220.52 400.38 510.75 1012.49 370.36 1182.76 402.49 1030.34 495.66 992.36 586.31 1121.02 612.43
00013948 00000085 958.66 224.42 401.10 511.48 1011.83 374.27 1181.53 405.75 1031.02 498.46 992.36 587.81 1123.82 613.76
00013949 00000086 957.65 230.80 397.22 512.35 1010.36 376.63 1179.77 408.63 1030.69 502.80 991.89 591.78 1123.15 618.26
00013950 00000087 956.25 235.17 395.06 516.86 1007.03 379.36 1175.38 409.22 1027.59 504.83 992.02 599.03 1120.60 624.06
00013951 00000088 951.35 229.94 395.39 524.07 1003.17 380.81 1171.79 412.40 1024.09 506.42 986.11 601.26 1115.64 627.46
00013952 00000089 948.00 223.81 393.61 528.40 1000.89 385.98 1166.80 416.08 1019.99 506.73 983.24 602.13 1111.10 626.90
00013953 00000090 946.94 224.03 396.10 528.84 997.35 383.70 1165.35 414.21 1016.96 506.15 980.60 602.13 1108.91 626.78
00013954 00000091 945.63 228.33 393.02 523.24 997.45 386.40 1162.59 415.87 1016.11 505.44 979.81 602.50 1106.03 626.34
00013955 00000092 945.32 232.55 393.02 517.53 995.77 383.93 1162.46 412.80 1014.97 503.38 977.21 603.54 1103.15 626.75
00013956 00000093 947.09 235.04 392.34 514.08 996.21 382.10 1162.12 412.27 1013.02 505.04 976.37 604.85 1101.01 628.96
00013957 00000094 947.57 236.61 392.15 514.79 996.44 382.09 1162.44 411.79 1014.05 506.85 978.05 606.81 1102.29 630.82
00013958 00000095 947.52 235.23 392.21 516.89 996.95 382.52 1164.30 412.37 1015.73 507.22 978.30 606.85 1104.70 631.12
00013959 00000096 947.49 235.42 394.88 520.66 997.63 382.43 1166.26 411.57 1017.80 505.32 980.30 607.75 1105.70 631.73
00013960 00000097 948.16 236.34 394.64 522.62 999.16 383.04 1166.90 410.86 1019.88 504.25 984.07 607.92 1109.07 631.07
00013961 00000098 948.24 234.30 395.99 530.35 1000.63 384.12 1169.57 413.66 1020.86 507.91 985.25 609.96 1112.09 634.75
00013962 00000099 948.79 235.24 397.27 532.26 998.67 386.51 1167.94 417.25 1016.66 513.10 982.31 613.33 1113.41 639.00
00013963 00000100 948.06 242.29 396.79 528.93 999.12 390.78 1167.01 422.42 1017.74 519.38 982.98 616.78 1115.27 643.19
00013964 00000101 947.72 245.55 397.82 530.91 1001.62 396.05 1169.59 426.06 1020.32 523.37 986.06 623.17 1115.93 648.54
00013965 00000102 946.59 250.87 394.61 531.83 1002.97 401.19 1168.90 430.47 1022.33 529.42 990.05 628.89 1119.47 654.04
00013966 00000103 946.29 255.67 394.11 527.55 1003.46 402.94 1169.36 432.59 1023.78 531.52 990.83 629.35 1120.46 654.75
00013967 00000104 946.09 254.37 395.01 528.25 1003.13 402.76 1169.24 431.80 1023.16 530.99 991.10 629.47 1120.32 654.31
00013968 00000105 947.41 247.81 395.36 533.41 1002.52 400.43 1169.36 429.46 1021.97 528.43 989.31 631.32 1114.47 656.16
00013969 00000106 948.88 240.74 397.99 533.22 998.71 398.08 1167.07 430.13 1015.01 526.72 983.23 630.12 1107.95 656.79
00013970 00000107 951.34 245.71 395.38 521.53 999.66 394.07 1166.57 427.24 1013.85 522.65 979.04 624.61 1103.91 651.77
00013971 00000108 952.42 235.98 394.27 522.43 1000.84 391.06 1169.48 424.42 1017.96 517.82 979.33 616.21 1107.21 643.49
00013972 00000109 952.13 236.24 397.75 518.64 1003.44 386.11 1174.74 419.07 1024.21 512.22 984.74 604.75 1116.30 632.38
00013973 00000110 952.86 239.16 399.30 512.29 1004.82 383.33 1176.14 415.05 1026.26 508.35 987.59 600.67 1118.89 627.01
00013974 00000111 954.07 239.13 399.28 507.07 1006.32 378.24 1178.80 411.16 1028.02 504.23 987.52 597.18 1119.74 624.18
00013975 00000112 955.52 237.83 396.80 505.89 1007.45 377.38 1179.92 407.26 1030.56 501.15 989.71 596.10 1122.39 620.86
00013976 00000113 955.33 235.53 397.46 509.09 1008.59 377.54 1180.65 406.86 1031.38 499.64 990.83 595.43 1122.69 619.75
00013977 00000114 956.04 235.64 397.80 510.21 1009.47 378.38 1181.34 406.47 1031.72 499.12 992.14 596.67 1122.81 620.11
00013978 00000115 955.71 234.54 398.09 511.29 1008.50 379.37 1181.05 406.50 1031.58 499.94 993.14 597.00 1124.85 619.66
00013979 00000116 955.40 232.93 397.09 512.11 1008.58 378.75 1180.35 405.50 1031.77 498.93 992.72 595.95 1123.48 618.34
00013980 00000117 957.11 229.52 397.53 521.30 1008.82 379.38 1181.57 402.94 1032.69 498.04 996.48 599.43 1127.59 619.78
00013981 00000118 958.70 231.53 399.11 524.92 1010.72 378.25 1184.08 399.36 1035.04 495.57 1000.88 600.61 1132.66 619.39
00013982 00000119 961.42 227.41 399.06 531.35 1013.26 374.44 1187.15 396.39 1036.28 494.25 1003.20 599.27 1135.70 618.99
00013983 00000120 963.05 231.36 398.66 528.17 1015.82 372.99 1188.27 394.32 1037.36 491.37 1005.13 598.01 1137.54 617.25
00013984 00000121 964.27 226.30 398.90 533.42 1017.74 370.02 1190.00 392.02 1039.19 490.00 1006.86 596.39 1138.61 616.11
00013985 00000122 966.70 228.38 398.86 526.57 1019.66 370.56 1192.77 393.42 1041.91 489.81 1007.39 594.48 1139.31 614.94
00013986 00000123 963.08 224.96 401.70 524.74 1027.99 364.65 1196.03 402.94 1042.02 491.31 1010.41 590.57 1135.89 620.67
00013987 00000124 965.74 226.32 399.84 517.56 1029.05 366.92 1198.02 402.60 1044.08 492.00 1012.35 590.45 1138.43 618.56
00013988 00000125 966.80 229.53 399.87 511.61 1030.96 367.53 1201.42 402.46 1047.12 492.79 1012.71 590.01 1139.35 617.63
00013989 00000126 965.49 219.91 401.72 520.40 1030.73 366.98 1202.72 400.45 1048.50 489.73 1013.51 589.88 1141.81 616.70
00013990 00000127 966.34 217.75 401.60 522.51 1032.20 367.36 1205.17 400.78 1051.17 488.57 1016.16 588.64 1145.42 615.57
00013991 00000128 968.81 223.71 400.52 516.71 1032.27 368.65 1205.32 401.84 1052.12 488.77 1016.81 588.88 1145.17 615.53
00013992 00000129 970.31 223.22 399.75 515.27 1033.95 368.51 1204.98 400.79 1052.43 485.57 1018.67 586.71 1145.46 612.83
00013993 00000130 974.06 219.65 397.45 520.00 1034.91 366.34 1205.89 397.71 1053.00 481.22 1020.64 588.64 1142.38 614.11
00013994 00000131 977.07 219.32 396.30 519.48 1038.63 364.55 1207.46 395.43 1056.67 477.04 1023.91 587.82 1141.79 612.93
00013995 00000132 980.06 219.91 395.60 516.36 1044.02 360.59 1210.74 392.97 1061.72 472.15 1026.53 582.90 1144.08 609.38
00013996 00000133 982.46 221.52 396.54 507.70 1046.53 358.55 1213.40 389.31 1064.10 467.06 1028.95 577.51 1150.55 602.94
00013997 00000134 984.64 221.12 395.88 502.77 1045.22 358.68 1216.09 385.99 1067.39 466.18 1029.88 576.26 1161.25 598.75
00013998 00000135 985.20 217.78 396.49 502.37 1044.58 357.26 1218.13 382.56 1069.35 464.84 1032.09 573.36 1169.27 594.06
00013999 00000136 984.94 216.60 396.27 502.64 1044.80 356.67 1216.88 381.68 1068.02 462.65 1031.67 572.13 1168.61 592.61
00014000 00000137 983.43 214.43 397.18 504.69 1044.55 356.03 1217.69 381.20 1068.28 461.50 1031.26 571.13 1168.78 591.73
00014001 00000138 982.15 213.97 398.89 505.99 1044.53 358.63 1218.48 382.69 1070.73 464.11 1032.96 571.33 1170.86 590.94
00014002 00000139 982.24 208.80 400.96 510.35 1047.15 363.94 1221.57 387.23 1074.18 468.17 1036.18 572.62 1174.18 591.59
00014003 00000140 982.24 212.29 403.75 508.80 1049.04 364.74 1225.33 388.78 1077.88 470.26 1040.08 573.98 1178.05 593.23
00014004 00000141 984.20 210.98 403.73 511.27 1052.07 365.47 1228.78 388.70 1081.36 467.75 1044.78 575.91 1179.93 594.67
00014005 00000142 989.05 210.55 397.65 507.95 1054.43 363.07 1237.08 375.24 1096.03 468.45 1052.62 581.56 1191.19 590.73
00014006 00000143 988.71 209.09 396.39 509.66 1054.14 363.18 1237.67 374.65 1097.65 469.31 1053.35 583.84 1191.45 592.49
00014007 00000144 986.00 217.21 398.42 503.58 1047.59 370.13 1232.70 379.73 1098.76 480.04 1056.24 590.10 1192.90 597.82
00014008 00000145 984.50 213.80 399.47 514.02 1051.58 380.91 1235.77 391.33 1102.16 486.86 1057.14 595.82 1196.12 604.20
00014009 00000146 986.59 209.53 399.40 527.51 1054.08 393.05 1235.83 402.34 1106.28 492.92 1059.97 604.51 1197.48 611.94
00014010 00000147 985.16 218.18 401.62 527.24 1057.38 399.43 1242.56 406.19 1114.37 497.26 1064.72 611.38 1206.07 616.89
00014011 DELETE   984.76 220.05 404.65 530.01 1059.64 404.18 1246.72 408.83 1120.59 499.01 1070.51 614.88 1212.91 618.57
00014012 00000149 987.00 219.28 407.11 534.56 1064.85 404.96 1251.60 409.44 1127.70 498.32 1076.36 614.56 1217.62 618.34
00014013 00000150 989.25 216.96 407.87 537.80 1070.55 404.34 1258.61 409.92 1135.04 499.34 1082.02 614.51 1225.40 618.89
00014014 00000151 989.95 217.81 413.14 533.07 1075.44 404.38 1265.77 409.74 1141.68 499.83 1088.27 613.34 1233.74 617.26
00014015 DELETE   991.59 215.62 416.69 531.04 1079.84 403.29 1270.81 405.87 1147.92 499.51 1095.21 610.99 1240.04 612.58
00014016 DELETE   994.97 209.93 417.62 531.14 1083.20 400.03 1275.13 401.67 1150.37 496.29 1098.30 608.14 1245.45 608.88
00014017 00000154 998.59 202.05 419.75 538.27 1085.85 393.39 1277.68 394.75 1152.67 487.99 1099.47 601.51 1250.64 602.98
00014018 00000155 1002.18 197.86 418.33 540.95 1090.43 391.93 1282.57 394.82 1157.48 486.89 1102.35 600.13 1254.08 602.87
00014019 00000156 1005.15 200.98 418.50 536.96 1093.38 392.28 1287.11 395.99 1159.90 487.27 1104.42 599.56 1257.92 602.87
00014020 00000157 1007.00 210.51 414.61 528.81 1093.26 402.72 1283.85 402.60 1159.14 497.19 1108.44 606.60 1256.80 605.58
00014021 00000158 1006.33 213.83 413.35 532.43 1092.10 412.35 1283.22 412.34 1158.63 503.23 1107.29 613.17 1256.59 612.18
00014022 DELETE   1008.83 218.27 410.89 537.71 1092.27 417.97 1283.55 420.66 1156.83 511.78 1104.06 620.22 1254.51 621.75
00014023 DELETE   1007.95 223.78 411.20 539.41 1089.70 421.19 1280.36 425.15 1151.84 516.64 1099.67 625.78 1249.25 628.87
00014024 00000161 1007.43 221.70 410.41 538.50 1086.48 420.52 1277.36 424.18 1147.03 516.56 1097.21 624.63 1248.12 627.59
00014025 00000162 1005.43 221.53 410.51 529.17 1081.58 417.81 1272.00 417.66 1142.27 511.50 1096.59 620.07 1245.90 619.72
00014026 DELETE   1003.53 219.32 413.86 524.60 1079.15 413.11 1270.49 411.31 1139.65 504.23 1095.39 616.00 1242.23 614.27
00014027 00000164 1002.82 215.48 412.62 529.40 1079.30 409.21 1268.72 406.46 1139.37 501.63 1096.77 613.16 1239.06 610.95
