Video ID: 	6CriJKsGfwQ
H: 	1080
W: 	1920
FPS: 	25.0

FRAME INDEX X0 Y0 W H [Landmarks (5 Points)]

00006100 00000000 921.12 92.36 496.40 698.42 1016.69 360.42 1231.97 340.50 1099.86 458.33 1052.54 615.68 1206.78 600.33
00006101 00000001 922.10 91.43 494.56 698.14 1014.44 360.58 1229.08 341.77 1094.76 457.46 1047.88 614.43 1201.51 600.17
00006102 00000002 921.70 91.91 493.87 697.93 1009.96 361.02 1225.26 342.77 1089.61 461.54 1044.04 618.38 1196.83 604.63
00006103 00000003 921.84 93.55 491.66 696.18 1007.31 363.55 1222.19 344.18 1085.20 463.81 1040.74 619.97 1195.51 605.25
00006104 00000004 918.61 93.52 493.24 699.87 1004.16 366.14 1216.81 345.79 1079.33 466.93 1037.72 623.40 1191.43 607.75
00006105 00000005 914.59 102.83 497.86 695.69 1003.54 371.02 1214.95 349.82 1079.71 467.10 1034.43 624.25 1192.04 607.57
00006106 00000006 916.58 100.17 492.72 701.41 996.07 375.76 1205.35 353.93 1063.96 473.58 1028.77 631.87 1180.13 614.90
00006107 DELETE   909.04 111.25 501.42 694.17 990.74 382.07 1201.64 357.88 1060.00 478.61 1018.75 633.70 1172.67 615.26
00006108 DELETE   906.67 113.58 500.58 694.07 986.62 383.12 1195.56 360.39 1050.84 481.12 1012.92 635.59 1163.91 618.64
00006109 00000009 906.04 111.20 495.65 696.27 979.62 384.64 1191.50 361.62 1041.70 484.05 1006.47 637.16 1163.12 619.72
00006110 00000010 907.21 115.84 491.66 701.83 975.46 384.82 1183.93 358.57 1033.95 484.06 1005.93 645.88 1162.28 627.35
00006111 00000011 906.31 118.14 490.76 702.62 976.02 390.05 1181.45 362.36 1031.65 485.75 1005.86 649.37 1159.35 629.81
00006112 00000012 904.16 120.75 490.36 697.80 975.18 392.37 1179.05 365.88 1031.50 489.66 1004.24 650.35 1155.83 631.92
00006113 00000013 904.30 119.77 488.58 696.76 973.43 393.65 1178.94 366.57 1031.09 491.05 1002.10 651.50 1156.45 632.64
00006114 00000014 902.85 120.24 489.31 696.33 973.31 393.78 1178.35 366.68 1030.97 489.68 1001.77 650.56 1155.28 631.72
00006115 00000015 901.82 120.73 491.69 696.33 973.80 391.84 1178.63 365.52 1031.38 486.71 1002.84 648.39 1155.29 630.16
00006116 DELETE   900.37 125.87 497.72 692.82 978.37 395.71 1181.47 372.87 1033.41 486.64 1006.45 647.10 1155.62 631.49
00006117 DELETE   899.41 125.57 501.65 696.17 983.66 395.50 1186.09 375.92 1039.94 487.03 1012.00 645.62 1159.12 632.42
00006118 00000018 900.53 128.72 501.89 696.76 987.23 393.67 1190.45 373.67 1046.96 487.23 1017.97 646.96 1164.53 633.13
00006119 00000019 902.08 127.21 501.36 698.75 988.78 392.41 1191.93 370.85 1050.42 487.98 1021.97 647.66 1168.01 632.72
00006120 00000020 903.74 124.79 501.28 700.53 989.40 392.36 1194.31 368.06 1053.49 486.35 1024.95 648.48 1171.67 631.54
00006121 00000021 900.77 115.83 502.66 710.03 991.38 396.79 1198.29 367.87 1060.37 489.46 1023.83 651.91 1176.94 629.29
00006122 00000022 902.61 114.05 503.73 711.11 994.01 397.40 1200.82 369.58 1062.95 490.17 1025.97 650.90 1178.97 629.21
00006123 00000023 905.07 115.13 502.87 709.94 995.94 397.69 1202.53 370.03 1066.20 491.49 1028.93 651.00 1182.31 629.33
00006124 00000024 907.58 113.90 500.91 711.05 999.29 397.68 1204.72 370.96 1070.54 493.09 1032.85 650.98 1185.06 629.98
00006125 00000025 908.01 116.01 500.79 708.11 1000.25 397.83 1205.57 370.98 1072.91 493.33 1034.44 651.24 1185.69 630.15
00006126 00000026 909.26 114.75 500.03 709.51 1002.03 397.46 1206.99 371.16 1073.84 491.83 1034.43 650.52 1185.08 629.94
00006127 00000027 908.84 115.23 500.85 709.10 1002.50 395.57 1207.62 369.42 1074.86 490.74 1036.24 650.05 1185.16 629.58
00006128 00000028 908.71 115.09 501.28 708.99 1002.72 394.24 1207.71 367.97 1074.93 489.17 1036.92 649.56 1184.31 629.00
00006129 00000029 909.61 114.48 501.34 709.72 1003.51 392.57 1208.72 366.37 1075.50 487.73 1037.31 649.05 1185.42 628.54
00006130 00000030 911.14 114.06 501.40 711.01 1004.58 392.33 1210.10 365.72 1077.59 488.33 1039.39 649.49 1189.23 628.56
00006131 00000031 913.83 113.16 498.24 711.84 1007.36 391.23 1210.63 364.13 1080.21 490.16 1044.52 650.33 1195.25 628.76
00006132 00000032 918.87 113.32 495.13 712.26 1011.30 390.19 1214.47 364.26 1084.09 490.51 1047.39 650.99 1197.34 630.46
00006133 00000033 920.47 113.58 494.13 712.34 1012.26 390.44 1217.86 363.51 1086.66 488.99 1049.14 651.51 1200.50 630.15
00006134 00000034 920.37 113.57 494.10 710.90 1013.43 389.57 1218.84 363.59 1088.16 487.88 1049.90 649.48 1200.67 628.93
00006135 00000035 917.64 113.84 496.12 709.17 1011.02 388.13 1217.06 363.83 1086.35 489.44 1046.19 648.07 1197.19 628.97
00006136 00000036 913.94 113.36 496.87 705.55 1006.75 387.44 1214.14 364.70 1082.39 490.67 1039.41 643.93 1194.40 626.04
00006137 00000037 912.06 112.60 498.00 702.71 1002.28 389.81 1210.66 364.86 1076.68 487.58 1033.71 641.53 1191.48 621.80
00006138 00000038 908.61 112.96 499.70 697.96 998.63 388.18 1207.32 363.84 1072.30 484.82 1029.78 639.00 1186.98 619.76
00006139 00000039 913.09 107.70 491.27 701.32 996.24 387.21 1203.64 363.32 1064.48 478.68 1030.34 641.50 1182.44 622.76
00006140 00000040 911.60 105.83 492.20 705.64 994.13 387.36 1200.48 363.42 1060.09 477.41 1027.01 642.24 1179.59 623.42
00006141 00000041 908.66 118.08 496.07 697.07 989.52 384.37 1199.46 360.96 1059.80 477.66 1021.85 640.02 1184.81 624.25
00006142 00000042 906.88 116.71 494.66 700.03 987.84 383.32 1197.91 359.28 1058.24 477.60 1022.20 639.99 1183.97 623.27
00006143 00000043 906.25 103.18 491.63 710.90 988.03 384.73 1196.55 361.49 1054.82 475.91 1020.96 642.40 1176.06 624.08
00006144 00000044 905.85 105.60 492.09 705.25 987.63 382.89 1196.61 361.35 1054.45 475.33 1019.38 639.18 1173.29 622.46
00006145 00000045 906.32 103.85 491.61 704.63 987.61 384.32 1196.05 362.43 1054.22 476.66 1019.31 638.90 1172.92 621.92
00006146 00000046 906.85 103.51 492.21 707.52 990.50 386.97 1197.06 364.32 1058.12 478.55 1022.71 640.38 1175.50 622.74
00006147 00000047 905.98 118.31 498.48 701.67 993.86 385.60 1200.24 363.54 1063.45 478.01 1029.07 638.00 1182.71 622.92
00006148 00000048 901.49 111.97 503.35 709.47 998.32 389.80 1203.96 361.63 1072.18 483.95 1032.96 645.03 1182.28 622.94
00006149 00000049 902.67 111.42 502.86 708.01 1001.04 389.42 1205.82 361.37 1076.22 483.56 1037.17 642.54 1184.61 620.42
00006150 00000050 907.10 112.94 498.82 698.63 1001.45 388.06 1210.52 360.75 1080.91 482.41 1037.89 639.50 1189.69 617.73
00006151 00000051 911.22 111.46 497.01 699.44 1006.09 387.45 1214.07 360.51 1085.52 478.38 1043.28 636.38 1194.98 614.69
00006152 00000052 916.21 110.75 496.55 696.96 1009.01 391.24 1220.14 363.70 1089.80 477.97 1045.50 636.94 1204.66 614.66
00006153 DELETE   921.25 110.59 492.03 694.04 1014.59 393.34 1229.45 370.29 1102.14 477.32 1053.02 638.50 1211.28 619.82
00006154 DELETE   923.48 110.42 496.59 695.61 1024.07 389.69 1236.06 361.76 1110.53 472.42 1060.15 632.35 1222.76 609.82
00006155 00000055 925.44 107.53 497.66 699.77 1024.59 381.62 1239.25 356.07 1112.27 472.96 1062.46 631.83 1222.56 611.01
00006156 00000056 927.27 107.62 496.76 697.61 1027.17 379.02 1239.66 354.73 1114.16 471.90 1064.60 629.78 1219.96 610.10
00006157 00000057 929.70 107.94 494.47 693.46 1028.61 377.23 1240.26 354.61 1114.98 471.78 1065.35 626.25 1219.29 608.22
00006158 00000058 929.57 107.42 495.71 695.00 1027.91 375.82 1239.12 353.80 1112.99 471.42 1064.22 625.23 1217.60 607.69
00006159 00000059 927.50 107.31 498.20 700.78 1028.01 373.94 1237.31 352.97 1110.63 471.13 1064.72 628.12 1213.14 611.39
00006160 00000060 929.40 108.48 494.39 700.32 1026.39 377.30 1235.66 353.83 1108.39 472.63 1064.33 632.83 1213.23 613.92
00006161 00000061 925.93 109.46 496.95 703.68 1026.07 376.19 1235.20 354.24 1107.91 473.97 1063.18 633.50 1212.95 615.71
00006162 00000062 923.52 110.05 498.85 708.03 1026.78 373.17 1235.08 352.99 1107.88 473.94 1063.42 634.52 1211.49 618.29
00006163 00000063 923.17 109.39 498.82 705.72 1026.62 374.48 1236.46 353.90 1109.96 475.30 1065.63 634.10 1213.32 617.47
00006164 00000064 923.36 109.11 498.15 705.21 1027.54 375.20 1239.79 355.55 1114.60 478.77 1066.85 632.98 1219.27 616.92
00006165 00000065 921.91 108.66 498.49 705.34 1028.53 374.65 1241.40 356.50 1117.31 481.50 1067.30 631.45 1221.81 616.64
00006166 00000066 921.34 108.26 498.85 705.20 1030.83 374.23 1242.34 356.99 1119.86 482.62 1069.37 631.64 1221.28 617.65
00006167 00000067 921.41 107.75 499.39 706.10 1032.86 376.01 1245.93 358.10 1124.82 485.84 1072.61 633.50 1226.84 618.85
00006168 00000068 924.88 111.66 499.05 704.17 1039.99 380.67 1254.03 362.83 1133.76 488.08 1075.55 636.01 1233.61 621.49
00006169 00000069 929.09 111.95 501.12 710.38 1046.23 386.13 1264.12 366.10 1144.45 488.07 1081.02 643.24 1245.59 626.73
00006170 00000070 930.34 115.72 504.01 713.21 1056.53 381.81 1267.77 364.07 1157.94 489.26 1098.32 646.44 1251.98 631.74
00006171 00000071 933.34 116.23 504.68 714.83 1062.27 384.88 1273.09 365.29 1168.05 493.77 1107.68 651.60 1262.56 634.94
00006172 00000072 932.32 125.86 501.81 700.46 1061.72 387.02 1278.39 365.67 1177.41 490.76 1111.08 648.78 1271.21 630.55
00006173 00000073 935.19 126.59 500.82 696.38 1063.45 387.12 1281.71 365.14 1180.76 491.12 1113.88 647.33 1275.85 628.43
00006174 00000074 935.63 128.72 500.85 693.42 1064.68 388.82 1282.58 366.52 1183.08 493.15 1115.85 648.53 1276.37 629.48
00006175 00000075 936.11 129.34 501.50 694.18 1064.56 390.51 1282.89 367.95 1182.04 495.36 1115.96 650.70 1276.00 631.56
00006176 00000076 936.27 128.65 503.05 695.71 1062.73 392.75 1282.15 369.63 1178.81 497.31 1113.04 652.23 1275.39 632.75
00006177 00000077 936.77 127.86 502.21 695.83 1059.97 394.16 1279.02 370.36 1174.42 498.92 1109.81 651.48 1273.63 631.57
00006178 00000078 936.40 127.23 502.26 696.11 1058.02 393.33 1277.62 370.32 1171.44 496.64 1106.25 650.11 1271.97 630.81
00006179 00000079 936.87 122.78 500.55 698.60 1055.88 394.50 1277.16 371.26 1171.40 496.74 1100.53 646.07 1275.41 626.72
00006180 00000080 938.34 121.23 499.95 698.27 1055.92 393.88 1277.79 371.68 1170.78 495.04 1097.01 642.73 1276.37 624.25
00006181 00000081 938.46 123.31 501.16 701.04 1058.05 393.18 1278.53 370.05 1173.22 493.56 1101.42 643.86 1278.90 624.30
00006182 00000082 943.89 117.43 503.21 713.13 1067.39 389.37 1278.39 370.08 1168.69 494.13 1107.39 648.20 1268.62 631.84
00006183 00000083 938.53 124.03 499.93 700.84 1057.31 392.78 1277.62 369.82 1170.50 493.82 1102.47 648.09 1274.36 628.67
00006184 00000084 937.57 123.12 499.35 700.68 1053.23 393.51 1274.52 370.19 1166.28 494.75 1097.43 646.89 1271.13 627.38
00006185 00000085 940.85 116.15 500.24 713.84 1057.13 392.78 1274.48 371.91 1158.22 497.44 1094.48 651.03 1261.74 633.69
00006186 00000086 937.35 119.58 502.90 710.76 1053.56 391.87 1268.79 371.62 1152.15 494.76 1092.41 651.85 1252.60 635.26
00006187 00000087 933.19 122.47 502.13 710.38 1046.17 387.30 1261.29 368.33 1143.00 496.84 1085.17 651.28 1242.22 635.71
00006188 00000088 931.63 121.06 498.83 707.21 1043.31 385.49 1257.04 367.57 1137.55 495.40 1078.21 645.94 1233.76 631.69
00006189 00000089 930.70 117.77 498.57 705.75 1042.94 385.50 1255.79 367.12 1134.72 493.44 1076.47 642.02 1231.55 627.47
00006190 00000090 928.33 116.91 499.37 705.65 1041.57 384.63 1253.76 365.61 1133.61 492.69 1076.35 641.05 1230.36 625.89
00006191 00000091 927.04 115.52 499.66 705.90 1040.70 384.74 1253.41 365.17 1133.82 493.13 1077.01 641.08 1231.73 625.31
00006192 00000092 923.52 114.44 501.40 704.64 1039.26 382.65 1251.96 363.30 1133.10 491.35 1076.84 639.38 1230.12 623.70
00006193 00000093 921.09 111.16 502.31 705.84 1036.78 380.51 1249.19 362.45 1128.74 487.06 1071.94 634.81 1226.07 620.23
00006194 00000094 920.02 112.88 501.47 702.99 1033.67 379.74 1245.15 362.19 1123.46 486.39 1068.10 633.34 1221.15 619.28
00006195 00000095 918.26 112.92 501.57 703.32 1030.44 380.46 1242.01 361.47 1120.33 488.62 1066.96 634.28 1219.74 619.07
00006196 00000096 918.13 113.69 502.01 704.12 1030.27 380.84 1241.74 361.13 1120.23 489.25 1068.03 636.22 1219.75 620.38
00006197 00000097 917.85 114.58 503.02 705.64 1031.79 381.28 1243.89 361.96 1123.79 491.48 1069.48 639.00 1223.43 623.31
00006198 00000098 917.19 115.12 504.25 709.58 1033.95 380.87 1243.64 360.69 1125.83 490.37 1074.44 643.57 1223.51 627.23
00006199 00000099 916.46 115.79 505.00 714.76 1032.94 381.95 1243.19 360.99 1125.29 494.20 1077.12 649.67 1225.07 632.55
00006200 00000100 917.97 117.10 503.49 715.14 1031.77 384.65 1241.75 362.71 1122.87 495.50 1075.97 652.24 1223.44 634.34
00006201 00000101 918.42 117.72 502.94 713.39 1030.84 386.67 1241.27 363.95 1121.77 497.25 1075.62 653.42 1222.71 634.90
00006202 00000102 918.73 117.77 504.31 711.28 1029.78 388.04 1242.02 365.76 1121.54 500.86 1073.18 653.09 1224.07 634.96
00006203 00000103 922.02 117.64 502.22 705.97 1031.29 387.97 1245.65 366.56 1123.33 498.97 1070.19 647.92 1225.06 630.66
00006204 00000104 923.21 117.50 502.97 705.26 1036.12 386.64 1250.85 365.29 1129.60 495.93 1074.91 646.04 1229.43 628.77
00006205 00000105 924.88 117.03 503.30 706.77 1039.12 387.95 1253.70 365.24 1134.85 495.94 1079.63 646.87 1234.91 628.30
00006206 00000106 924.01 116.91 505.69 707.05 1039.73 389.53 1256.38 365.72 1138.56 497.90 1082.45 648.27 1240.09 628.62
00006207 00000107 924.32 117.23 505.67 707.04 1039.80 388.85 1256.65 365.70 1138.34 497.49 1081.77 647.87 1240.38 628.77
00006208 00000108 923.78 117.37 504.77 707.31 1039.90 387.93 1254.52 365.39 1136.26 495.13 1082.14 648.09 1235.26 629.62
00006209 00000109 923.37 118.07 503.82 709.92 1038.68 388.12 1252.13 366.37 1133.33 497.07 1080.42 650.32 1231.56 632.63
00006210 00000110 921.66 119.62 505.09 707.01 1036.09 389.32 1249.36 366.88 1130.10 498.53 1078.90 650.59 1229.63 632.31
00006211 00000111 921.61 119.78 504.62 705.13 1035.30 390.40 1249.79 367.32 1130.12 499.07 1078.44 650.51 1229.22 631.77
00006212 00000112 920.13 120.23 506.67 706.23 1035.10 390.72 1249.68 366.82 1130.53 499.08 1080.28 651.65 1230.72 632.14
00006213 00000113 918.63 119.69 507.20 708.48 1034.79 390.61 1250.59 366.13 1132.07 498.50 1081.49 653.02 1232.81 632.93
00006214 00000114 916.63 118.35 508.40 715.81 1036.58 387.98 1250.02 364.85 1133.26 497.13 1086.05 656.25 1231.00 637.25
00006215 00000115 916.59 118.90 506.50 718.35 1035.18 385.31 1247.53 363.23 1129.71 495.85 1083.24 657.47 1229.02 639.28
00006216 00000116 915.24 116.46 506.63 716.84 1029.85 387.18 1246.87 362.57 1127.94 500.45 1077.84 657.28 1235.06 636.81
00006217 00000117 915.58 116.58 506.87 715.25 1029.34 386.53 1247.07 362.26 1127.88 500.49 1075.67 654.03 1237.85 633.76
00006218 00000118 916.42 114.91 508.58 722.41 1033.98 389.95 1252.74 364.50 1134.11 498.53 1079.39 656.37 1243.21 635.04
00006219 00000119 921.00 122.94 502.91 715.27 1039.10 397.84 1257.81 373.70 1149.69 494.93 1083.22 655.86 1251.35 636.18
00006220 DELETE   926.55 129.99 504.92 702.98 1051.49 398.68 1268.04 376.93 1163.71 497.80 1099.05 653.99 1264.28 636.39
00006221 DELETE   930.62 134.92 502.81 695.30 1061.43 397.99 1276.23 374.00 1176.68 493.81 1112.90 652.56 1276.84 632.44
00006222 00000122 932.98 133.20 503.22 693.48 1065.97 392.69 1284.71 366.43 1189.10 491.42 1121.81 651.77 1284.70 629.20
00006223 00000123 934.60 130.01 502.81 694.60 1066.90 390.87 1289.66 365.30 1193.64 494.82 1121.47 650.37 1288.48 628.33
00006224 00000124 935.77 130.40 503.43 692.77 1065.56 389.91 1291.56 365.12 1192.51 495.59 1119.36 650.15 1288.23 628.70
00006225 00000125 936.19 130.54 502.25 693.88 1064.89 388.91 1289.64 366.02 1188.81 496.07 1115.92 649.75 1282.90 630.06
00006226 00000126 935.91 132.09 501.50 691.73 1062.33 388.89 1286.01 365.91 1183.41 497.00 1114.12 649.71 1280.15 629.92
00006227 00000127 935.66 130.53 500.99 693.40 1058.39 390.86 1282.66 367.25 1177.28 499.73 1109.33 651.17 1279.01 630.86
00006228 DELETE   934.70 133.39 500.22 692.95 1058.01 395.60 1277.66 375.22 1170.77 497.43 1104.58 652.31 1269.09 635.24
00006229 00000129 931.47 132.53 500.27 693.84 1050.06 399.76 1269.13 377.97 1161.11 494.77 1095.71 653.00 1260.28 635.17
00006230 DELETE   927.67 129.96 500.31 699.58 1041.45 401.24 1263.59 379.72 1148.51 491.73 1076.85 651.19 1252.86 633.92
00006231 DELETE   927.16 120.78 499.25 706.34 1040.04 397.84 1255.92 375.31 1133.36 493.45 1072.41 649.44 1236.94 631.24
00006232 00000132 922.69 120.52 500.06 707.41 1031.64 397.44 1244.28 372.82 1123.05 499.45 1069.40 652.09 1228.16 632.20
00006233 00000133 918.87 123.05 501.66 704.51 1024.37 396.88 1237.54 371.01 1115.90 502.82 1068.50 655.04 1223.65 634.00
00006234 00000134 916.38 122.38 503.87 707.54 1023.67 393.66 1237.12 366.75 1116.68 499.43 1071.35 656.10 1224.13 634.03
00006235 00000135 913.93 123.79 506.33 706.76 1027.23 388.74 1238.55 362.85 1121.89 494.84 1077.50 654.56 1225.93 633.03
00006236 00000136 911.03 121.82 509.80 713.19 1032.04 385.28 1243.40 360.37 1130.83 493.65 1084.44 655.83 1232.67 634.89
00006237 00000137 910.59 121.33 504.01 709.90 1028.37 389.24 1243.84 362.81 1138.49 491.11 1081.78 653.91 1236.38 631.71
00006238 00000138 914.17 117.49 507.82 712.04 1037.73 385.63 1253.27 361.30 1141.26 492.35 1087.04 651.95 1241.97 631.38
00006239 00000139 914.97 115.21 508.01 710.96 1037.83 384.26 1254.69 360.84 1140.78 491.79 1085.08 648.29 1242.86 628.49
CROP_BBOX: 650 0 1696 987
