Video ID: 	xHb3_PCNsR0
H: 	1080
W: 	1920
FPS: 	25.0

FRAME INDEX X0 Y0 W H [Landmarks (5 Points)]

00006632 00000000 838.28 373.49 449.39 554.14 978.72 540.93 1187.18 580.51 1071.39 712.75 960.54 775.52 1119.20 807.74
00006633 00000001 836.41 376.93 449.10 550.36 976.11 541.13 1185.10 578.06 1069.43 709.63 958.70 779.64 1115.43 809.86
00006634 00000002 835.93 375.84 458.98 561.84 983.06 552.28 1192.27 582.56 1081.32 719.52 965.25 782.12 1124.64 808.98
00006635 DELETE   837.49 372.16 465.02 571.06 1001.47 555.61 1206.17 586.95 1104.17 717.72 981.44 779.49 1140.59 807.65
00006636 00000004 843.96 357.43 464.91 588.65 1017.10 550.42 1217.49 579.54 1120.81 717.75 994.62 778.89 1147.24 805.89
00006637 00000005 846.88 350.39 458.78 595.31 1020.77 547.66 1220.94 575.67 1127.25 714.97 1001.65 778.50 1152.18 804.62
00006638 DELETE   838.05 361.27 465.91 584.82 1009.30 549.25 1213.62 578.84 1114.55 714.90 990.52 779.12 1146.39 806.06
00006639 00000007 831.81 359.50 465.23 585.42 992.57 549.76 1197.94 577.57 1098.34 716.12 978.01 779.30 1137.26 804.55
00006640 00000008 828.54 365.69 458.65 568.05 978.96 539.95 1193.33 570.71 1089.82 712.73 968.71 779.89 1131.86 804.42
00006641 00000009 827.22 365.47 457.01 568.14 973.68 541.97 1191.69 571.62 1086.30 716.53 964.61 781.09 1131.66 804.82
00006642 00000010 824.66 369.63 460.09 580.93 974.36 558.82 1183.73 583.57 1078.92 730.12 962.89 787.68 1125.95 810.41
00006643 00000011 823.83 371.93 467.89 581.73 971.05 565.46 1183.46 594.57 1071.69 736.57 956.36 793.04 1122.19 819.44
00006644 00000012 821.35 379.49 472.58 572.60 968.32 571.60 1180.75 600.60 1067.71 744.17 955.09 793.01 1119.95 819.54
00006645 00000013 822.53 384.32 470.68 572.62 969.47 578.98 1178.88 607.29 1067.30 752.07 954.30 795.67 1122.58 821.93
00006646 00000014 824.12 381.89 469.17 578.35 966.16 584.16 1176.15 613.17 1060.17 758.15 950.28 798.00 1121.98 824.87
00006647 00000015 824.64 383.09 469.48 579.25 963.97 585.57 1175.27 615.93 1055.99 761.76 948.22 800.04 1120.01 828.06
00006648 00000016 823.37 379.19 465.82 579.18 961.26 584.01 1173.10 614.43 1054.48 758.07 945.94 797.78 1118.03 825.80
00006649 00000017 819.87 375.67 465.33 576.37 958.61 581.10 1169.99 616.84 1048.63 756.38 936.97 790.10 1108.90 822.73
00006650 00000018 812.70 382.77 470.73 565.85 954.43 582.35 1168.00 613.73 1047.54 756.74 936.37 791.14 1112.64 819.30
00006651 00000019 815.03 376.21 469.04 571.18 956.73 580.21 1170.75 609.68 1052.33 753.57 939.63 791.04 1115.22 817.76
00006652 00000020 816.04 379.26 474.66 565.22 960.19 579.03 1174.69 607.11 1056.49 750.05 945.76 790.53 1118.21 815.92
00006653 00000021 828.82 381.00 467.10 568.75 966.19 575.89 1179.43 604.34 1060.86 744.93 952.60 792.71 1120.97 818.88
00006654 00000022 831.16 388.25 475.24 560.86 970.11 570.43 1187.44 602.43 1064.87 744.14 955.62 789.80 1128.34 818.48
00006655 00000023 835.45 387.24 473.14 563.58 975.73 569.61 1195.22 601.31 1073.40 742.30 961.85 789.81 1139.27 818.01
00006656 00000024 840.78 379.56 469.47 572.44 985.36 568.29 1202.71 600.52 1083.37 738.81 967.64 789.26 1142.76 818.20
00006657 00000025 845.41 383.17 470.45 561.45 988.80 564.40 1208.33 596.11 1090.65 741.54 970.01 782.07 1147.38 810.67
00006658 00000026 849.04 389.18 468.79 553.78 993.34 561.54 1211.20 593.31 1095.86 739.92 976.86 781.23 1151.15 809.62
00006659 00000027 849.42 384.49 476.67 563.13 997.79 562.99 1213.60 592.70 1095.13 730.22 981.97 783.14 1152.20 810.14
00006660 00000028 850.76 386.15 476.53 563.01 998.63 562.11 1213.49 591.56 1096.92 730.60 982.66 782.55 1154.47 809.57
00006661 00000029 851.10 388.21 478.98 566.80 998.21 562.46 1210.95 593.18 1094.46 731.93 981.20 783.94 1153.78 812.07
00006662 00000030 851.77 386.40 473.19 564.01 996.46 560.03 1212.54 591.31 1097.64 742.23 979.38 781.22 1153.41 809.98
00006663 00000031 850.51 387.53 477.52 566.82 997.04 564.01 1209.58 593.22 1093.43 732.09 981.51 786.46 1150.16 813.16
00006664 00000032 847.61 384.38 477.93 569.98 996.08 561.45 1209.07 590.15 1092.83 729.71 980.33 785.62 1148.03 811.82
00006665 00000033 844.45 374.54 472.25 577.70 991.59 560.15 1206.44 586.44 1091.84 727.07 978.28 785.15 1147.14 809.35
00006666 00000034 841.68 379.15 474.56 577.50 988.24 558.44 1204.56 585.82 1088.94 728.96 976.30 787.46 1147.17 812.26
00006667 00000035 840.96 378.20 472.69 585.14 985.75 559.21 1202.37 587.28 1086.90 732.55 971.47 793.81 1142.12 819.45
00006668 00000036 837.64 374.42 474.68 601.42 984.23 566.29 1200.14 591.67 1084.50 735.62 973.68 800.21 1144.05 823.74
00006669 00000037 836.01 375.92 473.64 599.51 981.87 573.23 1194.79 597.21 1082.62 737.41 970.29 801.29 1143.10 823.65
00006670 00000038 834.92 380.39 473.68 594.29 978.96 572.56 1191.48 596.44 1078.29 737.62 968.20 799.96 1141.77 822.24
00006671 00000039 830.16 383.21 476.96 592.54 977.51 574.29 1187.58 593.07 1074.66 731.95 965.91 800.27 1147.61 815.34
00006672 00000040 828.43 368.10 477.76 607.66 975.34 565.21 1188.36 591.83 1075.09 731.28 962.83 797.72 1137.98 821.73
00006673 00000041 825.62 360.10 468.89 614.24 966.29 557.71 1185.63 581.70 1070.08 720.67 953.56 793.24 1139.94 812.54
00006674 00000042 823.68 356.82 467.39 614.61 962.95 549.80 1183.20 576.87 1065.36 715.55 946.76 787.65 1133.87 809.54
00006675 00000043 823.05 357.86 466.16 614.08 958.53 545.79 1181.15 572.80 1060.90 712.32 944.42 785.49 1133.73 807.27
00006676 00000044 824.64 354.59 468.09 616.47 958.40 541.68 1181.40 569.02 1060.29 707.28 946.77 782.68 1135.53 804.71
00006677 00000045 826.84 349.01 467.25 619.21 959.92 537.80 1184.03 566.83 1062.09 703.52 948.24 780.13 1137.71 803.68
00006678 00000046 827.33 349.22 468.92 617.41 960.87 535.16 1184.62 564.98 1062.24 701.57 947.68 776.95 1137.02 801.15
00006679 00000047 828.31 350.64 471.03 614.91 962.21 532.74 1185.33 565.01 1060.12 699.97 946.15 774.50 1135.05 800.74
00006680 00000048 827.26 347.32 471.64 619.80 959.84 534.10 1184.34 565.08 1059.45 701.15 945.63 775.30 1136.15 800.46
00006681 00000049 825.73 347.97 471.16 619.02 956.19 534.46 1181.79 566.39 1055.24 701.27 942.69 774.45 1133.37 800.51
00006682 00000050 826.06 355.53 469.23 605.83 953.51 531.03 1179.52 564.63 1050.02 703.08 939.93 770.95 1129.71 798.68
00006683 00000051 825.61 353.82 465.67 599.01 951.75 524.34 1175.70 561.07 1047.12 694.21 935.39 760.53 1127.54 790.94
00006684 00000052 820.86 336.71 471.23 603.53 947.01 517.39 1167.01 548.46 1036.50 672.25 930.45 750.55 1124.80 776.70
00006685 00000053 821.50 333.25 461.36 596.06 942.40 513.59 1160.15 541.71 1031.68 659.91 926.81 743.39 1122.32 766.69
00006686 00000054 818.66 327.44 456.97 585.99 938.97 505.40 1157.07 533.51 1027.24 649.61 920.33 734.25 1114.65 757.52
00006687 00000055 811.61 324.21 454.87 575.00 933.33 499.22 1148.01 521.22 1025.03 639.21 918.70 725.94 1109.08 744.05
00006688 00000056 803.48 321.66 446.82 568.35 926.13 491.64 1139.79 515.72 1019.46 628.83 916.01 716.11 1099.66 735.25
00006689 00000057 787.11 308.34 445.84 573.48 908.62 494.93 1121.78 509.79 1007.19 621.13 905.65 711.21 1089.70 722.48
00006690 00000058 780.54 306.67 435.18 569.78 897.94 493.94 1110.08 507.44 995.86 618.21 897.24 710.22 1082.19 720.78
00006691 00000059 777.93 315.23 431.96 554.93 890.59 488.73 1101.94 502.66 985.63 612.25 891.75 707.98 1073.47 719.46
00006692 00000060 775.56 311.27 424.80 552.98 886.75 484.37 1096.48 500.75 980.15 608.97 889.72 704.59 1065.47 717.97
00006693 00000061 775.71 305.63 428.51 550.05 886.74 477.42 1099.39 494.99 982.42 607.30 892.24 699.78 1065.71 713.85
00006694 00000062 778.59 299.62 429.99 548.69 890.39 470.85 1100.60 485.62 989.42 597.92 899.91 694.32 1068.75 705.81
00006695 00000063 778.57 295.49 429.80 552.52 891.82 466.79 1102.50 481.43 992.46 594.80 904.52 696.29 1066.43 707.41
00006696 00000064 779.35 297.31 430.30 558.47 893.84 465.76 1103.12 481.66 992.71 589.70 902.06 701.45 1057.49 713.50
00006697 00000065 780.05 296.17 431.03 561.99 893.96 467.41 1102.23 482.09 991.73 591.40 902.30 703.42 1056.36 714.60
00006698 00000066 780.47 297.27 431.29 561.41 892.36 468.75 1100.84 483.54 988.81 591.12 900.96 705.50 1054.44 716.63
00006699 00000067 780.23 298.25 430.53 560.87 890.79 469.95 1098.58 484.59 987.40 592.75 899.03 704.63 1054.15 715.73
00006700 00000068 778.52 300.85 430.99 558.15 890.87 472.13 1100.68 487.87 987.38 594.64 899.40 702.89 1061.82 714.92
00006701 00000069 782.27 302.54 428.76 562.88 891.94 474.11 1103.81 488.31 989.37 597.93 898.38 705.90 1070.21 716.78
00006702 00000070 780.97 300.25 433.04 569.06 893.35 475.97 1107.19 491.76 990.43 603.12 897.87 708.48 1071.57 720.66
00006703 00000071 781.28 303.27 434.67 564.22 891.95 478.56 1110.42 494.18 991.75 606.20 896.74 709.12 1077.03 721.18
00006704 00000072 782.50 284.54 433.47 571.65 894.89 472.72 1113.91 482.80 1005.19 605.73 905.24 700.76 1086.49 708.44
00006705 DELETE   785.09 282.16 438.90 553.80 916.52 465.23 1126.17 458.21 1040.53 581.96 942.43 684.66 1118.20 677.21
00006706 00000074 790.98 269.86 442.73 559.26 933.12 456.08 1141.86 436.45 1076.20 565.85 972.24 680.57 1144.01 662.06
00006707 00000075 786.97 265.61 445.78 565.75 931.00 457.51 1141.40 440.37 1073.99 557.40 979.54 678.84 1160.47 663.99
00006708 DELETE   778.43 280.86 447.43 566.57 923.34 476.11 1127.78 452.54 1064.11 587.63 962.94 697.65 1133.61 676.11
00006709 DELETE   769.78 292.02 441.10 578.76 913.93 495.31 1120.76 475.48 1054.05 617.98 949.89 720.02 1124.73 702.11
00006710 DELETE   757.78 307.06 455.45 593.79 904.66 525.79 1111.69 509.97 1038.16 653.53 936.31 743.16 1116.66 728.86
00006711 00000079 760.29 316.63 455.22 603.62 898.32 548.57 1112.91 529.06 1032.09 688.75 926.95 766.15 1117.21 749.78
00006712 00000080 765.86 338.54 454.13 588.47 901.82 546.52 1116.16 533.07 1034.42 693.80 937.35 773.92 1112.31 760.18
00006713 00000081 765.59 334.07 450.34 586.26 903.84 542.52 1113.16 529.05 1035.27 685.84 944.57 771.20 1108.46 756.99
00006714 00000082 766.51 322.89 445.11 587.46 905.49 536.21 1113.30 522.49 1037.84 675.17 942.30 758.94 1110.63 744.82
00006715 00000083 766.93 327.54 440.16 572.89 903.32 528.40 1111.48 515.93 1034.78 667.19 939.53 751.54 1106.61 738.71
00006716 00000084 756.63 316.11 451.31 589.84 895.13 533.21 1101.05 517.78 1022.10 666.77 934.10 757.12 1102.97 743.54
00006717 00000085 755.98 318.65 451.33 588.32 892.50 534.97 1100.57 519.62 1019.59 671.84 927.62 757.91 1099.96 744.96
00006718 00000086 753.60 320.54 449.34 583.94 891.79 537.95 1096.67 523.33 1015.69 668.99 922.89 753.33 1096.00 741.54
00006719 00000087 751.35 322.32 446.78 579.27 887.65 533.60 1091.56 525.13 1007.27 656.58 917.37 747.17 1088.42 740.06
00006720 00000088 749.95 317.16 444.88 584.31 881.50 525.98 1088.34 520.10 1001.87 648.96 912.21 744.53 1083.39 739.17
00006721 00000089 748.79 315.98 443.87 585.49 873.25 520.62 1086.65 513.42 996.65 644.99 907.03 745.68 1082.30 739.01
00006722 00000090 745.63 309.41 444.97 591.79 867.29 518.23 1084.27 508.90 993.85 643.55 905.05 747.05 1082.12 738.22
00006723 00000091 739.01 306.71 444.23 596.19 862.64 518.74 1078.42 506.22 991.21 644.20 904.62 750.26 1080.49 738.56
00006724 00000092 734.09 307.86 449.24 599.18 857.98 520.61 1073.89 504.57 987.03 646.87 903.78 754.05 1077.59 739.00
00006725 00000093 728.85 312.37 451.23 596.88 855.63 521.71 1070.01 505.74 982.27 656.60 902.33 756.87 1068.69 741.37
00006726 00000094 722.16 313.45 454.05 596.05 851.75 520.49 1067.92 506.72 979.28 657.47 898.40 756.97 1064.15 743.18
00006727 00000095 720.63 310.13 453.30 597.40 850.21 518.50 1067.02 506.38 976.23 656.34 896.11 754.96 1060.73 742.69
00006728 00000096 713.50 296.55 455.99 614.65 848.49 522.08 1063.69 505.85 979.29 656.70 898.53 758.85 1063.20 746.52
00006729 00000097 717.80 309.40 454.65 609.96 849.52 524.46 1067.48 507.70 981.64 664.67 903.49 767.49 1062.81 750.68
00006730 00000098 720.38 304.08 456.24 631.14 853.88 540.29 1064.05 517.46 990.02 676.81 903.51 780.11 1074.91 761.02
00006731 00000099 719.93 311.33 461.66 633.11 861.28 553.52 1069.92 522.61 1005.71 683.92 908.59 783.91 1092.77 758.99
00006732 00000100 722.32 310.16 458.09 638.46 868.98 560.71 1073.36 523.03 1020.62 688.67 921.14 792.52 1097.59 762.47
00006733 00000101 722.54 305.20 459.50 645.21 867.68 554.57 1072.50 512.47 1023.42 677.49 922.32 791.50 1100.96 757.24
00006734 00000102 720.74 297.41 462.41 654.86 870.13 543.56 1072.46 504.67 1024.32 671.05 924.39 788.67 1097.49 756.38
00006735 00000103 718.14 303.89 467.51 651.36 865.59 550.19 1074.92 514.63 1017.82 683.20 924.13 797.21 1097.97 767.71
00006736 00000104 718.60 318.11 463.91 638.67 868.46 563.18 1078.43 530.74 1019.59 700.03 920.95 803.19 1093.77 777.72
00006737 00000105 718.19 320.99 466.96 632.92 867.67 563.28 1082.98 533.37 1017.66 701.01 918.23 801.70 1094.56 778.48
00006738 00000106 712.57 325.74 473.59 624.14 863.98 554.62 1082.24 525.26 1015.45 691.77 916.06 795.51 1093.28 772.37
00006739 00000107 712.75 328.27 472.57 619.79 862.44 551.42 1080.70 525.95 1010.22 690.55 914.29 793.28 1089.09 773.20
00006740 00000108 713.27 333.87 471.09 618.39 862.52 559.38 1082.60 533.37 1011.24 702.14 913.34 799.77 1089.71 779.89
00006741 00000109 715.09 333.88 467.14 625.69 865.59 566.65 1082.28 544.81 1009.56 712.27 913.74 806.71 1084.65 790.40
00006742 00000110 712.46 352.67 477.01 611.63 864.91 570.30 1082.87 551.80 1006.34 716.59 909.50 809.43 1081.54 795.73
00006743 00000111 711.46 353.02 476.56 612.03 867.09 572.07 1085.06 555.53 1009.51 717.68 907.96 810.51 1081.07 798.62
00006744 00000112 711.60 351.55 477.30 620.95 868.08 577.07 1084.25 558.68 1010.65 722.91 906.81 815.17 1081.62 801.90
00006745 00000113 708.83 356.94 478.56 621.27 866.44 584.11 1083.91 564.06 1009.65 731.22 911.45 823.22 1080.94 808.34
00006746 00000114 707.21 366.13 479.53 614.13 858.50 587.72 1080.08 564.86 1004.91 734.36 909.56 826.58 1084.44 808.64
00006747 00000115 706.28 363.67 476.73 612.61 857.53 587.29 1077.35 565.16 1002.80 730.46 906.70 819.45 1083.54 802.30
00006748 00000116 706.05 359.48 477.20 611.84 859.57 584.70 1076.46 560.86 1004.07 723.38 906.89 812.80 1085.12 794.51
00006749 00000117 709.11 350.47 473.57 615.62 863.94 582.34 1078.13 555.15 1010.81 721.24 907.73 807.00 1088.19 786.60
00006750 00000118 710.97 346.41 474.80 617.61 864.61 579.67 1083.01 552.95 1012.16 722.53 910.97 808.51 1090.47 788.30
00006751 00000119 712.20 344.77 475.90 618.96 867.60 579.25 1087.67 553.11 1017.55 723.01 913.24 813.36 1090.40 793.53
00006752 00000120 714.12 343.26 478.60 621.86 872.77 579.40 1091.85 549.05 1026.80 721.12 918.93 813.22 1096.86 790.13
00006753 00000121 717.17 336.94 476.85 627.37 878.72 577.46 1096.34 547.38 1034.18 722.64 920.98 808.06 1102.88 785.51
00006754 00000122 717.34 331.90 480.27 632.59 883.89 575.24 1103.88 546.01 1041.69 719.80 922.99 805.36 1110.35 783.57
00006755 00000123 720.07 329.11 480.11 637.61 887.85 574.00 1107.42 543.47 1047.28 714.43 929.46 807.63 1115.28 784.14
00006756 00000124 718.12 325.43 483.63 644.36 892.03 575.46 1110.12 543.28 1054.55 714.32 935.54 810.55 1119.61 785.46
00006757 00000125 721.34 344.08 480.20 633.86 899.57 574.53 1121.64 541.67 1064.48 718.04 940.33 816.33 1131.07 787.04
00006758 00000126 721.15 340.14 483.24 640.62 905.12 573.11 1125.59 539.28 1071.40 714.67 947.18 815.51 1134.48 785.16
00006759 00000127 722.57 338.98 486.29 642.73 910.25 570.64 1131.70 533.92 1081.02 713.70 947.80 814.24 1138.01 782.08
00006760 00000128 718.72 335.88 489.96 645.61 909.68 562.79 1131.36 532.72 1079.17 709.02 950.10 814.07 1133.01 787.02
00006761 00000129 710.17 339.23 496.62 647.74 907.66 559.56 1128.93 532.99 1076.19 709.91 948.64 817.84 1127.41 793.41
00006762 00000130 710.53 335.64 497.25 667.39 908.22 563.05 1126.28 534.76 1075.24 712.87 951.20 827.38 1127.33 801.58
00006763 00000131 715.45 340.75 491.29 670.58 910.85 568.85 1124.03 538.83 1076.11 715.96 955.69 836.48 1127.21 809.29
00006764 00000132 717.89 343.89 490.16 669.24 913.97 573.76 1125.45 543.01 1080.60 717.17 959.19 838.17 1130.69 810.59
00006765 00000133 719.98 345.15 488.31 669.60 917.83 577.99 1127.63 544.34 1087.40 719.11 961.54 839.38 1133.88 809.63
00006766 00000134 723.74 343.19 486.33 668.63 925.39 578.16 1132.97 541.81 1098.69 713.08 969.23 840.60 1139.42 809.18
00006767 00000135 727.27 350.23 483.87 657.20 929.60 575.01 1135.70 539.02 1104.35 709.12 975.87 840.94 1141.73 809.85
00006768 00000136 728.90 347.93 482.92 653.14 931.84 571.61 1137.55 532.24 1107.32 705.25 979.84 836.26 1146.99 802.22
00006769 00000137 729.59 348.20 484.13 644.82 933.65 568.43 1139.95 525.84 1113.44 700.36 980.48 830.73 1149.35 794.64
00006770 00000138 730.58 346.05 486.32 640.46 937.27 565.20 1143.41 519.84 1119.82 696.08 984.43 826.62 1153.99 788.75
00006771 00000139 734.88 350.42 485.22 632.45 941.69 562.08 1146.46 515.78 1126.27 691.17 988.94 822.75 1158.84 784.46
00006772 00000140 738.79 345.86 482.29 629.98 944.68 559.52 1150.28 514.48 1127.44 687.16 995.00 819.75 1166.00 782.49
00006773 00000141 742.67 349.76 478.17 617.46 950.20 554.27 1152.90 512.21 1132.23 682.37 1003.27 814.86 1168.70 779.63
00006774 00000142 749.64 334.61 476.82 627.20 958.09 553.29 1158.57 505.43 1141.46 675.43 1009.58 811.88 1172.35 772.38
00006775 00000143 753.99 316.04 479.68 643.46 962.23 548.88 1157.30 509.49 1143.05 676.17 1008.29 800.96 1172.15 769.43
00006776 00000144 756.41 317.16 484.93 633.00 969.64 537.37 1161.26 501.41 1147.17 666.18 1011.00 786.66 1175.18 757.59
00006777 00000145 759.19 312.43 486.98 631.81 975.26 530.60 1164.31 496.88 1148.79 656.37 1016.21 774.95 1179.88 747.19
00006778 00000146 761.64 313.46 487.09 629.61 973.65 527.68 1165.86 493.33 1147.95 653.77 1015.34 774.05 1181.00 745.69
00006779 00000147 762.84 313.85 486.87 629.81 973.38 529.75 1166.02 493.09 1147.25 656.00 1014.65 774.38 1181.76 744.08
00006780 00000148 765.22 308.25 486.84 635.76 977.21 534.28 1167.40 494.46 1152.84 657.42 1019.66 776.21 1185.70 743.28
00006781 00000149 767.95 308.26 485.42 638.06 979.11 538.70 1168.61 494.24 1158.54 658.82 1018.56 778.13 1187.29 741.82
00006782 00000150 771.17 308.58 485.42 641.34 980.68 543.72 1171.86 498.37 1159.55 664.62 1018.88 782.94 1189.29 746.12
00006783 00000151 773.39 322.08 491.66 632.47 989.77 546.23 1183.13 501.47 1165.27 667.80 1028.92 784.53 1198.91 746.26
00006784 00000152 780.45 322.52 484.03 629.94 996.72 542.04 1188.39 504.24 1168.40 666.95 1035.50 784.17 1200.57 751.76
00006785 00000153 780.87 327.15 483.46 611.72 1000.65 539.46 1189.40 501.66 1173.98 662.65 1035.06 774.92 1199.45 743.22
00006786 00000154 784.35 332.53 477.28 596.45 999.35 529.81 1190.90 495.45 1174.40 652.58 1031.64 764.85 1202.55 736.11
00006787 00000155 784.61 299.74 475.68 619.22 994.78 511.28 1196.88 487.45 1170.91 639.74 1032.96 753.61 1204.51 732.63
00006788 00000156 780.05 306.34 475.87 598.58 990.61 503.18 1191.77 478.53 1167.32 630.92 1034.73 741.41 1203.76 719.51
00006789 00000157 779.31 302.64 474.40 598.36 992.18 503.73 1189.56 475.22 1168.42 628.16 1039.65 742.84 1202.66 717.69
00006790 00000158 780.10 303.07 473.72 601.21 990.97 506.77 1189.96 480.92 1167.15 630.95 1039.88 747.91 1202.06 724.68
00006791 00000159 782.69 309.60 471.81 598.22 992.05 512.14 1188.94 484.69 1166.45 639.85 1039.11 753.03 1199.91 728.77
00006792 00000160 782.23 311.59 471.30 599.51 991.70 518.85 1187.55 492.04 1164.69 641.85 1039.36 756.25 1198.73 732.52
00006793 00000161 781.70 308.88 470.34 606.24 988.30 516.29 1184.95 488.97 1160.38 639.76 1039.90 759.82 1198.14 735.16
00006794 00000162 781.33 297.27 467.86 617.12 984.01 510.65 1185.74 488.09 1154.57 635.14 1036.94 758.68 1197.30 737.43
00006795 00000163 775.44 289.14 469.22 621.82 981.59 505.94 1181.31 488.65 1148.67 629.64 1031.17 752.30 1190.82 735.31
00006796 00000164 772.28 294.84 468.82 607.88 975.70 501.52 1176.58 485.85 1141.10 622.49 1026.66 746.87 1187.53 731.05
00006797 00000165 774.15 295.47 456.33 592.75 961.85 505.22 1165.03 476.85 1131.78 615.11 1019.68 748.60 1178.05 723.45
00006798 00000166 766.01 299.86 457.59 589.67 954.41 506.71 1156.91 474.32 1124.78 615.44 1015.36 749.29 1175.19 720.26
