Video ID: 	JjoWxizFAV0
H: 	1080
W: 	1920
FPS: 	25.0

FRAME INDEX X0 Y0 W H [Landmarks (5 Points)]

00005248 00000000 1152.15 129.14 415.18 653.90 1271.13 383.14 1470.67 392.59 1387.29 477.50 1286.24 615.57 1447.65 623.26
00005249 DELETE   1139.89 132.13 423.58 653.09 1255.61 385.37 1459.73 393.08 1370.99 478.40 1275.07 618.98 1442.38 624.63
00005250 00000002 1130.19 129.36 413.52 657.46 1243.76 386.89 1446.59 393.20 1362.53 481.65 1264.80 620.62 1431.81 624.65
00005251 00000003 1117.85 135.68 409.09 650.45 1228.12 387.46 1430.99 387.53 1344.88 485.75 1248.74 622.52 1416.20 622.19
00005252 00000004 1106.28 134.03 410.12 648.49 1215.35 392.88 1417.56 390.79 1327.98 487.59 1236.18 622.82 1401.21 621.06
00005253 DELETE   1098.96 143.80 404.71 629.17 1202.81 405.74 1397.83 391.62 1311.44 487.56 1233.36 622.19 1393.40 611.70
00005254 00000006 1086.12 141.78 409.75 638.71 1190.53 407.07 1387.88 393.56 1305.36 490.02 1221.71 623.83 1387.84 613.41
00005255 00000007 1078.05 142.90 413.11 629.57 1180.09 407.60 1381.44 392.65 1297.18 495.18 1217.51 626.40 1383.88 614.43
00005256 00000008 1075.98 143.20 411.41 635.65 1174.26 408.55 1375.27 387.30 1293.35 496.60 1221.87 634.77 1384.40 616.72
00005257 00000009 1074.72 141.31 411.05 637.94 1169.62 404.01 1375.90 386.86 1286.61 494.10 1210.51 630.31 1383.49 615.30
00005258 00000010 1072.04 140.07 414.51 631.81 1166.47 399.29 1372.51 383.13 1281.17 494.25 1208.53 629.38 1376.84 614.52
00005259 00000011 1070.58 137.50 414.62 629.99 1164.56 399.67 1370.19 383.50 1277.78 497.03 1206.06 627.24 1374.25 612.07
00005260 00000012 1067.84 136.20 412.28 634.75 1161.60 396.93 1366.76 380.56 1274.10 494.68 1202.91 627.64 1368.70 612.14
00005261 00000013 1063.85 137.67 413.13 639.79 1158.01 397.47 1361.34 379.55 1269.72 496.04 1202.59 634.34 1357.36 618.30
00005262 00000014 1058.82 141.66 416.34 643.99 1154.36 401.15 1355.41 381.65 1267.50 499.83 1201.16 640.90 1353.27 623.99
00005263 00000015 1058.03 144.35 413.83 645.57 1153.92 409.11 1351.19 388.49 1268.27 506.50 1201.98 646.89 1351.87 629.71
00005264 00000016 1056.56 150.36 414.55 640.18 1153.15 414.49 1348.31 391.45 1268.20 514.80 1204.42 650.88 1352.83 631.59
00005265 00000017 1056.93 154.39 413.33 635.60 1152.95 419.41 1348.67 395.40 1268.39 518.21 1205.57 653.33 1355.79 632.98
00005266 00000018 1057.42 155.34 412.83 635.20 1153.76 422.02 1348.44 397.22 1269.33 520.59 1207.66 653.69 1357.48 632.86
00005267 00000019 1057.23 155.55 415.77 634.70 1153.67 422.41 1348.78 395.57 1270.16 520.06 1209.85 654.40 1359.86 631.97
00005268 00000020 1057.59 156.47 416.34 635.43 1153.37 423.06 1347.82 395.92 1269.08 520.95 1209.39 655.46 1359.04 632.76
00005269 00000021 1056.35 158.01 416.58 640.76 1153.74 423.59 1344.75 396.08 1269.24 522.42 1212.18 660.62 1355.97 637.71
00005270 00000022 1054.95 165.19 416.13 645.83 1154.91 425.43 1348.84 396.73 1274.69 521.73 1216.66 669.16 1353.16 644.98
00005271 00000023 1053.94 168.20 415.65 642.41 1152.66 428.18 1345.12 399.99 1270.96 525.00 1214.88 672.33 1348.13 648.82
00005272 00000024 1053.75 161.78 414.12 638.66 1151.31 429.95 1340.15 403.45 1263.44 529.04 1207.55 665.41 1349.17 644.14
00005273 00000025 1053.96 163.07 417.08 630.67 1147.14 433.92 1340.60 405.70 1258.32 532.73 1202.30 659.59 1355.47 636.84
00005274 00000026 1051.93 164.13 416.78 625.40 1142.69 436.20 1341.78 407.78 1255.26 534.53 1196.24 657.14 1357.86 633.79
00005275 00000027 1048.44 166.36 418.84 620.34 1140.52 437.71 1340.40 408.09 1254.31 534.92 1195.32 654.96 1358.41 630.87
00005276 00000028 1047.88 168.28 417.85 616.94 1138.31 438.89 1337.35 408.16 1252.05 534.91 1195.67 656.94 1356.58 631.89
00005277 00000029 1045.73 169.88 417.46 616.70 1136.81 439.97 1336.87 408.50 1251.80 536.81 1195.08 657.38 1357.45 631.58
00005278 00000030 1042.56 172.23 420.14 618.61 1133.36 441.21 1333.49 408.26 1249.12 540.61 1192.54 659.01 1356.40 631.77
00005279 00000031 1041.02 172.69 418.82 628.57 1128.47 444.11 1326.98 407.65 1245.49 544.01 1191.85 665.84 1353.99 635.61
00005280 00000032 1035.15 173.48 422.42 634.17 1120.73 446.03 1316.00 407.24 1238.26 547.66 1190.46 672.21 1348.73 640.00
00005281 00000033 1026.46 176.05 425.26 640.94 1115.07 450.71 1303.64 409.21 1230.48 547.81 1186.98 676.91 1339.93 643.13
00005282 00000034 1021.80 176.49 420.66 644.11 1106.40 454.48 1293.25 409.90 1221.34 546.42 1180.03 681.71 1329.18 646.17
00005283 00000035 1007.16 187.25 420.61 628.00 1090.61 463.39 1283.03 408.05 1207.29 555.10 1167.56 689.41 1322.87 642.68
00005284 00000036 999.55 191.69 426.11 622.98 1084.11 469.29 1270.71 413.50 1196.60 558.87 1164.11 689.61 1315.45 642.93
00005285 00000037 993.88 192.28 429.52 621.11 1077.34 470.48 1263.97 415.49 1190.60 560.26 1160.39 689.59 1310.35 643.61
00005286 00000038 988.21 186.24 437.91 628.57 1067.63 465.57 1253.51 409.40 1180.05 562.18 1152.75 684.64 1302.79 637.14
00005287 00000039 983.10 188.05 436.20 627.33 1059.08 467.57 1247.55 408.53 1171.67 564.64 1144.46 685.27 1300.97 635.46
00005288 00000040 978.08 191.41 441.55 623.56 1055.29 469.87 1243.76 408.72 1167.40 567.37 1143.24 686.42 1299.22 635.12
00005289 00000041 973.93 193.33 444.46 619.61 1054.14 472.65 1242.95 409.31 1168.25 569.15 1145.52 687.15 1301.11 634.09
00005290 00000042 974.47 194.69 449.39 617.44 1056.51 474.55 1245.00 409.73 1170.36 570.97 1149.41 687.63 1304.16 633.18
00005291 00000043 974.98 199.27 444.74 613.51 1058.88 479.63 1248.71 410.76 1179.01 567.21 1155.74 695.33 1311.89 637.63
00005292 00000044 976.77 202.13 447.38 612.39 1063.31 478.93 1251.70 409.72 1183.15 565.56 1162.52 695.97 1315.68 637.57
00005293 00000045 977.65 204.55 445.68 609.94 1066.67 481.55 1252.45 411.62 1186.22 565.36 1165.41 696.18 1317.34 637.26
00005294 00000046 977.39 207.38 446.88 608.55 1067.80 484.32 1252.27 412.98 1187.36 567.87 1167.50 697.60 1319.05 637.35
00005295 00000047 978.21 207.41 444.16 608.18 1069.34 485.66 1252.34 413.90 1189.69 568.36 1171.10 698.28 1320.99 637.56
00005296 00000048 976.49 208.08 443.65 611.35 1068.66 485.18 1250.93 413.42 1189.28 568.55 1171.16 699.61 1319.93 638.92
00005297 00000049 975.48 213.87 443.18 606.63 1069.02 485.08 1248.57 413.92 1188.30 570.03 1172.74 700.34 1318.37 640.16
00005298 00000050 975.91 218.49 442.74 601.44 1069.90 487.22 1248.90 415.89 1189.50 571.68 1173.09 701.32 1319.75 640.94
00005299 00000051 976.77 218.68 441.07 600.47 1069.56 487.72 1249.22 416.15 1189.34 572.22 1172.02 700.85 1319.88 640.16
00005300 00000052 975.18 218.81 442.91 597.52 1068.63 486.79 1247.92 414.78 1188.22 570.81 1171.08 698.60 1318.88 637.60
00005301 00000053 973.29 214.07 443.24 599.50 1067.69 485.69 1248.37 413.66 1187.75 566.60 1168.44 695.45 1317.74 634.63
00005302 00000054 971.96 212.16 444.86 599.22 1066.09 485.24 1248.02 412.74 1186.46 566.15 1166.63 694.17 1317.03 633.10
00005303 00000055 971.52 211.72 444.09 600.52 1065.91 485.95 1247.41 412.31 1186.49 564.87 1165.78 693.95 1317.63 631.87
00005304 00000056 970.76 210.37 443.11 603.27 1065.57 486.06 1245.86 412.30 1185.97 565.33 1165.88 694.32 1317.34 632.16
00005305 00000057 969.52 208.92 443.68 604.79 1064.69 487.02 1244.56 412.18 1185.19 567.75 1165.47 692.81 1317.18 629.84
00005306 00000058 968.81 207.29 442.49 607.99 1063.48 486.11 1243.14 411.60 1184.07 567.70 1164.61 693.28 1316.36 630.64
00005307 00000059 971.61 205.17 440.65 612.71 1062.84 479.61 1242.60 406.86 1182.43 571.75 1168.12 691.15 1314.70 630.50
00005308 00000060 969.01 204.46 437.78 618.63 1062.98 481.70 1240.66 410.00 1183.96 568.93 1171.77 701.73 1309.00 642.29
00005309 00000061 973.77 203.48 432.52 616.22 1064.02 479.35 1244.14 409.74 1182.85 578.27 1170.80 696.17 1312.75 638.22
00005310 00000062 971.03 205.02 430.71 612.93 1062.97 481.55 1242.66 413.04 1184.87 574.01 1169.03 698.84 1308.71 641.95
00005311 00000063 970.90 206.51 431.92 609.61 1062.53 482.52 1242.15 412.34 1183.93 571.44 1167.21 696.21 1309.08 637.98
00005312 00000064 973.66 204.48 430.25 608.39 1062.59 480.46 1242.78 409.69 1181.15 574.58 1164.88 688.92 1312.01 629.99
00005313 00000065 969.68 208.12 438.29 606.97 1059.50 484.18 1242.02 410.69 1180.84 568.13 1162.65 695.75 1311.07 634.52
00005314 00000066 969.02 208.31 440.78 606.32 1059.26 484.44 1242.56 410.97 1180.38 567.87 1161.22 695.93 1311.24 634.57
00005315 00000067 971.29 201.13 439.58 608.66 1059.06 480.60 1243.17 409.79 1177.22 572.42 1160.13 689.14 1309.88 630.08
00005316 00000068 969.68 198.34 443.22 608.37 1058.30 479.02 1243.67 407.55 1176.94 571.88 1159.12 687.06 1310.50 627.49
00005317 00000069 970.64 196.78 440.26 607.00 1056.92 476.76 1244.27 404.53 1177.80 570.82 1157.77 685.66 1311.77 625.35
00005318 00000070 971.98 195.83 435.00 608.15 1056.38 474.63 1244.88 402.40 1181.18 569.49 1153.78 682.54 1312.70 622.12
00005319 00000071 971.91 194.69 430.52 612.15 1056.26 471.65 1245.85 400.32 1184.18 570.23 1150.82 679.57 1315.19 619.54
00005320 00000072 974.58 190.68 427.40 619.63 1058.37 470.92 1247.66 400.47 1187.11 568.72 1153.00 681.93 1315.70 622.47
00005321 00000073 976.39 191.18 422.65 624.27 1060.82 470.60 1249.12 403.33 1189.59 570.39 1157.78 687.13 1314.11 630.39
00005322 00000074 975.75 193.64 422.51 624.77 1060.76 471.81 1250.94 404.36 1190.38 575.21 1159.13 690.32 1315.83 633.35
00005323 00000075 974.59 191.47 420.74 628.08 1060.56 476.77 1252.98 409.49 1193.61 574.79 1161.01 699.40 1315.18 642.90
00005324 00000076 973.60 194.26 420.22 629.09 1060.49 481.16 1250.51 414.72 1192.63 579.62 1158.04 701.25 1312.57 645.60
00005325 00000077 970.35 201.84 425.80 627.78 1057.51 486.22 1245.97 420.58 1186.56 587.31 1154.33 704.64 1310.49 649.56
00005326 00000078 968.46 214.67 441.14 620.90 1056.21 493.14 1243.68 421.55 1180.58 587.23 1151.25 704.94 1316.29 644.48
00005327 00000079 966.25 217.27 443.50 623.19 1055.76 496.30 1243.97 425.50 1179.36 590.56 1145.32 702.20 1320.54 642.02
00005328 00000080 967.79 214.38 441.18 629.35 1056.50 499.67 1242.83 427.59 1179.89 594.52 1148.44 706.20 1320.76 645.01
00005329 00000081 969.67 215.07 438.71 626.98 1056.39 496.71 1242.11 428.24 1177.45 595.72 1152.50 710.51 1314.40 652.65
00005330 00000082 969.64 216.78 440.84 619.24 1057.04 493.91 1241.77 427.41 1175.76 591.84 1152.98 708.10 1309.81 652.14
00005331 00000083 968.08 218.53 443.92 611.58 1054.80 491.28 1242.17 425.35 1174.67 589.59 1150.23 705.80 1307.08 650.75
00005332 00000084 967.91 218.30 443.51 608.21 1053.83 490.87 1242.24 424.33 1174.49 588.20 1147.70 703.36 1306.14 647.77
00005333 00000085 968.54 218.10 443.52 607.89 1053.80 492.08 1241.67 424.46 1174.16 586.43 1144.64 700.24 1307.73 643.49
00005334 00000086 968.37 218.28 443.88 608.48 1054.24 491.78 1241.68 423.93 1174.27 584.83 1145.23 699.70 1308.04 642.72
00005335 00000087 970.79 213.50 437.27 616.20 1057.22 485.40 1243.93 422.78 1177.28 584.46 1153.98 704.06 1304.20 651.57
00005336 00000088 975.83 208.10 425.18 619.74 1060.18 479.92 1247.93 423.57 1181.25 587.09 1156.26 705.32 1299.49 658.63
00005337 00000089 978.22 202.56 425.24 622.91 1061.23 477.60 1250.70 420.49 1183.03 583.37 1155.34 701.77 1303.66 654.13
00005338 00000090 980.49 200.30 429.21 621.73 1063.12 476.21 1252.79 417.16 1182.62 573.60 1152.76 695.96 1307.85 646.26
00005339 00000091 982.97 196.48 428.32 619.63 1064.96 474.20 1254.55 415.60 1182.78 565.70 1149.65 689.97 1310.28 640.51
00005340 00000092 987.42 192.22 427.17 620.82 1067.99 466.76 1252.18 412.50 1180.58 563.28 1147.78 680.39 1301.82 634.34
00005341 00000093 987.34 194.00 430.08 617.40 1071.07 469.94 1260.20 414.81 1186.17 558.29 1150.12 685.38 1308.77 638.88
00005342 00000094 990.52 187.35 428.47 623.70 1071.59 463.13 1256.16 410.28 1183.74 558.04 1149.31 678.21 1302.29 633.46
00005343 00000095 990.69 189.46 429.80 616.41 1073.67 467.04 1264.90 411.79 1188.55 553.40 1149.92 681.80 1311.52 634.96
00005344 00000096 994.23 188.59 428.08 612.58 1074.85 458.77 1260.93 408.57 1185.08 553.47 1149.86 672.89 1302.34 630.33
00005345 00000097 994.24 185.30 430.61 611.81 1075.97 458.49 1262.72 408.09 1186.09 552.19 1150.51 670.07 1303.74 627.17
00005346 00000098 995.47 184.74 429.84 611.82 1078.65 457.34 1264.73 406.69 1189.89 549.94 1153.31 669.29 1305.88 626.08
00005347 00000099 997.27 184.34 428.67 611.15 1080.01 456.46 1266.94 405.91 1190.29 548.77 1153.73 668.78 1307.56 625.53
00005348 00000100 996.40 184.78 431.17 609.77 1082.74 457.18 1275.41 404.00 1196.72 545.44 1158.78 671.73 1319.29 625.39
00005349 00000101 1002.54 180.75 426.50 617.88 1086.97 451.58 1273.14 401.88 1196.54 544.35 1158.41 666.34 1313.57 623.64
00005350 00000102 999.42 180.02 431.62 614.98 1089.61 453.54 1280.08 401.09 1203.33 541.73 1164.45 668.23 1321.97 622.17
00005351 00000103 999.70 178.02 432.03 616.06 1092.16 450.46 1283.10 399.65 1207.88 540.57 1168.85 668.50 1321.12 624.07
00005352 00000104 1002.16 176.26 432.09 616.12 1094.40 449.83 1285.89 398.01 1210.75 538.61 1170.72 668.02 1322.84 622.68
00005353 00000105 1007.65 174.57 430.33 619.24 1096.24 446.48 1284.75 399.04 1208.66 540.14 1170.09 667.13 1319.40 626.14
00005354 00000106 1006.19 171.67 432.23 618.20 1096.47 443.31 1286.65 396.72 1211.19 539.36 1169.37 662.91 1320.94 622.40
00005355 00000107 1005.91 169.87 434.08 614.63 1096.03 441.91 1288.51 396.71 1210.78 538.66 1165.69 658.53 1320.69 619.02
00005356 00000108 1008.43 169.08 431.13 614.85 1097.64 440.56 1290.23 395.43 1212.03 536.67 1166.07 657.28 1322.31 617.72
00005357 00000109 1009.86 164.53 433.11 621.39 1098.77 439.38 1292.02 394.54 1213.06 533.67 1167.69 657.95 1323.35 618.50
00005358 00000110 1018.61 160.60 428.75 628.96 1101.29 436.22 1300.58 393.84 1219.60 524.96 1170.75 654.97 1330.50 620.53
00005359 00000111 1023.84 164.43 425.41 629.73 1110.28 449.30 1297.38 405.64 1220.63 522.98 1175.87 659.90 1329.75 624.61
00005360 00000112 1022.17 165.15 425.69 632.77 1109.17 444.31 1300.67 402.54 1222.59 522.37 1175.21 660.60 1331.40 626.81
00005361 00000113 1020.55 162.86 426.29 635.93 1105.86 436.17 1303.07 394.65 1224.79 523.91 1175.15 660.96 1331.25 627.58
00005362 00000114 1020.86 164.03 427.52 635.82 1106.39 433.75 1304.95 392.35 1225.24 525.00 1175.52 661.82 1330.76 628.71
00005363 00000115 1021.95 162.62 428.19 637.81 1108.04 432.39 1305.25 391.27 1226.09 525.48 1177.37 661.91 1331.57 628.98
00005364 00000116 1023.24 162.64 426.85 637.78 1109.32 432.45 1306.50 392.09 1227.11 526.17 1178.12 662.53 1332.75 630.22
00005365 00000117 1023.86 165.09 425.27 636.22 1110.11 433.17 1307.38 392.80 1228.13 527.62 1179.27 664.46 1333.01 632.27
00005366 00000118 1024.70 168.45 425.63 633.81 1111.50 433.39 1307.29 394.21 1228.65 528.69 1180.02 665.10 1332.45 633.91
00005367 00000119 1024.58 168.09 427.25 634.33 1111.63 433.53 1307.89 395.26 1227.29 529.94 1179.09 665.32 1332.15 634.89
00005368 00000120 1025.97 169.12 425.41 634.04 1111.79 433.28 1308.16 395.59 1226.75 530.47 1179.08 666.05 1331.61 636.16
00005369 00000121 1025.71 168.54 426.89 634.06 1112.06 433.32 1307.87 395.81 1226.39 530.93 1179.17 665.66 1331.63 635.87
00005370 00000122 1025.89 168.58 425.18 633.13 1112.10 432.28 1308.43 395.17 1227.38 530.49 1179.04 664.44 1332.02 634.98
00005371 00000123 1026.09 166.52 426.60 636.52 1111.84 432.33 1309.02 394.08 1228.35 530.66 1179.12 665.41 1333.79 634.88
00005372 00000124 1026.71 168.04 426.52 639.20 1113.33 430.69 1309.01 392.68 1230.31 528.78 1178.50 662.63 1336.78 632.08
00005373 00000125 1027.91 166.30 428.81 646.06 1114.32 429.99 1308.90 391.15 1229.92 528.81 1178.30 661.39 1340.82 629.88
00005374 00000126 1028.95 167.85 428.15 645.63 1115.15 429.80 1310.54 391.73 1230.86 528.71 1178.30 660.84 1343.92 629.75
00005375 00000127 1031.44 167.30 427.53 645.53 1117.06 433.01 1313.74 395.27 1231.17 532.49 1178.19 660.75 1347.52 629.47
00005376 00000128 1033.86 169.15 424.05 639.53 1118.12 438.05 1315.99 402.71 1231.07 540.39 1177.60 660.87 1348.59 631.37
00005377 00000129 1034.61 171.47 424.51 630.99 1117.74 441.61 1316.58 407.28 1230.52 543.59 1175.46 658.97 1347.99 630.29
00005378 00000130 1033.18 169.28 422.95 627.09 1115.78 437.85 1316.12 404.11 1229.01 539.59 1172.73 653.91 1346.72 625.77
00005379 00000131 1031.37 164.41 425.54 626.21 1113.09 431.35 1315.12 395.58 1227.71 532.44 1171.10 649.68 1347.43 619.78
00005380 00000132 1028.67 158.74 425.78 627.87 1112.16 424.04 1314.13 388.37 1229.45 525.85 1172.01 645.18 1347.05 615.16
00005381 00000133 1027.12 155.99 426.57 621.63 1111.21 420.94 1315.66 385.19 1228.86 521.83 1171.32 641.40 1344.38 611.11
00005382 00000134 1026.18 154.51 425.14 616.62 1110.98 418.49 1316.60 382.69 1228.50 519.10 1173.00 640.07 1340.91 609.76
00005383 00000135 1028.50 153.23 416.73 621.41 1113.94 417.88 1314.96 384.98 1228.93 517.64 1175.94 642.61 1331.15 615.57
00005384 00000136 1026.89 156.21 414.25 626.99 1113.28 424.39 1311.52 387.38 1226.61 528.38 1172.01 653.83 1327.54 622.43
00005385 00000137 1024.89 155.47 417.98 642.48 1111.77 422.02 1310.21 385.55 1226.06 528.25 1173.64 660.10 1328.29 628.47
00005386 00000138 1024.48 154.08 423.53 643.01 1107.38 420.70 1310.62 384.24 1226.01 521.48 1170.75 655.87 1330.19 626.22
00005387 00000139 1025.47 157.37 421.36 643.40 1106.58 422.26 1311.66 388.13 1224.21 525.01 1164.25 656.50 1335.09 628.53
00005388 00000140 1027.39 162.83 423.19 639.42 1108.24 424.61 1311.72 391.98 1222.03 527.70 1162.87 654.81 1338.24 627.95
00005389 00000141 1029.75 163.21 422.32 636.05 1109.90 426.07 1313.78 396.06 1220.73 530.11 1159.99 650.60 1338.42 625.75
00005390 00000142 1031.60 162.30 420.81 636.19 1112.32 427.70 1314.84 399.24 1222.59 532.83 1160.56 648.40 1339.64 624.65
00005391 00000143 1032.94 164.60 419.06 636.83 1114.33 429.56 1316.88 402.13 1224.05 535.61 1161.76 650.05 1340.55 627.22
00005392 00000144 1036.06 165.77 414.25 640.71 1117.64 431.35 1319.73 405.86 1226.37 540.59 1163.05 653.41 1340.73 632.21
00005393 00000145 1038.72 165.76 415.37 645.58 1120.77 434.06 1320.37 410.32 1229.18 547.14 1165.84 657.17 1341.70 637.40
00005394 00000146 1041.38 172.73 417.65 644.46 1123.49 438.16 1322.79 415.87 1231.17 553.98 1166.35 661.46 1342.74 642.70
00005395 00000147 1042.31 172.86 415.80 645.20 1125.79 440.07 1324.21 419.29 1232.43 557.61 1165.40 661.19 1342.39 643.73
00005396 00000148 1043.05 172.49 410.55 637.12 1127.84 441.15 1328.61 421.86 1236.86 558.12 1165.67 657.30 1342.90 641.11
00005397 00000149 1042.86 173.89 414.43 637.99 1131.64 442.11 1330.73 424.97 1238.64 556.81 1162.87 652.75 1342.33 638.42
00005398 00000150 1042.42 175.18 414.58 634.83 1131.88 439.78 1330.14 421.58 1239.98 554.73 1166.47 653.87 1343.60 638.66
00005399 00000151 1044.29 175.82 410.31 642.18 1132.87 440.69 1332.65 422.35 1242.88 559.08 1174.03 664.61 1342.64 649.43
00005400 00000152 1046.30 178.00 409.36 644.92 1134.64 441.06 1332.36 424.80 1242.98 562.93 1182.30 676.85 1335.75 664.11
00005401 00000153 1047.52 178.88 411.58 645.79 1135.00 442.27 1333.55 425.80 1244.14 566.46 1182.41 680.06 1335.76 667.17
00005402 00000154 1049.16 179.21 409.50 645.71 1136.37 442.00 1334.92 426.01 1245.54 567.20 1184.50 680.59 1336.31 668.08
00005403 00000155 1051.86 179.00 409.84 643.38 1140.67 444.46 1337.13 427.16 1249.82 567.00 1188.04 679.16 1340.11 665.53
00005404 00000156 1051.43 177.35 414.89 648.64 1141.72 445.24 1341.15 426.00 1253.36 565.54 1186.20 677.16 1348.25 661.41
00005405 00000157 1051.68 185.82 407.90 640.67 1141.98 445.47 1345.50 427.31 1258.53 565.53 1189.48 685.15 1343.33 669.10
00005406 00000158 1053.30 185.89 409.81 638.86 1142.19 443.32 1345.92 426.88 1257.40 566.69 1185.98 680.11 1343.08 665.58
00005407 00000159 1053.54 185.35 409.75 637.89 1143.31 442.24 1346.55 428.05 1256.79 565.29 1185.68 678.41 1339.37 665.72
00005408 00000160 1052.48 187.09 413.72 634.53 1140.24 448.53 1340.11 429.26 1253.48 564.56 1185.96 674.57 1348.49 657.39
00005409 00000161 1051.37 180.04 413.57 638.32 1137.13 450.95 1330.21 431.73 1240.51 569.17 1179.99 667.61 1344.28 651.44
00005410 DELETE   1045.01 177.27 413.77 639.24 1124.02 451.00 1320.06 428.48 1227.85 570.68 1175.07 674.82 1336.70 656.01
