Video ID: 	djcre6yIQO4
H: 	2160
W: 	3840
FPS: 	24.0

FRAME INDEX X0 Y0 W H [Landmarks (5 Points)]

00102296 00000000 1909.43 338.64 550.64 805.19 2103.92 683.22 2319.74 679.23 2229.75 804.27 2133.39 940.23 2302.82 935.42
00102297 00000001 1908.38 338.52 549.02 804.02 2101.52 681.55 2319.04 677.53 2228.63 802.97 2133.68 940.22 2303.94 935.31
00102298 00000002 1903.34 336.73 556.10 798.82 2100.36 682.74 2316.64 678.16 2221.97 806.70 2129.10 935.03 2291.72 933.74
00102299 DELETE   1906.47 335.88 555.60 803.97 2099.10 679.66 2315.73 680.31 2214.90 803.38 2120.63 931.50 2285.60 935.00
00102300 DELETE   1911.65 332.48 553.54 806.78 2096.33 678.67 2314.03 684.72 2207.32 802.20 2110.17 928.68 2277.69 937.55
00102301 00000005 1914.42 329.49 552.23 811.25 2094.03 678.44 2312.42 689.80 2200.85 805.73 2102.55 929.33 2270.55 942.97
00102302 00000006 1922.83 335.24 548.92 806.97 2093.77 679.62 2311.21 695.86 2193.54 809.49 2097.10 931.57 2263.91 949.36
00102303 00000007 1926.83 333.03 549.41 810.52 2089.96 681.19 2308.32 702.82 2183.62 822.10 2087.69 935.82 2254.68 958.12
00102304 00000008 1931.04 336.94 546.23 811.26 2088.82 684.49 2304.28 709.78 2175.70 830.73 2086.52 941.36 2249.13 966.43
00102305 00000009 1938.45 340.79 542.65 807.31 2088.86 684.44 2303.07 712.23 2169.31 839.15 2085.38 942.91 2249.20 969.62
00102306 00000010 1939.42 337.68 541.39 810.01 2088.62 684.10 2304.84 711.86 2171.47 837.85 2082.90 941.86 2249.62 968.79
00102307 00000011 1938.66 334.66 544.45 806.81 2092.51 681.21 2310.13 706.59 2179.74 831.23 2088.91 938.37 2257.14 963.05
00102308 00000012 1936.30 335.21 546.89 805.66 2099.15 679.05 2316.19 701.16 2191.22 818.33 2095.68 932.74 2264.28 955.17
00102309 00000013 1940.17 351.70 540.30 771.50 2099.81 679.64 2317.85 694.66 2194.97 808.99 2104.82 923.39 2267.74 941.20
00102310 00000014 1933.07 330.99 546.13 800.68 2103.65 675.63 2320.15 690.18 2204.61 804.93 2107.52 924.27 2276.45 940.24
00102311 00000015 1929.83 332.49 543.15 804.47 2104.77 673.02 2321.28 685.57 2209.65 796.24 2110.06 921.67 2280.00 935.86
00102312 00000016 1926.91 339.54 545.91 798.79 2101.50 668.40 2322.84 678.32 2212.05 785.74 2113.66 924.86 2291.92 933.39
00102313 00000017 1919.40 334.80 547.22 803.79 2097.66 665.98 2320.09 672.83 2212.83 786.83 2114.48 924.67 2294.37 929.94
00102314 00000018 1913.55 327.90 548.28 804.95 2095.75 662.68 2318.76 666.54 2212.86 782.75 2118.71 921.26 2297.61 923.70
00102315 00000019 1906.82 315.16 549.68 818.07 2093.52 660.60 2311.41 660.09 2211.01 781.44 2118.84 916.15 2284.55 918.59
00102316 00000020 1903.42 312.27 550.19 822.36 2086.21 656.19 2307.04 655.83 2204.03 772.65 2111.58 911.66 2281.11 914.31
00102317 00000021 1906.00 319.00 543.39 803.29 2081.83 648.13 2308.61 651.97 2198.81 768.28 2102.55 906.51 2287.66 909.29
00102318 00000022 1902.78 315.60 543.96 796.54 2072.47 642.12 2303.68 645.03 2189.98 759.33 2096.13 901.42 2279.02 904.34
00102319 00000023 1896.74 306.63 545.37 788.98 2058.85 634.99 2283.65 631.16 2170.85 748.43 2086.06 887.32 2262.83 886.62
00102320 DELETE   1896.42 315.03 542.38 770.91 2043.88 627.60 2267.17 621.60 2146.20 743.41 2072.24 883.82 2246.91 881.17
00102321 DELETE   1897.71 313.31 531.69 745.97 2030.24 623.55 2250.88 617.07 2129.37 734.99 2054.91 872.61 2220.45 869.87
00102322 00000026 1884.49 315.77 534.26 767.25 2013.48 623.03 2235.94 617.57 2101.99 734.54 2031.65 874.35 2214.64 872.34
00102323 00000027 1885.37 309.46 532.73 777.05 2011.54 622.84 2232.53 616.29 2101.60 732.48 2027.86 873.23 2199.33 870.90
00102324 00000028 1884.51 316.69 535.62 773.03 2008.32 629.41 2229.22 622.04 2095.04 742.74 2026.67 879.22 2194.60 876.44
00102325 00000029 1882.71 320.98 534.18 775.28 2004.43 636.67 2225.85 630.73 2091.23 749.61 2022.22 886.54 2187.38 885.22
00102326 00000030 1885.19 333.13 529.14 770.52 2004.39 645.26 2221.36 637.80 2087.38 756.16 2024.68 895.56 2181.79 893.36
00102327 00000031 1882.36 345.40 533.30 776.44 2003.30 655.05 2219.40 646.65 2083.57 767.67 2023.39 910.78 2183.71 908.13
00102328 00000032 1882.79 363.01 532.29 776.49 2002.33 667.53 2217.35 660.09 2080.57 780.63 2019.44 925.62 2186.98 924.05
00102329 00000033 1882.71 368.32 533.75 778.05 2002.50 677.58 2217.68 671.54 2083.18 788.74 2022.65 933.16 2190.53 932.63
00102330 00000034 1884.26 373.51 529.57 768.47 2004.04 681.19 2216.60 677.46 2084.66 797.54 2023.36 933.57 2189.64 934.58
00102331 00000035 1884.85 375.86 525.82 761.28 2005.54 682.08 2216.38 679.85 2088.16 800.28 2026.22 933.73 2186.15 936.02
00102332 00000036 1884.11 379.21 528.33 760.66 2008.27 678.64 2216.88 675.86 2090.40 790.90 2024.04 931.49 2183.32 931.98
00102333 00000037 1884.29 374.48 525.01 765.33 2004.79 681.62 2216.46 678.83 2087.66 796.33 2021.68 931.96 2186.42 934.16
00102334 00000038 1885.59 374.01 527.56 764.50 2006.25 679.97 2218.40 678.72 2087.25 797.53 2021.17 931.56 2186.73 934.90
00102335 00000039 1887.79 375.83 528.94 772.17 2007.01 679.88 2219.58 679.35 2086.87 797.71 2021.52 935.55 2188.38 939.40
00102336 00000040 1891.79 378.24 529.67 760.11 2013.34 676.01 2223.45 676.07 2094.22 791.20 2025.39 932.79 2187.97 935.92
00102337 00000041 1895.50 374.64 524.54 766.33 2013.45 677.87 2224.38 680.74 2091.87 796.95 2027.30 932.96 2188.88 939.44
00102338 00000042 1896.31 379.91 524.95 767.03 2016.94 673.92 2227.13 672.95 2095.95 784.94 2027.72 932.51 2191.28 935.05
00102339 00000043 1898.38 377.64 520.24 775.15 2015.35 675.98 2223.21 676.17 2091.22 789.70 2029.03 933.64 2192.31 938.11
00102340 00000044 1897.91 378.58 522.30 766.61 2014.22 674.99 2223.39 675.30 2090.37 787.98 2028.79 930.50 2192.03 934.89
00102341 00000045 1896.29 384.91 525.54 756.75 2014.71 669.94 2226.02 670.11 2092.68 779.48 2025.62 925.90 2191.01 929.23
00102342 00000046 1896.25 386.21 525.85 758.31 2013.43 671.36 2225.75 670.11 2090.64 780.26 2025.96 926.95 2194.29 928.95
00102343 00000047 1895.16 387.23 526.96 754.87 2012.19 670.26 2225.53 668.73 2089.20 781.30 2024.73 923.93 2196.86 925.32
00102344 00000048 1893.88 385.56 527.83 761.02 2011.30 668.78 2224.70 666.76 2088.49 781.19 2022.43 925.52 2195.44 926.43
00102345 00000049 1892.71 383.36 526.94 764.60 2010.02 668.36 2223.83 665.43 2087.11 779.75 2021.78 924.11 2196.31 924.22
00102346 00000050 1891.95 381.12 527.76 763.54 2009.83 668.20 2225.01 665.92 2088.62 779.00 2020.95 922.79 2195.36 923.74
00102347 00000051 1892.81 381.62 527.20 761.55 2010.92 668.26 2224.83 667.02 2088.65 781.11 2022.07 921.60 2194.67 923.18
00102348 00000052 1893.21 374.93 527.78 772.13 2009.74 676.88 2220.73 674.55 2083.24 794.70 2026.89 931.79 2197.07 933.57
00102349 00000053 1894.84 378.37 529.65 763.45 2013.10 672.24 2225.26 670.04 2089.53 788.18 2027.74 930.83 2193.62 932.04
00102350 00000054 1890.83 371.39 528.37 782.27 2006.28 675.93 2220.81 675.21 2082.23 794.66 2020.16 937.51 2188.81 940.98
00102351 00000055 1893.61 366.07 526.94 787.42 2005.15 674.46 2219.28 672.58 2076.60 795.07 2018.27 936.06 2188.92 938.54
00102352 00000056 1897.71 363.01 525.91 779.99 2008.89 672.04 2218.21 669.95 2078.51 792.30 2024.25 931.70 2185.36 933.88
00102353 00000057 1897.64 359.25 535.13 790.10 2012.52 669.38 2226.67 665.86 2086.47 787.51 2028.61 933.15 2196.02 934.47
00102354 00000058 1906.14 347.65 532.27 791.28 2018.46 664.89 2232.53 660.54 2092.91 783.03 2036.99 926.44 2202.76 927.17
00102355 00000059 1907.66 342.99 538.77 790.65 2023.09 654.87 2242.04 649.93 2101.38 773.39 2039.00 921.25 2209.77 920.85
00102356 00000060 1909.23 335.93 540.45 800.50 2023.53 649.75 2243.14 645.34 2099.81 766.89 2039.90 919.09 2209.72 919.33
00102357 00000061 1909.10 324.39 543.78 815.05 2019.44 645.65 2247.13 641.01 2099.51 760.61 2036.62 916.54 2215.13 916.85
00102358 00000062 1907.58 316.36 549.18 823.55 2021.04 640.84 2248.28 638.25 2100.60 759.54 2034.70 912.61 2213.27 914.71
00102359 00000063 1908.69 308.95 548.74 836.76 2022.20 637.26 2252.84 634.65 2102.68 755.08 2034.41 911.30 2220.71 913.26
00102360 00000064 1910.91 299.47 556.57 834.64 2026.03 632.10 2256.99 628.23 2107.85 750.13 2043.43 908.39 2224.51 909.41
00102361 00000065 1914.79 297.88 560.22 828.24 2030.56 630.23 2263.20 624.37 2114.25 750.63 2053.06 905.64 2232.52 904.69
00102362 00000066 1917.85 282.59 561.19 857.06 2032.09 626.54 2263.98 618.66 2114.05 753.61 2051.82 908.28 2234.70 906.27
00102363 00000067 1914.00 289.74 566.71 844.95 2024.93 626.36 2262.03 621.03 2105.44 751.44 2042.56 906.99 2230.15 906.53
00102364 00000068 1910.22 288.21 563.02 863.10 2018.07 623.13 2257.45 622.28 2099.40 754.06 2026.86 910.03 2224.58 913.17
00102365 00000069 1912.32 284.66 565.12 859.74 2022.41 618.28 2256.17 615.51 2102.39 748.88 2038.32 905.85 2222.52 907.28
00102366 00000070 1918.79 268.15 564.92 875.84 2029.59 612.55 2258.30 602.36 2104.79 741.52 2050.12 904.57 2231.23 900.34
00102367 00000071 1920.58 260.24 565.95 874.58 2031.33 608.24 2260.69 600.26 2105.25 739.08 2049.29 893.61 2237.71 890.43
00102368 00000072 1920.19 253.80 567.75 882.65 2028.92 605.91 2255.86 609.35 2093.60 743.42 2042.83 887.14 2230.41 891.96
00102369 00000073 1915.89 256.03 570.64 883.47 2024.80 606.41 2252.34 610.79 2088.57 745.97 2037.24 888.51 2227.86 893.65
00102370 00000074 1913.90 259.90 573.61 901.86 2024.30 604.64 2255.27 605.48 2090.57 746.94 2030.25 900.24 2225.24 903.50
00102371 00000075 1914.93 253.83 576.51 920.25 2025.51 610.26 2259.78 610.20 2095.36 750.54 2033.06 911.79 2225.43 915.50
00102372 00000076 1911.67 269.48 586.13 888.42 2025.52 621.96 2266.00 624.53 2098.98 757.94 2035.54 915.81 2225.46 921.89
00102373 00000077 1912.99 254.71 588.62 931.27 2024.53 624.32 2268.40 629.51 2093.86 768.58 2028.90 928.94 2225.23 937.42
00102374 00000078 1916.27 255.22 589.75 935.49 2024.55 627.93 2270.23 633.40 2096.48 772.19 2029.95 936.10 2222.27 945.22
00102375 00000079 1917.30 253.00 590.54 940.35 2027.18 626.06 2272.97 630.17 2098.03 771.27 2037.45 936.79 2228.94 944.79
00102376 00000080 1917.41 268.13 599.65 928.18 2029.53 627.85 2272.24 628.96 2094.58 765.03 2045.72 934.77 2236.33 939.99
00102377 00000081 1916.28 270.73 598.39 921.05 2030.72 627.94 2275.17 632.67 2100.65 768.03 2040.63 936.11 2238.33 943.17
00102378 00000082 1924.41 260.32 602.85 923.30 2035.75 629.55 2280.17 632.28 2104.07 769.69 2046.06 938.33 2224.83 944.71
00102379 00000083 1927.89 256.58 598.52 908.07 2041.35 629.66 2280.90 632.22 2115.33 775.30 2053.72 939.07 2229.70 945.46
00102380 00000084 1927.90 251.81 606.96 923.06 2048.53 627.60 2289.60 631.29 2124.62 780.36 2064.29 939.54 2234.05 946.26
00102381 00000085 1927.97 254.52 607.69 935.57 2048.09 625.02 2294.48 630.54 2123.84 779.56 2058.87 940.53 2241.23 948.28
00102382 00000086 1929.92 257.73 609.90 941.65 2049.43 623.45 2298.63 627.24 2128.27 773.99 2061.69 943.83 2246.29 950.45
00102383 00000087 1935.47 254.68 610.83 936.97 2057.59 622.08 2301.32 625.05 2134.54 770.53 2072.75 938.13 2248.42 944.68
00102384 00000088 1938.22 251.51 609.96 938.46 2061.59 619.79 2304.61 625.36 2136.32 770.14 2073.17 932.43 2253.96 940.70
00102385 00000089 1939.88 250.17 607.91 920.48 2062.76 617.40 2308.15 624.08 2139.35 769.23 2075.87 923.93 2257.02 932.69
00102386 00000090 1935.97 243.78 613.57 926.15 2064.77 614.69 2314.12 621.00 2145.41 764.15 2078.92 920.01 2266.72 928.74
00102387 00000091 1935.45 239.46 617.43 931.07 2066.63 611.50 2316.24 614.91 2149.78 759.42 2083.23 917.56 2271.74 924.26
00102388 00000092 1938.03 234.19 614.47 937.19 2067.37 608.68 2317.32 610.08 2151.43 753.09 2083.75 912.39 2281.05 917.52
00102389 00000093 1938.79 233.20 608.27 933.64 2066.65 604.65 2318.14 605.06 2154.71 747.63 2084.35 907.27 2284.36 911.43
00102390 00000094 1938.65 231.54 611.98 923.99 2064.83 605.90 2312.26 608.22 2147.87 746.15 2084.44 898.84 2286.93 903.17
00102391 00000095 1941.38 229.96 609.07 908.38 2067.91 602.30 2313.09 604.57 2149.47 744.59 2088.86 892.96 2285.68 896.93
00102392 00000096 1942.49 233.47 611.32 912.45 2071.70 600.90 2316.60 603.67 2152.81 738.60 2088.55 890.23 2290.37 894.60
00102393 00000097 1945.67 232.48 605.16 907.88 2076.38 598.08 2317.82 599.97 2156.52 738.55 2095.05 886.53 2294.12 890.13
00102394 00000098 1946.95 226.94 609.52 922.00 2080.05 593.94 2322.70 597.14 2160.49 733.96 2095.03 887.16 2295.78 891.95
00102395 00000099 1952.75 223.51 605.06 923.75 2083.90 592.44 2325.48 595.14 2162.38 731.86 2098.89 884.40 2299.92 888.93
00102396 00000100 1950.71 223.64 607.77 919.52 2085.34 594.73 2325.81 598.31 2165.14 734.84 2099.22 882.70 2299.19 888.28
00102397 00000101 1960.84 225.82 598.38 921.63 2088.36 595.85 2326.71 597.83 2167.27 734.38 2102.62 885.06 2303.56 889.65
00102398 00000102 1963.23 225.04 596.38 916.71 2092.53 594.13 2331.10 597.77 2171.23 734.87 2104.47 881.48 2306.28 887.37
00102399 00000103 1967.33 228.23 595.17 919.54 2094.80 593.03 2333.66 596.97 2173.68 733.58 2106.22 884.12 2307.08 890.44
00102400 00000104 1968.92 228.17 592.46 915.44 2097.11 592.54 2334.05 597.05 2174.11 733.13 2107.06 881.30 2308.54 887.98
00102401 00000105 1968.92 231.49 589.67 905.56 2098.20 593.00 2334.52 597.41 2174.75 733.39 2107.87 877.40 2309.07 883.92
00102402 00000106 1970.59 233.29 587.28 899.21 2098.21 593.46 2333.95 597.63 2175.88 734.41 2109.24 876.12 2309.00 882.41
00102403 00000107 1969.13 242.14 584.71 894.54 2098.38 595.27 2332.22 599.74 2175.44 736.00 2109.27 877.20 2309.88 883.55
00102404 00000108 1968.15 242.30 587.15 896.11 2095.93 597.02 2329.78 602.50 2172.60 736.10 2105.03 877.72 2305.65 884.78
00102405 00000109 1964.95 249.30 590.98 878.30 2095.08 598.16 2329.22 603.67 2171.67 737.46 2105.15 874.81 2304.56 881.46
00102406 00000110 1962.95 246.35 586.31 881.00 2090.90 599.85 2326.82 604.82 2171.06 736.42 2101.48 876.64 2301.38 883.26
00102407 00000111 1958.22 250.16 582.68 881.78 2086.89 602.41 2321.12 606.53 2167.86 735.80 2098.30 878.81 2297.69 884.71
00102408 00000112 1951.95 252.11 587.27 880.82 2082.67 602.65 2317.60 605.55 2165.07 736.30 2096.90 878.97 2298.17 883.52
00102409 00000113 1948.05 251.55 590.10 875.89 2078.61 603.35 2312.61 605.18 2159.56 740.26 2093.57 877.04 2296.32 880.54
00102410 00000114 1942.67 247.32 594.60 879.78 2072.90 605.15 2306.71 606.15 2155.23 740.64 2090.12 880.35 2287.80 883.50
00102411 00000115 1945.45 250.15 581.92 860.86 2071.25 598.61 2306.91 599.35 2160.31 741.29 2090.02 881.72 2279.31 884.81
00102412 00000116 1940.81 248.00 589.50 871.96 2067.64 603.71 2298.19 606.61 2145.82 747.49 2085.06 883.49 2273.40 887.87
00102413 00000117 1943.19 242.67 575.20 867.44 2066.64 600.33 2300.27 601.33 2150.46 747.17 2082.50 881.45 2273.41 884.44
00102414 00000118 1941.78 243.78 573.46 868.97 2066.20 601.81 2296.54 603.75 2148.22 750.90 2082.06 882.90 2270.33 886.42
00102415 00000119 1933.68 250.60 584.93 863.05 2060.04 602.50 2292.70 599.27 2144.17 749.49 2084.19 888.15 2260.79 888.79
00102416 00000120 1939.05 244.91 575.54 886.50 2061.94 604.38 2291.24 603.06 2143.25 752.95 2078.31 889.67 2267.07 890.79
00102417 00000121 1937.20 245.39 574.86 890.93 2062.49 604.43 2291.46 604.38 2143.36 755.11 2077.27 891.52 2268.88 893.32
00102418 00000122 1936.39 245.98 575.11 889.50 2062.77 604.48 2291.95 603.15 2144.24 752.48 2079.04 888.72 2273.55 889.35
00102419 00000123 1937.07 249.30 574.86 876.31 2063.20 602.93 2292.16 602.57 2143.66 750.49 2079.39 883.50 2273.97 884.75
00102420 00000124 1937.81 243.47 575.85 889.61 2061.08 602.48 2293.14 602.97 2142.31 750.89 2075.01 890.59 2267.32 893.30
00102421 00000125 1939.10 241.58 572.03 889.43 2060.11 602.73 2292.32 603.40 2141.73 755.93 2072.88 891.75 2268.56 894.19
00102422 00000126 1932.41 245.74 581.17 886.07 2056.11 606.92 2293.39 602.92 2140.64 755.95 2074.73 903.01 2265.22 902.89
00102423 00000127 1938.53 235.06 578.81 905.79 2060.85 605.66 2295.66 603.55 2143.44 752.80 2079.40 901.23 2269.77 902.54
00102424 00000128 1935.74 247.57 588.04 880.98 2062.80 608.65 2295.42 610.22 2142.76 752.60 2083.44 893.77 2271.40 897.54
00102425 00000129 1935.63 247.22 589.92 889.75 2063.19 607.37 2296.84 609.69 2144.17 752.21 2081.98 896.12 2272.12 900.53
00102426 00000130 1937.62 246.22 587.39 882.44 2064.02 606.53 2298.63 609.24 2145.97 752.84 2083.21 889.38 2277.47 893.99
00102427 00000131 1936.89 248.13 594.55 884.94 2063.94 606.80 2299.90 609.55 2145.15 752.17 2083.54 891.83 2277.27 896.35
00102428 00000132 1937.22 244.95 595.33 891.46 2063.87 607.05 2298.70 609.77 2144.32 752.16 2081.94 893.48 2274.13 898.09
00102429 00000133 1937.96 246.04 589.97 885.71 2064.44 602.16 2304.76 603.96 2152.57 746.24 2082.80 892.43 2273.47 896.69
00102430 00000134 1938.31 244.56 590.02 893.78 2064.70 602.32 2305.31 604.28 2152.42 748.13 2083.82 896.39 2272.99 900.90
00102431 00000135 1938.37 242.80 589.18 888.65 2064.26 602.53 2305.53 604.29 2152.51 748.19 2083.26 896.68 2272.69 900.82
00102432 00000136 1939.49 242.98 586.33 890.39 2064.51 605.47 2304.34 605.68 2154.39 749.34 2083.26 898.63 2272.13 901.74
00102433 00000137 1942.68 251.42 580.03 887.49 2062.19 609.56 2302.16 604.86 2150.54 751.66 2080.06 903.57 2273.83 903.73
00102434 00000138 1940.51 244.56 587.31 897.78 2063.94 608.46 2302.79 607.96 2154.31 751.48 2084.30 901.54 2270.96 904.26
00102435 00000139 1937.79 243.43 590.11 898.03 2063.37 605.55 2303.82 605.69 2152.55 753.81 2083.89 903.89 2272.38 906.79
00102436 00000140 1935.44 241.07 593.86 906.26 2062.64 603.88 2302.29 606.27 2148.92 752.02 2080.09 899.33 2270.23 904.08
00102437 00000141 1934.71 247.85 588.57 891.92 2062.95 603.95 2301.11 605.80 2148.97 751.06 2082.08 894.91 2271.32 898.97
00102438 00000142 1934.45 246.23 589.89 908.76 2062.86 604.54 2299.36 603.93 2146.90 751.71 2084.21 901.85 2272.64 904.31
00102439 00000143 1935.50 250.34 588.28 909.92 2064.14 605.27 2297.70 603.69 2144.17 755.01 2084.87 903.20 2276.17 904.34
00102440 00000144 1929.71 246.53 594.82 897.36 2059.71 609.68 2292.90 610.44 2138.97 758.53 2078.25 894.73 2277.71 897.49
00102441 00000145 1930.35 249.63 590.59 892.16 2059.59 605.88 2295.25 605.44 2142.77 755.70 2081.69 896.29 2271.20 897.82
00102442 00000146 1933.39 238.04 585.26 904.74 2059.00 605.81 2291.55 605.07 2138.69 755.88 2076.82 896.18 2270.75 897.70
00102443 00000147 1935.29 239.99 584.99 897.92 2058.70 605.45 2290.64 605.32 2137.15 756.25 2076.27 893.52 2269.84 895.43
00102444 00000148 1935.51 237.38 585.07 906.97 2057.44 606.70 2290.07 605.31 2134.70 756.06 2075.52 898.32 2269.85 899.55
00102445 00000149 1933.50 239.52 585.80 908.47 2057.02 605.50 2290.01 605.54 2134.90 755.37 2072.64 897.97 2269.13 900.18
00102446 00000150 1925.37 248.68 592.73 894.91 2054.05 607.41 2287.60 605.10 2136.27 757.55 2075.95 900.70 2262.71 902.16
00102447 00000151 1925.36 252.87 593.65 898.59 2052.58 609.67 2287.12 606.89 2132.48 757.62 2074.35 908.41 2260.56 909.08
00102448 00000152 1923.07 248.29 586.33 901.76 2048.67 612.24 2283.85 608.38 2130.96 758.88 2070.27 913.32 2256.65 912.91
00102449 00000153 1920.55 250.04 591.41 894.11 2045.77 612.39 2284.49 609.78 2128.66 759.48 2067.19 915.01 2253.54 915.89
00102450 00000154 1921.76 250.46 590.24 894.15 2046.23 612.04 2281.39 609.61 2127.62 761.01 2065.76 913.63 2247.74 914.61
00102451 00000155 1921.29 251.90 591.30 888.67 2048.31 612.49 2281.19 609.32 2129.69 761.98 2073.52 912.80 2249.09 912.60
00102452 00000156 1919.35 252.21 591.97 885.56 2047.27 612.49 2279.89 609.95 2129.93 764.94 2071.68 911.05 2248.11 911.30
00102453 00000157 1920.40 248.65 586.05 893.62 2046.83 612.32 2279.05 610.58 2128.64 766.68 2069.06 912.19 2248.58 913.35
00102454 00000158 1918.67 247.51 590.70 900.27 2046.49 613.44 2280.59 611.33 2128.19 767.88 2068.63 913.73 2254.05 914.70
00102455 00000159 1919.07 247.09 594.80 897.41 2047.32 615.57 2281.06 613.52 2128.89 768.83 2070.11 916.34 2250.28 917.44
00102456 00000160 1920.35 245.96 595.22 891.46 2046.36 619.29 2282.27 617.74 2130.42 771.67 2069.99 916.39 2252.16 917.86
00102457 00000161 1919.45 244.69 594.41 896.72 2046.54 622.22 2281.79 621.28 2130.30 776.18 2068.49 918.47 2252.71 920.41
00102458 00000162 1920.39 244.43 594.11 902.34 2046.85 623.58 2281.34 623.94 2129.66 782.30 2068.95 922.50 2252.55 925.58
