Video ID: 	XZZiWYbyAUM
H: 	1080
W: 	1920
FPS: 	25.0

FRAME INDEX X0 Y0 W H [Landmarks (5 Points)]

00000171 00000000 613.33 186.23 503.64 717.06 762.44 450.21 1006.72 454.31 900.12 610.64 786.21 735.11 969.17 739.66
00000172 DELETE   612.35 183.92 506.29 718.68 763.07 450.62 1007.32 455.51 899.53 612.24 786.25 736.47 967.93 741.70
00000173 DELETE   609.50 183.37 505.42 719.51 755.32 450.67 1002.04 453.43 893.21 610.73 780.85 737.97 963.95 741.39
00000174 00000003 603.01 181.31 505.31 719.45 749.79 451.97 998.10 450.55 891.27 609.19 778.38 738.25 964.08 738.24
00000175 00000004 596.78 181.46 505.36 720.00 745.16 452.32 993.59 449.64 889.70 608.39 778.11 738.39 963.77 736.99
00000176 00000005 590.47 181.20 508.56 715.44 740.87 452.71 992.73 452.09 886.45 609.55 774.65 740.21 959.03 740.45
00000177 00000006 588.82 183.56 509.66 717.53 739.07 452.55 990.78 453.12 884.81 610.24 776.53 744.75 954.09 745.89
00000178 00000007 588.51 180.98 510.62 713.65 743.79 442.92 982.89 438.57 885.13 600.75 787.30 745.84 950.00 741.90
00000179 00000008 584.95 181.92 514.42 715.97 742.55 439.68 980.05 434.82 883.73 595.19 788.47 741.75 949.19 737.43
00000180 00000009 582.75 178.38 512.35 722.07 740.08 436.20 976.02 428.16 884.07 587.78 791.29 740.26 950.03 733.48
00000181 00000010 581.16 175.63 512.90 722.16 737.40 434.17 974.39 425.09 883.26 584.83 790.37 738.83 949.31 731.17
00000182 00000011 580.30 175.11 513.29 715.78 735.73 433.78 974.34 425.28 881.81 585.08 787.72 734.63 948.98 727.33
00000183 00000012 579.10 170.17 514.06 714.34 732.71 432.79 973.75 423.84 878.65 581.64 785.11 731.49 948.82 723.71
00000184 00000013 579.04 170.24 512.89 715.50 734.77 429.73 973.78 420.47 881.44 577.89 787.16 730.36 949.34 722.30
00000185 00000014 577.71 170.46 513.53 722.24 735.88 429.79 971.69 418.17 883.93 574.47 789.77 731.87 950.90 721.86
00000186 00000015 574.04 167.72 516.85 726.31 733.50 430.33 971.86 417.93 882.56 577.55 786.74 733.24 952.50 722.49
00000187 00000016 572.79 169.39 516.86 728.90 730.56 431.93 969.82 419.92 878.96 578.63 782.38 733.21 951.87 722.97
00000188 00000017 570.70 166.14 517.03 736.63 727.87 431.33 968.77 420.69 876.06 579.14 775.51 733.98 949.38 724.99
00000189 00000018 570.57 165.65 515.93 730.61 726.34 429.19 967.15 418.88 874.26 579.00 774.72 728.98 949.25 720.04
00000190 00000019 571.20 164.04 516.11 727.16 726.23 428.32 968.77 416.64 875.69 578.53 775.39 727.41 952.60 717.05
00000191 00000020 572.86 166.01 514.43 719.01 728.45 429.18 969.69 418.22 876.78 579.24 777.47 724.62 952.86 714.57
00000192 00000021 574.12 163.42 513.38 718.80 728.41 428.72 971.44 417.82 877.80 580.21 777.89 724.53 954.08 714.49
00000193 00000022 574.32 162.05 513.99 718.16 728.87 429.40 972.12 418.56 878.02 581.18 778.39 725.05 953.65 715.07
00000194 00000023 575.51 163.00 513.65 717.03 729.61 431.75 974.39 420.50 879.65 584.03 778.00 724.92 957.06 714.39
00000195 00000024 576.68 166.01 511.88 711.25 732.09 432.12 977.56 421.42 883.43 582.91 780.17 722.52 962.51 712.22
00000196 00000025 581.17 169.49 507.56 708.47 738.33 429.48 982.07 419.60 890.23 579.99 784.36 720.26 966.38 710.61
00000197 00000026 586.09 170.47 503.80 707.81 744.49 429.01 985.44 419.71 895.78 576.32 791.07 720.48 967.93 711.52
00000198 00000027 588.78 169.73 500.77 706.11 746.31 428.79 986.78 418.89 897.32 575.83 794.00 721.71 969.18 712.28
00000199 00000028 587.26 168.63 502.01 706.84 743.75 429.32 985.36 419.72 895.09 578.53 790.83 722.27 967.30 713.09
00000200 00000029 585.95 170.54 503.78 706.03 742.18 429.97 983.90 421.41 892.70 581.07 788.36 722.71 964.22 714.39
00000201 00000030 584.85 169.08 505.79 709.08 740.67 429.91 984.31 420.52 892.10 582.70 786.60 724.18 965.70 715.16
00000202 00000031 583.48 166.92 507.84 713.31 740.40 428.64 982.32 418.64 891.32 580.54 787.52 722.63 965.39 712.98
00000203 00000032 582.13 167.52 508.59 714.80 738.39 428.92 979.85 417.80 888.76 580.09 785.74 723.83 963.92 713.43
00000204 00000033 578.53 164.47 511.61 720.57 736.11 430.87 976.54 418.80 886.23 581.12 785.42 725.91 961.56 714.81
00000205 00000034 573.20 165.16 518.02 731.02 731.35 439.00 974.86 424.68 882.53 590.95 777.38 730.80 961.43 717.87
00000206 00000035 573.10 172.58 514.23 722.85 725.40 443.02 972.54 428.88 876.39 598.28 772.33 734.05 958.99 721.39
00000207 00000036 569.81 172.27 517.13 728.89 720.74 445.48 969.12 432.42 870.23 600.87 767.09 740.06 952.74 728.59
00000208 00000037 565.67 165.59 515.82 738.73 713.81 451.89 962.37 438.88 862.99 602.79 760.29 744.79 947.17 733.64
00000209 00000038 563.27 173.55 515.02 734.20 708.04 454.67 957.31 441.86 856.04 605.96 756.47 746.39 942.58 735.32
00000210 00000039 565.97 173.92 514.42 732.44 712.53 454.78 962.32 444.10 860.05 607.68 756.91 745.48 944.55 736.25
00000211 00000040 572.21 180.19 514.63 721.47 721.15 454.57 973.16 442.55 871.67 610.74 765.46 745.71 954.76 735.08
00000212 00000041 577.92 181.18 511.85 717.88 729.79 455.37 979.28 442.05 882.40 612.20 775.22 745.88 962.79 734.13
00000213 00000042 581.02 182.04 510.47 717.30 730.75 455.57 980.16 442.76 881.84 612.59 775.62 746.61 962.18 735.44
00000214 00000043 580.72 182.90 509.51 722.51 729.52 455.13 977.56 445.08 876.93 612.49 772.11 749.06 955.18 740.50
00000215 00000044 580.16 181.10 512.29 729.07 730.05 454.17 976.69 446.58 874.22 611.23 769.63 750.07 950.73 743.77
00000216 00000045 580.68 182.02 513.52 729.07 731.43 453.47 977.56 445.41 875.53 610.15 772.31 750.99 951.39 744.20
00000217 00000046 583.42 181.27 511.54 729.74 732.00 451.56 977.10 442.37 876.08 605.99 774.06 749.39 951.76 741.49
00000218 00000047 583.56 178.74 510.96 730.54 730.25 448.32 975.60 438.76 873.96 601.76 772.79 746.77 950.74 738.55
00000219 00000048 583.07 178.46 509.62 729.59 729.99 444.13 974.02 434.79 873.21 599.16 772.71 743.24 950.06 735.21
00000220 00000049 584.30 177.82 507.47 726.94 727.96 443.63 975.22 433.36 872.57 599.23 770.08 741.03 953.34 732.11
00000221 00000050 586.60 176.51 505.09 724.87 727.85 443.05 977.96 433.68 873.65 598.87 767.34 738.31 954.31 730.09
00000222 00000051 588.21 175.05 504.78 724.95 730.60 441.20 979.62 430.77 876.82 596.01 769.98 736.49 956.78 727.35
00000223 00000052 590.44 176.41 501.85 721.80 732.91 439.13 979.06 427.73 877.75 593.40 774.16 735.55 957.53 725.56
00000224 00000053 589.26 179.44 502.78 719.73 735.29 437.03 976.09 427.45 877.54 588.33 777.61 733.74 953.93 725.34
00000225 00000054 588.21 180.40 502.07 719.42 735.68 436.32 974.17 425.86 877.71 586.31 780.18 732.88 954.79 723.69
00000226 00000055 587.12 179.16 503.37 721.34 739.25 434.84 975.07 426.29 880.42 584.28 782.41 731.03 955.48 723.33
00000227 00000056 583.30 179.60 506.19 717.52 742.64 432.86 976.59 425.09 885.28 582.58 785.18 726.56 957.64 719.23
00000228 00000057 584.73 180.59 503.16 713.66 740.70 434.13 978.14 424.87 886.53 583.27 783.42 723.87 961.81 715.09
00000229 00000058 584.95 181.14 501.48 706.47 740.46 434.81 980.01 424.18 888.84 584.58 783.67 720.55 966.16 710.46
00000230 00000059 583.37 183.00 500.23 705.47 740.51 433.93 978.59 423.18 889.40 582.93 784.32 719.41 966.37 709.16
00000231 00000060 583.27 183.65 501.45 707.40 742.69 432.08 977.42 422.62 889.85 578.26 786.74 719.92 964.08 710.82
00000232 00000061 582.08 184.91 501.30 709.34 749.78 428.51 976.90 419.00 896.47 571.49 796.73 721.89 964.07 712.99
00000233 00000062 583.46 185.90 499.42 709.88 751.96 426.54 980.75 417.61 900.52 567.95 797.49 721.74 967.08 713.40
00000234 00000063 586.81 186.93 496.50 706.75 755.74 424.76 985.25 415.76 906.38 565.76 800.57 718.16 972.52 709.63
00000235 00000064 590.61 186.85 493.76 700.53 759.34 424.92 990.14 415.15 913.30 566.03 805.79 715.82 977.30 706.57
00000236 00000065 591.90 187.59 492.26 696.05 761.81 425.25 993.75 414.02 919.11 565.31 811.26 714.39 982.68 703.85
00000237 00000066 594.37 188.43 488.94 689.85 764.50 425.17 996.73 413.24 923.82 564.97 815.71 711.92 986.93 700.62
00000238 00000067 594.40 187.46 489.55 689.40 766.33 425.42 998.95 413.61 927.08 566.34 816.84 710.51 989.77 699.11
00000239 00000068 595.65 188.69 486.62 685.60 767.81 426.74 1001.05 414.37 929.61 567.91 818.69 710.03 993.46 698.29
00000240 00000069 595.60 188.73 486.31 686.25 768.37 428.44 1000.91 416.28 929.89 568.61 818.76 710.74 993.90 699.27
00000241 00000070 595.16 190.71 485.15 685.64 767.81 428.94 999.44 416.66 928.87 568.76 818.85 712.67 992.41 701.21
00000242 00000071 593.60 190.83 484.61 684.07 766.86 428.73 994.88 417.31 925.72 567.38 818.46 713.71 985.46 703.08
00000243 00000072 591.69 188.74 485.12 689.99 765.38 427.38 991.02 415.71 922.77 566.10 817.01 717.06 981.75 706.57
00000244 00000073 587.90 182.77 488.05 696.78 760.98 426.45 986.79 414.93 917.09 566.35 811.21 716.91 977.22 706.21
00000245 00000074 586.43 178.07 487.99 695.66 757.33 425.52 987.30 415.45 914.07 566.69 804.82 709.86 977.61 699.86
00000246 00000075 588.24 178.91 487.78 692.53 763.91 421.02 993.31 412.64 922.07 562.19 808.47 702.32 983.00 693.69
00000247 00000076 597.99 185.59 488.42 684.56 772.75 417.92 1003.30 407.16 934.27 559.94 820.65 700.68 993.15 690.10
00000248 00000077 606.21 183.78 487.90 683.70 783.80 413.88 1014.42 404.79 946.38 558.15 830.53 699.02 1001.48 690.39
00000249 00000078 610.20 171.06 485.05 702.15 794.11 408.74 1017.86 411.26 950.24 557.74 834.24 692.56 1002.96 692.16
00000250 00000079 614.72 168.61 482.75 704.55 801.96 406.46 1022.24 411.63 956.72 555.45 839.09 692.71 1004.65 694.68
00000251 DELETE   616.40 170.93 482.77 702.75 807.14 407.72 1026.54 413.65 962.68 556.23 842.54 690.96 1009.77 693.23
00000252 00000081 620.94 171.55 481.05 696.02 811.13 409.54 1031.00 414.39 967.77 558.13 847.19 689.21 1015.59 690.49
00000253 00000082 623.79 169.04 481.00 691.15 809.01 420.16 1028.56 415.05 969.45 555.90 847.36 687.11 1022.38 683.32
00000254 00000083 623.82 168.96 480.34 690.22 808.18 418.28 1027.79 413.71 968.14 553.66 846.45 685.81 1020.75 682.46
00000255 00000084 622.95 166.04 481.36 693.30 807.54 416.00 1026.99 412.74 966.61 552.22 844.66 685.46 1018.59 683.24
00000256 00000085 622.38 163.96 481.93 693.90 809.67 414.28 1027.37 411.90 967.73 549.85 845.73 683.65 1019.10 682.01
00000257 00000086 624.30 164.21 481.29 693.17 812.90 413.90 1029.74 411.42 971.74 549.41 850.12 683.69 1022.40 681.84
00000258 00000087 624.55 165.64 481.40 691.61 814.50 413.53 1030.73 411.68 972.74 548.54 851.36 684.22 1022.39 683.00
00000259 00000088 624.05 164.15 481.65 692.03 813.82 413.73 1030.50 411.90 972.69 550.14 850.64 683.95 1022.10 682.61
00000260 00000089 620.81 162.93 483.17 692.49 811.88 413.87 1029.52 412.50 971.16 550.66 847.17 682.52 1020.89 681.45
00000261 00000090 619.16 162.82 483.78 694.54 810.09 413.37 1027.90 412.67 969.02 552.13 843.79 682.56 1017.63 682.09
00000262 00000091 618.02 160.98 483.90 697.31 807.31 416.01 1026.07 413.15 966.10 554.35 841.34 684.62 1016.26 682.37
00000263 00000092 615.67 161.63 483.98 699.39 803.25 417.17 1023.88 414.46 962.19 555.23 836.98 685.59 1013.31 683.41
00000264 00000093 611.65 161.20 485.73 702.09 800.05 419.96 1022.69 416.38 959.22 558.56 835.10 689.40 1010.77 686.55
00000265 00000094 612.71 166.56 482.67 705.13 794.55 423.18 1019.81 418.58 955.09 560.63 833.31 696.75 1009.95 693.06
00000266 00000095 607.86 171.21 486.28 707.48 796.05 414.27 1018.22 418.26 951.44 566.46 837.24 704.01 999.84 705.23
00000267 00000096 606.30 176.62 486.59 707.25 796.56 418.84 1012.13 420.45 948.01 567.51 836.54 707.91 995.35 707.87
00000268 00000097 608.61 174.90 484.79 713.02 792.14 432.44 1011.39 427.47 945.88 564.87 830.90 706.22 998.68 702.41
00000269 00000098 608.88 173.70 486.07 705.08 788.08 428.58 1013.76 423.46 943.85 566.60 828.39 702.60 999.06 698.79
00000270 00000099 611.90 171.72 486.48 699.16 786.38 425.02 1016.97 419.28 944.42 564.55 825.89 695.75 1006.12 691.30
00000271 00000100 610.82 168.81 487.95 701.85 786.33 422.34 1018.79 417.70 945.46 563.51 823.56 692.03 1008.46 688.37
00000272 00000101 614.58 164.67 486.18 705.82 789.28 419.52 1018.44 415.00 946.15 560.43 826.15 690.82 1007.41 687.35
00000273 00000102 614.59 163.48 486.75 713.04 789.67 417.10 1016.23 413.58 945.38 558.05 828.31 694.94 1002.61 692.30
00000274 00000103 612.45 161.12 490.95 718.74 792.42 406.34 1017.45 406.62 946.21 558.71 837.49 699.62 1000.79 697.93
00000275 00000104 613.06 161.91 491.21 720.14 793.41 408.40 1018.45 407.68 947.33 560.77 837.72 702.41 1001.98 699.95
00000276 00000105 614.42 162.20 492.14 722.28 794.31 410.15 1020.39 408.78 949.15 561.10 839.91 704.68 1005.25 701.61
00000277 00000106 614.54 163.54 492.88 721.09 795.26 411.12 1022.65 409.99 950.58 562.97 840.45 706.13 1007.17 703.20
00000278 00000107 614.31 164.40 494.76 721.44 792.21 412.09 1022.36 410.48 947.27 566.24 838.36 707.74 1006.00 704.37
00000279 00000108 611.51 167.11 495.86 719.56 783.00 417.33 1016.88 416.38 936.70 570.84 828.87 710.10 998.01 707.58
00000280 00000109 603.08 169.43 502.06 717.93 772.98 423.04 1008.53 420.36 922.54 576.85 816.40 712.62 988.66 708.95
00000281 00000110 600.89 167.71 499.88 725.90 758.93 432.44 997.55 426.61 904.62 580.23 798.51 715.79 976.30 712.44
00000282 00000111 594.27 166.89 508.91 725.05 756.93 430.64 990.71 424.15 899.11 576.19 799.04 724.50 968.63 718.28
00000283 00000112 598.79 168.16 504.23 739.05 754.74 438.58 993.62 435.65 894.36 590.56 789.90 726.51 967.74 725.45
00000284 00000113 597.78 172.63 505.81 739.76 754.82 441.57 993.02 438.51 894.10 593.26 790.90 730.19 968.40 728.83
00000285 00000114 591.02 175.07 512.77 731.66 750.74 441.57 988.31 440.82 885.92 600.21 786.14 730.00 959.77 729.99
00000286 00000115 592.65 174.74 511.17 738.40 744.46 445.43 988.28 443.53 883.77 597.32 780.97 733.70 961.50 732.83
00000287 00000116 588.73 172.93 510.97 733.09 743.42 440.54 980.68 431.85 884.14 594.69 786.03 739.82 956.49 732.24
00000288 00000117 587.77 172.99 510.51 730.59 739.75 442.24 978.80 432.30 881.20 596.64 783.46 739.98 955.90 731.40
00000289 00000118 587.80 176.28 510.52 724.00 734.55 445.26 976.69 433.41 876.44 596.52 779.62 739.63 953.32 729.44
00000290 00000119 583.43 176.74 510.61 722.94 726.24 444.73 972.08 432.47 869.43 594.85 772.78 738.58 949.69 728.09
00000291 00000120 581.28 176.06 511.00 723.79 720.34 447.06 967.39 434.82 861.60 597.84 766.23 740.35 944.98 730.07
00000292 00000121 579.69 168.32 513.30 733.03 713.66 450.59 963.24 437.64 853.75 598.57 759.40 742.76 943.37 731.95
00000293 00000122 579.59 168.90 513.64 734.57 712.10 450.04 961.02 435.57 851.61 597.41 760.08 743.15 943.39 731.16
00000294 00000123 581.61 170.63 512.23 731.54 713.12 449.15 960.47 432.39 853.07 594.06 764.22 741.99 944.63 728.09
00000295 00000124 587.40 168.00 511.75 735.88 719.94 446.79 964.61 429.55 859.00 589.78 773.24 741.45 948.00 726.94
00000296 00000125 597.46 174.29 508.26 737.23 726.95 450.58 974.48 438.04 865.47 598.05 775.17 738.27 957.95 728.33
00000297 00000126 604.18 174.24 507.54 727.23 734.60 450.38 983.75 437.07 873.18 599.51 781.06 731.80 970.62 721.43
CROP_BBOX: 209 0 1538 1080
