Video ID: 	GcJXwYx435A
H: 	1080
W: 	1920
FPS: 	25.0

FRAME INDEX X0 Y0 W H [Landmarks (5 Points)]

00001991 00000000 911.33 100.55 406.69 613.26 964.38 362.89 1126.67 347.24 992.41 434.60 979.27 558.28 1112.76 545.90
00001992 00000001 912.60 99.93 403.76 615.52 967.47 362.48 1131.30 348.28 997.66 435.31 982.79 560.50 1115.92 549.23
00001993 DELETE   913.77 109.47 402.19 611.75 969.96 367.26 1136.32 355.69 1004.74 445.90 986.69 564.19 1125.85 554.88
00001994 00000003 913.19 112.32 401.84 615.90 970.61 374.52 1139.87 362.04 1014.70 456.79 991.52 569.91 1134.34 559.68
00001995 00000004 913.34 112.90 404.74 619.26 973.90 377.91 1143.56 364.04 1022.23 462.66 997.85 575.64 1139.99 564.30
00001996 00000005 911.33 123.94 400.71 607.37 977.70 380.12 1147.79 362.57 1036.96 458.96 1007.03 580.61 1150.26 566.27
00001997 00000006 918.62 126.96 398.07 602.26 988.44 381.30 1157.76 361.96 1051.65 455.70 1017.53 576.60 1162.74 560.64
00001998 00000007 924.66 126.33 397.12 597.90 996.05 384.66 1164.75 365.06 1062.54 457.94 1023.79 573.04 1173.54 556.60
00001999 00000008 925.95 120.01 401.37 602.96 1000.36 386.04 1167.93 369.54 1069.07 462.85 1029.09 574.51 1178.28 560.13
00002000 00000009 928.66 118.61 400.97 608.43 1003.04 389.24 1169.36 373.56 1070.92 467.85 1032.71 579.75 1181.40 566.11
00002001 00000010 930.68 120.23 398.28 612.86 1005.39 393.85 1171.06 379.25 1073.76 474.67 1034.77 584.52 1183.55 572.05
00002002 00000011 930.42 131.44 399.51 609.69 1007.35 396.66 1171.10 382.12 1075.78 479.56 1037.71 591.71 1182.10 579.08
00002003 00000012 930.02 133.42 398.96 615.71 1008.88 397.58 1171.50 383.08 1077.64 483.36 1039.91 598.44 1181.45 585.95
00002004 00000013 929.11 132.53 398.44 619.00 1009.62 397.01 1172.49 383.74 1078.26 482.86 1039.53 600.71 1178.76 589.41
00002005 00000014 929.15 130.45 397.29 621.78 1009.02 394.89 1173.53 383.01 1077.67 479.93 1036.55 599.64 1177.52 589.40
00002006 00000015 928.21 130.20 396.98 620.75 1007.14 393.96 1171.95 382.01 1075.09 477.50 1033.33 598.65 1173.67 588.46
00002007 00000016 924.26 127.16 398.10 624.83 1003.50 395.05 1171.37 383.30 1072.46 476.76 1028.68 599.52 1171.45 589.54
00002008 00000017 920.34 127.12 399.59 626.32 999.08 396.02 1170.22 383.38 1069.98 479.82 1025.62 601.73 1170.35 591.08
00002009 00000018 917.50 126.19 401.11 628.04 997.01 397.39 1169.03 385.23 1068.55 480.94 1023.75 602.98 1169.27 592.64
00002010 00000019 914.80 127.09 401.98 628.52 995.31 399.54 1166.86 386.12 1068.13 482.41 1023.50 605.18 1168.52 593.76
00002011 00000020 915.32 128.85 401.36 628.40 995.22 399.96 1166.49 385.87 1067.82 483.75 1023.77 605.71 1169.51 593.69
00002012 00000021 915.58 130.21 400.24 624.93 995.93 400.20 1166.97 387.03 1068.46 484.43 1024.45 605.66 1168.61 594.50
00002013 00000022 914.43 131.37 402.73 627.15 996.29 401.39 1167.14 387.33 1069.86 486.73 1026.65 607.39 1169.10 595.44
00002014 00000023 914.37 130.77 403.42 629.66 997.65 401.47 1166.80 388.85 1070.10 490.56 1027.98 608.79 1168.65 597.98
00002015 00000024 914.37 129.80 405.33 631.65 998.09 403.36 1166.83 389.99 1070.19 493.67 1029.26 610.22 1171.33 598.57
00002016 00000025 915.58 129.60 405.19 628.75 996.80 403.60 1166.42 388.71 1069.51 493.16 1029.47 608.36 1173.32 595.59
00002017 00000026 917.39 128.55 402.34 627.44 996.02 402.27 1164.36 388.75 1065.52 490.49 1026.57 604.64 1170.38 592.78
00002018 00000027 916.02 126.20 401.66 632.01 993.33 402.47 1162.60 388.39 1063.03 490.11 1023.72 604.13 1170.57 591.57
00002019 00000028 913.64 126.00 403.42 633.41 991.02 401.59 1160.32 387.41 1060.51 490.11 1020.87 602.98 1169.29 590.11
00002020 00000029 910.83 131.22 407.23 627.38 988.28 403.47 1158.59 387.42 1060.07 492.89 1020.45 603.90 1170.31 589.49
00002021 00000030 909.94 133.42 407.89 624.13 987.10 405.83 1157.72 388.56 1060.44 497.76 1021.21 605.15 1171.92 589.54
00002022 00000031 908.08 133.52 408.18 624.64 985.51 408.34 1156.15 389.19 1060.16 500.17 1022.10 608.80 1171.78 591.87
00002023 00000032 905.01 135.54 410.45 626.23 985.10 408.03 1153.94 389.00 1060.05 501.14 1023.74 611.24 1168.93 594.45
00002024 00000033 904.81 134.94 408.53 623.28 982.84 408.31 1152.49 389.04 1058.26 501.31 1021.48 610.81 1167.15 593.79
00002025 00000034 905.12 134.77 407.83 618.96 981.85 403.81 1150.92 386.45 1056.73 497.40 1019.58 605.83 1162.35 590.54
00002026 00000035 906.69 134.54 406.57 617.55 982.61 399.77 1151.08 383.88 1055.70 493.08 1018.44 600.81 1161.91 586.73
00002027 00000036 908.89 128.82 404.32 623.08 983.77 399.65 1153.43 383.22 1057.24 491.22 1018.83 599.11 1166.50 584.45
00002028 00000037 909.10 127.78 405.59 623.93 984.24 400.69 1155.08 383.35 1058.31 491.48 1019.01 599.04 1169.46 583.44
00002029 00000038 908.41 128.91 406.24 623.97 983.71 401.94 1154.90 383.20 1059.02 492.73 1019.89 600.18 1170.23 583.38
00002030 00000039 909.00 127.26 405.48 626.03 984.75 401.57 1154.63 383.35 1059.60 492.40 1021.51 600.41 1169.66 584.09
00002031 00000040 910.29 127.67 403.90 628.32 987.33 400.33 1155.49 383.13 1061.50 490.03 1022.99 601.10 1168.52 585.83
00002032 00000041 910.98 127.16 404.89 630.93 988.66 397.90 1158.31 380.53 1063.69 485.74 1024.49 600.98 1170.35 585.62
00002033 00000042 913.40 130.29 402.76 625.72 991.57 399.69 1157.69 382.23 1064.44 484.24 1027.24 601.44 1169.64 586.26
00002034 00000043 912.40 135.13 403.16 622.68 988.63 403.99 1153.91 379.62 1059.98 480.33 1027.26 603.45 1171.31 582.51
00002035 00000044 913.18 131.28 402.43 630.11 988.03 405.35 1154.59 379.37 1057.46 478.65 1025.46 607.27 1171.47 585.11
00002036 00000045 911.60 128.12 403.28 635.45 985.25 403.47 1152.48 376.03 1054.56 477.98 1022.65 608.02 1171.65 584.42
00002037 00000046 910.43 127.97 404.89 633.93 986.33 400.88 1154.69 377.98 1055.59 475.51 1020.48 605.16 1168.88 585.33
00002038 00000047 910.12 122.85 407.43 641.40 987.55 396.32 1157.23 377.12 1056.80 476.28 1017.75 601.99 1169.17 585.12
00002039 00000048 913.56 112.17 413.19 637.97 986.32 396.15 1155.99 379.28 1047.51 478.02 1016.11 592.35 1159.22 578.00
00002040 00000049 913.34 108.36 412.97 640.29 985.87 396.18 1157.59 378.18 1049.15 480.13 1015.96 590.77 1163.25 575.41
00002041 00000050 910.97 117.81 405.30 632.71 987.12 396.32 1159.30 376.40 1061.06 478.20 1019.88 596.20 1173.06 578.72
00002042 00000051 910.79 117.72 405.10 631.01 987.46 395.83 1155.90 375.29 1061.04 476.51 1023.97 596.39 1170.40 578.56
00002043 00000052 911.24 119.17 405.09 628.91 987.80 395.24 1155.97 374.81 1060.50 476.58 1024.38 595.32 1170.86 577.42
00002044 00000053 912.09 119.35 404.97 626.18 988.42 394.30 1157.61 374.88 1061.66 476.61 1024.13 593.78 1171.37 576.68
00002045 00000054 911.83 119.88 406.63 622.89 988.96 394.58 1158.94 374.75 1064.07 475.70 1025.12 593.07 1173.06 575.66
00002046 00000055 913.27 121.56 404.48 619.90 990.01 394.56 1159.43 375.62 1064.27 476.15 1025.24 592.97 1172.58 576.34
00002047 00000056 914.05 121.22 404.08 627.93 990.17 392.53 1160.24 374.36 1061.93 475.08 1023.97 597.21 1169.66 581.43
00002048 00000057 915.31 120.45 401.31 635.78 991.83 391.77 1160.27 374.52 1062.56 476.48 1024.95 599.70 1168.04 584.90
00002049 00000058 916.01 121.33 401.20 633.64 992.03 392.32 1160.20 374.81 1062.91 476.78 1025.09 599.55 1167.62 584.55
00002050 00000059 916.91 120.05 400.55 632.54 991.72 393.08 1160.91 376.13 1062.34 477.70 1022.80 598.53 1167.72 583.91
00002051 00000060 916.75 119.72 400.64 628.76 990.40 394.38 1160.89 377.33 1062.20 479.11 1021.91 597.33 1168.66 582.65
00002052 00000061 916.86 118.63 399.88 628.70 990.18 394.90 1161.03 377.80 1062.41 480.29 1021.60 597.16 1170.46 582.50
00002053 00000062 916.01 117.06 400.93 631.59 989.56 395.15 1162.72 378.04 1062.58 480.86 1019.54 596.87 1172.90 581.96
00002054 00000063 916.45 117.22 401.01 629.98 989.40 395.17 1163.04 377.83 1061.51 480.00 1018.49 595.64 1172.68 580.56
00002055 00000064 915.21 117.87 402.21 627.63 988.38 394.77 1163.91 377.25 1062.19 479.07 1017.58 594.73 1173.03 579.63
00002056 00000065 916.39 119.87 401.60 622.53 988.58 394.08 1164.14 376.33 1061.91 477.02 1017.54 592.73 1173.98 577.39
00002057 00000066 915.86 119.01 401.83 624.35 988.50 393.80 1164.03 375.35 1061.92 475.98 1018.09 593.16 1174.22 577.23
00002058 00000067 917.88 116.74 401.51 626.91 989.74 392.01 1163.30 371.78 1061.30 472.89 1023.12 593.45 1174.12 576.29
00002059 00000068 915.95 120.79 402.86 624.32 989.87 389.25 1162.96 369.24 1060.66 468.61 1022.37 593.00 1172.41 575.62
00002060 00000069 918.28 119.28 400.33 617.16 991.76 386.93 1163.30 367.28 1064.34 464.95 1025.19 587.30 1172.92 570.47
00002061 00000070 921.03 120.24 398.98 614.00 994.39 385.77 1164.92 366.43 1067.63 462.16 1027.80 582.63 1173.85 566.23
00002062 00000071 922.35 118.47 397.23 613.92 996.74 383.61 1165.14 366.31 1069.62 461.40 1029.25 579.18 1172.08 564.84
00002063 00000072 922.03 119.53 397.53 611.62 996.96 383.98 1164.68 368.24 1069.59 463.21 1028.75 578.36 1171.28 565.06
00002064 00000073 920.63 118.69 399.43 613.78 995.86 385.60 1164.43 369.13 1069.23 465.68 1028.31 580.53 1171.47 566.70
00002065 00000074 919.28 120.84 399.85 611.91 995.53 386.64 1164.69 371.81 1069.26 468.28 1026.94 580.46 1171.47 567.87
00002066 00000075 918.46 119.60 400.60 614.97 995.30 387.86 1163.51 373.19 1068.75 470.48 1027.36 582.66 1171.58 569.89
00002067 00000076 918.77 118.66 399.60 618.80 994.59 388.07 1162.98 373.43 1066.86 471.09 1026.87 585.18 1170.15 572.45
00002068 00000077 918.35 117.26 399.72 625.86 993.58 387.35 1162.32 371.54 1064.96 469.66 1026.13 586.96 1169.92 573.19
00002069 00000078 916.00 118.37 399.56 627.28 988.76 386.51 1158.66 366.60 1057.92 464.33 1024.30 589.97 1166.06 573.22
00002070 00000079 913.96 118.25 399.06 625.79 983.07 378.97 1152.79 357.64 1049.64 458.08 1021.17 588.97 1158.38 571.48
00002071 00000080 912.14 116.40 402.22 628.73 979.12 373.68 1151.47 351.85 1042.77 454.52 1015.41 588.39 1153.92 570.55
00002072 00000081 911.25 105.93 410.87 625.92 978.50 370.54 1148.45 353.95 1028.86 454.58 1009.12 576.60 1143.19 562.98
00002073 00000082 905.32 97.89 413.28 628.50 971.73 370.33 1138.62 352.74 1019.29 452.92 1001.14 568.21 1140.60 553.55
00002074 00000083 899.90 97.46 417.52 629.87 962.20 371.27 1129.68 352.34 1006.06 453.01 989.03 569.23 1130.60 553.69
00002075 00000084 897.34 99.31 418.18 627.08 954.29 371.41 1120.70 349.23 991.01 446.26 982.00 570.93 1117.36 552.75
00002076 00000085 892.54 103.42 419.51 621.84 949.14 372.26 1112.21 348.33 982.17 444.64 974.78 569.68 1107.50 550.14
00002077 00000086 888.18 100.18 422.89 620.98 945.76 371.44 1108.18 346.05 977.34 441.82 969.31 568.52 1104.42 547.84
00002078 00000087 887.89 103.60 421.20 613.31 946.07 371.46 1107.36 343.31 978.33 436.10 972.45 566.60 1102.52 543.40
00002079 00000088 888.54 104.61 421.42 615.02 947.41 370.12 1109.33 341.96 980.30 434.71 973.02 566.64 1103.93 543.56
00002080 00000089 892.61 99.52 416.02 613.88 950.97 368.68 1112.46 341.15 986.39 434.97 977.95 563.84 1110.81 541.14
00002081 00000090 896.35 99.33 413.90 611.24 953.74 367.96 1118.15 338.42 995.03 433.10 982.24 563.82 1117.08 539.70
00002082 00000091 898.48 96.65 414.88 614.78 955.22 366.44 1120.39 337.39 996.94 432.53 984.05 564.76 1116.70 541.13
00002083 00000092 900.37 98.15 415.55 622.49 956.76 366.23 1119.60 337.00 993.83 430.84 984.94 568.09 1114.85 544.40
00002084 00000093 901.55 98.39 415.80 626.88 956.15 367.81 1119.31 337.79 989.30 431.21 982.64 571.00 1113.37 546.82
00002085 00000094 901.90 97.58 416.51 630.40 955.89 367.70 1120.45 337.59 988.92 431.88 982.02 572.32 1114.55 548.11
00002086 00000095 902.47 98.52 417.30 628.69 958.16 366.50 1122.96 337.15 993.37 432.79 985.07 570.81 1119.29 547.24
00002087 00000096 902.93 97.15 415.80 620.48 960.52 365.52 1125.81 336.79 998.97 432.75 988.01 566.46 1122.72 543.12
00002088 00000097 904.25 98.43 412.20 610.33 963.64 363.45 1127.17 339.00 1004.43 435.20 990.83 559.84 1127.46 539.93
00002089 00000098 904.34 96.87 411.61 612.79 964.44 363.38 1128.55 339.64 1006.83 437.84 991.90 559.23 1129.70 539.89
00002090 00000099 904.53 96.21 411.13 611.30 962.84 364.81 1125.00 340.45 1004.33 438.71 992.40 559.69 1126.92 539.71
00002091 00000100 901.51 96.05 415.27 612.53 956.95 369.33 1119.68 340.07 998.85 437.38 988.06 562.41 1121.46 538.45
00002092 00000101 898.92 98.52 415.14 609.78 953.86 370.46 1114.10 340.40 992.24 436.63 984.82 562.14 1116.91 537.51
00002093 00000102 896.65 99.97 415.14 606.00 953.29 370.15 1112.03 340.25 991.54 435.02 984.27 560.68 1115.42 536.15
00002094 00000103 896.19 97.83 415.69 610.29 953.52 370.19 1115.30 338.69 994.83 434.24 985.57 561.10 1118.88 535.27
CROP_BBOX: 676 0 1618 898
