Video ID: 	ZKfaWDHAQH0
H: 	2160
W: 	3840
FPS: 	25.0

FRAME INDEX X0 Y0 W H [Landmarks (5 Points)]

00008370 00000000 1886.43 416.98 688.29 1080.98 1962.72 795.35 2202.68 801.19 1974.33 1003.93 1985.39 1204.74 2163.04 1209.36
00008371 00000001 1881.82 409.68 683.97 1090.06 1963.42 791.00 2205.65 800.17 1980.18 997.06 1989.88 1200.11 2166.45 1206.78
00008372 00000002 1879.02 409.15 686.08 1080.47 1959.89 790.40 2202.78 799.89 1977.70 996.46 1981.92 1193.71 2163.43 1200.95
00008373 00000003 1876.42 406.92 687.76 1075.41 1953.29 792.81 2198.18 800.63 1970.73 999.21 1973.88 1194.77 2156.47 1200.71
00008374 00000004 1874.86 411.34 688.59 1061.76 1952.76 795.24 2194.37 801.37 1968.36 1000.58 1972.72 1193.50 2150.84 1198.53
00008375 00000005 1875.49 416.64 685.08 1054.63 1950.90 795.59 2189.62 800.42 1966.71 998.94 1969.66 1198.15 2140.40 1202.32
00008376 00000006 1875.89 416.45 684.01 1058.81 1951.51 793.74 2189.68 800.38 1965.68 1002.01 1968.20 1202.53 2135.01 1208.85
00008377 00000007 1879.96 414.64 684.89 1061.31 1952.69 796.04 2193.18 802.76 1965.21 1006.96 1968.99 1205.57 2139.54 1212.15
00008378 00000008 1883.38 415.83 688.17 1065.04 1955.08 797.64 2200.39 803.77 1970.30 1009.20 1969.55 1209.72 2143.85 1216.27
00008379 00000009 1891.04 416.31 685.94 1069.62 1961.77 797.89 2205.51 802.64 1976.96 1012.02 1978.36 1214.64 2151.63 1219.88
00008380 00000010 1896.23 410.26 689.99 1084.10 1967.80 794.39 2216.68 801.66 1991.20 1013.25 1989.42 1219.09 2158.79 1226.37
00008381 00000011 1911.31 412.52 684.74 1092.78 1984.64 801.15 2240.06 807.26 2015.43 1010.37 2009.05 1219.24 2188.29 1225.00
00008382 DELETE   1912.95 408.15 687.61 1094.27 1993.00 811.61 2250.46 822.54 2026.33 1010.07 2010.50 1214.09 2195.44 1223.83
00008383 DELETE   1915.81 407.08 695.74 1097.07 2002.71 813.23 2265.52 817.59 2041.82 1014.96 2024.69 1217.63 2220.16 1221.67
00008384 00000014 1920.20 420.35 697.39 1080.91 2023.53 799.87 2280.76 811.68 2049.25 1004.50 2044.76 1212.65 2230.74 1220.80
00008385 00000015 1923.48 421.38 696.10 1081.39 2029.22 799.54 2288.80 810.80 2058.40 1003.66 2052.94 1209.84 2238.49 1217.22
00008386 00000016 1928.55 392.45 700.46 1104.76 2030.05 814.14 2288.59 819.22 2072.11 1034.76 2052.15 1218.60 2260.45 1226.16
00008387 00000017 1932.89 427.42 701.49 1078.89 2040.40 807.21 2302.16 815.54 2082.49 1012.76 2071.45 1214.05 2254.31 1219.06
00008388 00000018 1936.42 402.01 706.64 1087.86 2040.75 819.02 2300.24 824.25 2090.72 1043.50 2068.69 1213.51 2277.35 1220.93
00008389 00000019 1936.56 395.07 713.89 1095.19 2041.91 819.33 2304.97 824.98 2093.04 1045.65 2069.45 1211.36 2284.82 1218.67
00008390 00000020 1938.84 395.82 714.70 1101.24 2044.25 821.01 2306.67 823.30 2095.00 1045.96 2071.96 1214.23 2287.45 1218.73
00008391 00000021 1939.76 396.14 713.78 1100.76 2045.17 820.45 2305.79 823.40 2095.48 1045.38 2072.63 1214.21 2285.67 1219.39
00008392 00000022 1943.42 412.54 708.83 1085.41 2035.87 823.71 2308.95 828.04 2102.76 1045.94 2072.59 1205.69 2292.13 1215.36
00008393 00000023 1937.27 424.35 706.61 1082.11 2046.55 809.83 2311.62 820.35 2095.06 1021.41 2077.03 1211.16 2269.68 1218.09
00008394 00000024 1937.07 420.74 705.91 1086.58 2048.07 810.35 2310.01 819.40 2096.50 1020.28 2079.31 1211.53 2269.22 1217.32
00008395 00000025 1939.43 395.57 710.51 1099.18 2043.77 818.23 2303.30 820.31 2093.40 1042.85 2072.96 1212.34 2286.55 1216.44
00008396 00000026 1938.29 397.22 711.83 1095.82 2043.40 817.22 2302.83 820.05 2093.59 1043.45 2073.26 1212.41 2285.29 1217.22
00008397 00000027 1939.04 397.57 707.59 1094.18 2040.60 818.95 2301.13 821.62 2089.50 1043.41 2066.90 1211.86 2282.86 1216.76
00008398 00000028 1934.20 397.45 706.50 1092.20 2036.78 819.07 2296.30 822.97 2086.30 1043.74 2064.34 1212.17 2277.84 1218.28
00008399 00000029 1932.40 398.70 704.60 1092.97 2032.61 819.31 2291.77 821.34 2080.32 1042.81 2062.19 1214.81 2274.26 1219.41
00008400 00000030 1925.75 400.95 702.08 1087.42 2028.07 820.01 2284.88 823.06 2075.86 1042.86 2056.25 1214.97 2264.03 1220.69
00008401 00000031 1921.36 397.26 701.43 1091.24 2025.01 819.51 2278.66 823.78 2067.80 1040.73 2050.53 1214.40 2255.62 1221.20
00008402 00000032 1920.22 399.96 698.55 1089.04 2021.98 819.13 2273.45 822.35 2061.26 1038.38 2046.37 1215.23 2248.84 1221.31
00008403 00000033 1920.38 406.34 702.02 1087.74 2011.35 817.09 2283.63 817.53 2064.21 1033.39 2044.88 1215.21 2247.42 1215.90
00008404 00000034 1919.46 404.70 700.37 1089.88 2008.35 816.64 2279.20 818.34 2059.51 1035.88 2041.14 1216.13 2242.87 1217.75
00008405 00000035 1919.73 404.52 699.35 1091.70 2007.07 816.99 2276.67 818.98 2054.74 1036.28 2038.45 1215.83 2241.52 1217.56
00008406 00000036 1916.65 410.40 701.49 1079.89 2004.28 814.51 2276.28 821.12 2053.76 1037.46 2029.65 1210.59 2236.39 1216.58
00008407 00000037 1917.03 411.48 700.10 1076.40 2002.07 811.86 2271.58 820.85 2046.56 1035.87 2024.46 1205.85 2232.50 1213.60
00008408 00000038 1915.91 410.97 699.42 1074.06 2000.18 812.16 2268.83 820.23 2045.39 1036.09 2022.85 1205.28 2228.19 1212.60
00008409 00000039 1916.08 413.36 698.66 1071.43 1998.35 812.08 2266.54 820.24 2041.75 1033.86 2021.33 1208.35 2224.18 1215.49
00008410 00000040 1913.47 416.38 699.27 1070.49 1996.66 812.99 2262.56 823.80 2038.88 1035.39 2017.04 1202.83 2222.54 1212.19
00008411 00000041 1913.28 413.47 697.26 1071.69 1997.87 815.44 2263.14 823.16 2041.51 1035.67 2020.29 1206.91 2224.44 1213.58
00008412 00000042 1913.97 413.65 695.43 1078.30 1998.24 817.16 2262.44 822.40 2040.37 1036.41 2022.90 1215.55 2223.13 1220.15
00008413 00000043 1914.81 412.21 693.96 1086.51 1998.64 819.96 2262.33 822.78 2038.39 1033.66 2027.17 1221.09 2224.65 1223.50
00008414 00000044 1914.50 415.61 695.14 1086.84 1999.17 818.17 2261.66 822.46 2037.52 1034.48 2026.93 1221.48 2225.77 1225.15
00008415 00000045 1910.85 413.50 694.76 1089.22 1997.89 817.84 2261.49 824.85 2035.25 1034.96 2022.03 1217.50 2226.43 1223.48
00008416 00000046 1908.02 414.09 699.89 1086.81 1994.77 816.67 2260.24 825.25 2033.32 1032.40 2017.90 1215.40 2224.46 1222.60
00008417 00000047 1908.45 416.15 696.91 1082.63 1994.74 815.50 2258.78 823.30 2033.06 1032.85 2017.96 1213.80 2222.94 1220.43
00008418 00000048 1906.36 417.68 698.69 1080.15 1992.35 815.15 2255.68 824.14 2030.75 1034.50 2014.64 1209.14 2222.04 1216.80
00008419 00000049 1904.13 416.15 699.24 1082.83 1990.72 815.66 2254.17 826.28 2028.47 1034.99 2011.09 1207.69 2218.84 1216.98
00008420 00000050 1902.11 414.28 702.23 1083.68 1987.23 815.36 2249.84 824.28 2023.76 1031.88 2008.94 1208.11 2214.87 1215.83
00008421 00000051 1901.59 413.76 699.93 1084.36 1987.44 815.54 2247.09 823.38 2021.53 1030.36 2009.07 1208.73 2212.61 1215.53
00008422 00000052 1900.03 412.55 699.20 1087.51 1983.63 817.64 2242.15 826.25 2016.68 1031.97 2004.51 1208.37 2208.15 1215.84
00008423 00000053 1897.95 414.47 701.60 1088.15 1982.62 818.91 2240.50 827.88 2013.63 1032.60 2004.39 1210.20 2204.99 1217.83
00008424 00000054 1899.76 418.24 698.83 1085.32 1983.01 818.93 2240.01 825.89 2018.65 1032.62 2008.76 1211.93 2206.55 1217.84
00008425 00000055 1903.39 416.65 697.48 1085.44 1987.50 822.49 2247.18 828.84 2028.33 1028.73 2015.51 1212.18 2213.23 1217.49
00008426 00000056 1903.44 417.78 702.06 1078.10 1990.24 826.23 2250.63 839.19 2029.89 1035.49 2016.75 1203.37 2225.05 1213.35
00008427 00000057 1903.15 408.67 705.04 1074.89 2004.81 828.08 2255.67 838.20 2045.51 1043.87 2032.78 1204.18 2248.11 1213.93
00008428 00000058 1902.15 403.04 711.04 1086.98 2009.12 827.42 2264.87 835.78 2054.18 1046.76 2039.36 1209.82 2255.73 1218.18
00008429 00000059 1903.07 403.41 713.63 1087.81 2010.89 829.72 2269.90 833.05 2061.37 1047.17 2047.12 1217.22 2262.26 1221.69
00008430 00000060 1904.25 404.58 713.31 1093.38 2010.75 829.73 2273.52 833.23 2064.92 1049.11 2047.66 1221.33 2264.42 1226.02
00008431 00000061 1899.94 407.97 717.24 1078.09 2009.42 831.52 2274.71 839.47 2063.62 1052.00 2040.25 1215.80 2258.70 1224.27
00008432 00000062 1899.60 408.45 714.14 1069.46 2010.45 831.11 2275.06 843.28 2063.94 1054.25 2038.95 1213.06 2254.84 1225.07
00008433 00000063 1902.40 411.21 711.91 1065.22 2011.36 831.25 2274.96 843.10 2063.50 1053.94 2038.72 1213.03 2252.77 1225.03
00008434 00000064 1902.56 408.62 713.11 1070.37 2012.99 830.85 2276.65 842.14 2066.48 1053.95 2041.76 1215.60 2253.54 1227.36
00008435 00000065 1905.31 405.45 713.52 1083.32 2013.92 831.13 2278.09 839.66 2069.93 1054.89 2046.61 1220.99 2258.37 1230.54
00008436 00000066 1906.12 406.21 716.06 1086.85 2016.65 830.89 2280.33 839.29 2071.98 1054.72 2051.43 1221.14 2263.81 1230.39
00008437 00000067 1908.92 405.38 712.88 1091.76 2017.86 830.40 2281.86 838.61 2073.50 1054.76 2051.12 1222.47 2263.85 1231.80
00008438 00000068 1911.03 405.66 711.92 1089.29 2018.22 829.47 2284.13 838.70 2075.34 1055.77 2049.23 1220.24 2264.76 1230.43
00008439 00000069 1913.59 403.31 710.19 1087.79 2020.13 829.22 2284.60 839.42 2075.77 1056.83 2049.61 1218.86 2262.69 1229.91
00008440 00000070 1918.33 405.13 699.82 1088.44 2010.98 824.88 2299.07 836.97 2080.69 1059.16 2046.85 1227.49 2259.85 1237.49
00008441 00000071 1920.88 409.37 697.65 1090.11 2012.89 827.15 2299.78 838.69 2077.96 1063.15 2050.98 1228.60 2264.76 1238.02
00008442 00000072 1918.45 404.84 704.92 1089.47 2021.69 833.40 2283.98 841.92 2076.88 1061.36 2053.02 1224.36 2261.79 1234.34
00008443 00000073 1920.49 404.38 704.04 1088.14 2021.63 833.86 2283.72 841.85 2075.96 1061.44 2055.04 1223.52 2264.38 1232.82
00008444 00000074 1919.07 400.59 706.44 1092.94 2022.74 828.67 2286.66 837.15 2078.02 1055.28 2053.16 1221.44 2264.97 1231.32
00008445 00000075 1919.62 399.35 707.10 1094.44 2022.96 825.96 2286.52 832.00 2078.19 1051.27 2053.93 1221.84 2264.06 1229.88
00008446 00000076 1922.41 394.94 703.03 1099.63 2025.01 823.59 2284.75 827.96 2078.50 1046.52 2055.78 1221.24 2262.83 1228.06
00008447 00000077 1922.18 394.39 702.64 1100.61 2025.30 822.02 2282.07 826.02 2076.50 1044.31 2057.99 1223.41 2260.02 1229.90
00008448 00000078 1924.48 392.41 700.00 1101.08 2025.03 820.58 2281.53 825.31 2073.87 1044.61 2055.54 1221.47 2259.41 1228.64
00008449 00000079 1921.72 394.08 702.89 1101.19 2025.59 819.50 2285.16 824.69 2076.27 1044.19 2055.12 1220.97 2261.27 1228.50
00008450 00000080 1924.68 391.71 701.33 1100.48 2027.99 818.86 2287.07 823.04 2078.16 1041.71 2056.21 1220.49 2260.95 1227.67
00008451 00000081 1926.24 391.71 700.02 1099.80 2028.78 817.21 2286.87 821.36 2078.23 1041.37 2056.59 1220.23 2261.44 1227.20
00008452 00000082 1925.49 394.73 701.24 1093.01 2028.18 814.24 2287.85 819.63 2077.94 1041.07 2055.05 1217.10 2260.99 1225.06
00008453 00000083 1923.27 393.51 700.81 1092.02 2026.51 814.95 2286.01 819.51 2076.85 1040.10 2054.06 1217.13 2258.09 1224.53
00008454 00000084 1923.38 392.78 701.08 1091.57 2025.42 814.31 2282.66 817.95 2074.26 1039.25 2053.67 1216.68 2257.08 1223.18
00008455 00000085 1921.87 396.40 701.20 1086.22 2023.93 812.13 2282.01 815.60 2072.37 1038.82 2051.51 1215.68 2254.90 1222.56
00008456 00000086 1919.55 394.69 701.64 1086.53 2021.43 810.57 2280.60 812.68 2070.34 1034.71 2050.81 1215.94 2253.68 1221.79
00008457 00000087 1921.14 392.95 698.00 1087.40 2019.70 805.75 2279.21 808.58 2066.31 1032.94 2047.20 1214.98 2247.20 1221.65
00008458 00000088 1920.19 393.73 696.81 1086.33 2018.91 806.93 2275.78 807.99 2063.73 1031.11 2047.39 1213.73 2249.08 1218.53
00008459 00000089 1919.26 394.13 696.83 1083.35 2017.25 802.42 2272.57 804.18 2058.07 1026.74 2044.45 1209.88 2244.16 1215.44
00008460 00000090 1921.94 394.63 692.13 1082.18 2016.52 800.82 2268.04 801.93 2053.91 1026.44 2045.14 1209.64 2241.90 1214.28
00008461 00000091 1918.00 409.21 701.45 1065.99 2007.56 795.57 2280.20 794.04 2063.71 1020.40 2043.91 1206.52 2236.80 1205.39
00008462 00000092 1921.34 392.61 689.41 1067.08 2013.00 795.53 2261.75 801.33 2050.40 1024.17 2038.86 1201.84 2226.37 1211.85
00008463 00000093 1919.35 384.49 692.51 1069.55 2011.22 792.56 2258.37 795.36 2050.20 1015.75 2036.80 1198.98 2221.30 1207.08
00008464 00000094 1926.07 387.43 696.19 1064.00 2022.00 786.12 2272.95 788.98 2044.23 996.84 2052.24 1193.85 2212.21 1196.87
00008465 00000095 1934.96 379.44 684.12 1079.44 2026.20 799.49 2260.16 798.24 2062.03 1013.19 2054.30 1204.42 2233.05 1209.05
00008466 00000096 1936.06 398.17 690.48 1053.03 2035.45 799.31 2279.25 796.88 2065.35 992.93 2071.82 1193.44 2231.78 1190.99
00008467 00000097 1933.44 388.59 699.43 1064.28 2034.99 799.01 2276.45 796.16 2088.72 1019.09 2070.40 1199.46 2252.07 1202.25
00008468 00000098 1937.86 386.31 705.62 1068.44 2041.58 799.85 2286.99 792.83 2097.52 1017.34 2079.24 1195.88 2270.46 1194.60
00008469 00000099 1938.22 389.80 710.73 1070.72 2041.97 806.00 2294.24 792.76 2100.46 1015.52 2080.62 1199.73 2280.80 1193.57
00008470 00000100 1938.37 390.51 714.93 1073.29 2043.34 808.23 2296.22 794.24 2100.19 1019.60 2082.92 1198.60 2290.28 1190.80
00008471 00000101 1939.79 389.66 715.07 1081.06 2045.06 809.78 2294.65 796.04 2097.95 1023.23 2085.05 1201.08 2291.43 1193.03
00008472 00000102 1941.49 396.66 716.41 1069.64 2045.76 812.69 2297.82 801.09 2098.14 1027.04 2085.79 1198.64 2294.97 1192.34
00008473 00000103 1943.51 400.78 718.08 1064.35 2046.18 812.94 2298.95 803.63 2095.51 1029.65 2084.72 1193.08 2299.10 1188.26
00008474 00000104 1945.10 400.90 715.34 1064.57 2048.00 816.42 2303.05 811.16 2099.26 1036.55 2085.26 1193.44 2301.98 1191.80
00008475 00000105 1947.43 403.95 713.30 1065.34 2049.25 818.09 2302.34 818.65 2098.36 1042.63 2086.42 1194.06 2301.75 1196.26
00008476 00000106 1947.27 407.42 710.17 1061.32 2049.15 821.08 2301.48 826.46 2096.99 1047.14 2086.41 1194.56 2299.22 1200.41
00008477 00000107 1944.49 427.88 702.88 1064.92 2052.13 821.56 2309.35 829.35 2098.83 1027.74 2090.08 1202.98 2280.80 1207.53
00008478 00000108 1944.67 431.15 702.27 1067.60 2055.09 822.94 2312.80 833.15 2105.06 1033.20 2091.97 1203.83 2285.71 1210.46
00008479 00000109 1946.49 411.49 713.70 1079.83 2049.84 827.11 2304.57 832.10 2101.19 1057.66 2091.08 1210.04 2301.99 1215.80
00008480 00000110 1954.83 421.17 706.87 1079.71 2045.35 838.22 2314.52 841.12 2107.75 1061.29 2090.69 1214.33 2312.46 1220.37
00008481 00000111 1942.91 407.98 719.39 1088.14 2048.86 830.89 2308.38 836.52 2102.99 1063.12 2091.52 1213.50 2306.47 1219.92
00008482 00000112 1942.98 429.28 706.72 1081.76 2052.59 830.07 2320.50 840.96 2109.96 1053.31 2094.02 1215.41 2296.50 1222.33
00008483 00000113 1940.17 427.82 707.79 1084.09 2050.16 830.63 2321.78 842.73 2109.93 1055.98 2088.89 1215.14 2296.35 1223.23
00008484 00000114 1938.48 428.03 708.00 1080.11 2049.64 829.55 2321.91 841.96 2108.59 1054.73 2089.06 1217.77 2289.21 1226.41
00008485 00000115 1933.56 421.12 713.92 1087.99 2048.67 827.80 2322.19 838.57 2108.09 1048.86 2089.55 1217.18 2291.04 1224.31
00008486 00000116 1933.83 402.45 723.44 1090.46 2045.65 834.47 2311.52 839.66 2105.05 1065.27 2085.97 1215.18 2303.97 1221.04
00008487 00000117 1935.53 423.93 714.20 1082.34 2049.62 828.82 2322.65 838.64 2109.79 1046.20 2090.23 1217.01 2290.43 1223.53
00008488 00000118 1935.10 424.08 715.59 1087.38 2047.96 828.21 2321.69 838.35 2107.37 1046.92 2087.05 1216.96 2291.35 1223.82
00008489 00000119 1936.83 409.63 722.94 1088.47 2045.04 836.83 2308.23 839.40 2103.48 1065.99 2088.47 1218.11 2305.61 1222.20
00008490 00000120 1937.77 409.03 724.18 1084.81 2045.78 836.05 2309.75 839.06 2104.44 1064.90 2089.47 1214.80 2307.50 1219.26
00008491 00000121 1938.98 408.59 723.24 1087.79 2047.25 833.03 2309.93 835.32 2106.59 1062.05 2091.94 1214.25 2309.97 1217.95
00008492 00000122 1940.79 410.82 720.80 1086.90 2047.60 831.09 2310.12 831.26 2106.19 1058.04 2091.82 1215.70 2309.04 1217.70
00008493 00000123 1941.91 406.44 720.15 1088.11 2048.17 828.11 2311.29 829.64 2106.25 1057.12 2091.32 1213.45 2308.56 1216.57
00008494 00000124 1941.64 428.08 713.08 1078.01 2054.10 821.68 2322.15 830.01 2113.11 1034.24 2095.75 1212.85 2294.20 1217.80
00008495 00000125 1942.93 422.65 712.62 1083.08 2057.81 823.12 2322.58 830.86 2114.09 1031.41 2096.38 1211.01 2293.36 1215.80
00008496 00000126 1941.65 418.30 712.58 1077.51 2058.01 820.94 2320.81 830.41 2112.62 1033.09 2094.37 1211.33 2284.65 1217.61
00008497 00000127 1943.29 420.24 710.31 1073.42 2059.73 818.19 2320.94 828.31 2113.84 1030.38 2095.70 1211.46 2280.88 1218.42
00008498 00000128 1943.78 421.27 708.68 1073.96 2061.51 817.79 2324.48 828.37 2115.43 1029.43 2095.37 1215.65 2278.77 1223.01
00008499 00000129 1944.96 423.16 707.17 1069.29 2064.23 816.65 2323.94 827.38 2116.73 1026.28 2099.79 1213.12 2278.83 1220.38
00008500 00000130 1946.58 425.15 701.36 1067.22 2065.59 820.41 2322.42 833.76 2115.41 1024.14 2098.41 1209.71 2277.42 1218.73
00008501 00000131 1946.20 422.97 702.71 1067.75 2066.13 823.77 2322.37 834.88 2118.07 1025.79 2100.77 1210.11 2282.22 1217.13
00008502 00000132 1945.37 422.65 706.14 1067.96 2061.56 818.06 2325.66 828.01 2116.44 1027.81 2093.79 1205.45 2287.45 1212.06
00008503 00000133 1943.42 419.82 711.15 1076.10 2055.58 818.16 2325.00 824.91 2114.31 1028.12 2090.11 1207.68 2289.96 1211.92
00008504 00000134 1941.99 423.24 711.74 1074.66 2056.19 819.96 2320.06 823.71 2113.09 1024.68 2098.18 1209.06 2291.91 1210.30
00008505 00000135 1942.48 419.67 709.23 1076.97 2051.83 819.03 2312.90 819.91 2105.99 1021.93 2093.08 1209.30 2284.54 1208.40
00008506 00000136 1943.37 400.02 711.90 1082.07 2046.09 824.94 2301.73 817.34 2099.31 1041.84 2085.34 1210.91 2295.78 1207.26
00008507 00000137 1944.24 401.26 710.43 1080.12 2043.78 822.59 2297.80 813.20 2095.85 1038.70 2082.37 1210.40 2291.09 1205.91
00008508 00000138 1943.46 398.98 710.33 1085.59 2043.29 819.60 2294.76 809.05 2092.84 1036.62 2080.92 1211.55 2286.40 1206.26
00008509 00000139 1943.12 402.17 705.68 1080.47 2042.42 817.78 2294.08 807.80 2093.63 1036.88 2080.49 1209.37 2286.89 1204.51
00008510 00000140 1942.55 404.15 705.82 1075.88 2041.55 817.45 2294.30 807.55 2092.68 1035.19 2078.67 1206.24 2286.80 1201.51
00008511 00000141 1943.17 402.92 705.20 1074.13 2040.43 817.27 2290.71 806.99 2090.58 1034.53 2079.06 1205.97 2285.29 1201.13
00008512 00000142 1942.69 402.65 705.22 1074.87 2040.34 816.83 2290.55 806.46 2089.51 1034.55 2078.27 1205.10 2284.98 1200.07
00008513 00000143 1941.79 403.30 704.72 1075.39 2039.65 816.74 2288.57 806.69 2088.20 1035.00 2077.68 1205.06 2284.01 1200.07
00008514 00000144 1943.36 399.73 704.13 1079.81 2041.48 815.83 2290.62 805.95 2088.43 1033.67 2077.98 1204.18 2285.46 1199.26
00008515 00000145 1943.99 398.65 705.79 1079.41 2041.36 814.25 2289.56 805.39 2085.62 1031.97 2076.52 1201.30 2285.71 1197.21
00008516 00000146 1947.13 398.33 701.59 1081.75 2042.35 812.65 2290.82 802.01 2087.06 1030.77 2077.41 1202.35 2285.74 1196.94
00008517 00000147 1944.94 394.29 700.33 1089.11 2042.73 812.30 2291.69 800.20 2087.89 1026.38 2077.27 1206.24 2284.53 1199.91
00008518 00000148 1944.99 394.15 703.21 1091.66 2044.75 807.85 2294.02 796.36 2091.39 1024.52 2076.84 1205.03 2283.34 1199.04
00008519 00000149 1945.60 392.74 700.48 1087.94 2047.10 805.69 2295.23 796.54 2091.57 1023.52 2078.67 1201.40 2284.60 1197.14
00008520 00000150 1945.11 398.94 704.81 1067.27 2045.96 804.49 2298.47 797.41 2092.47 1021.11 2074.57 1189.22 2289.43 1186.99
00008521 00000151 1946.68 395.64 703.33 1054.15 2042.92 803.19 2296.89 799.01 2088.84 1015.47 2069.00 1181.37 2286.80 1182.20
00008522 00000152 1948.80 387.84 705.80 1057.40 2045.43 792.77 2300.71 786.43 2093.79 1001.15 2070.72 1170.22 2292.26 1169.24
00008523 00000153 1949.51 374.39 712.56 1068.83 2051.39 792.99 2306.86 786.05 2102.35 988.75 2071.95 1163.43 2297.50 1162.06
00008524 00000154 1953.50 371.29 712.26 1067.21 2055.24 796.40 2310.59 791.80 2106.10 993.12 2075.42 1163.33 2302.38 1163.48
00008525 00000155 1943.81 380.84 712.35 1075.98 2036.51 787.35 2318.30 803.54 2089.05 997.00 2061.59 1172.39 2281.24 1187.68
00008526 00000156 1942.17 389.49 712.91 1073.79 2036.62 790.76 2315.82 808.19 2090.01 1007.46 2066.07 1176.53 2283.41 1191.79
00008527 00000157 1937.94 398.41 712.71 1076.69 2033.28 793.24 2314.48 813.38 2085.68 1014.79 2064.57 1189.03 2277.13 1206.60
