Video ID: 	lCefoPM3MTE
H: 	1080
W: 	1920
FPS: 	23.976023976023978

FRAME INDEX X0 Y0 W H [Landmarks (5 Points)]

00003521 00000000 834.06 170.44 364.92 521.54 999.66 362.56 1143.95 388.19 1096.29 463.29 992.72 542.95 1108.74 564.79
00003522 DELETE   840.79 170.30 365.84 524.92 1008.78 361.91 1153.95 390.60 1102.67 465.71 1000.22 546.18 1110.28 570.08
00003523 00000002 847.22 170.35 370.27 536.95 1017.95 362.59 1161.46 396.06 1109.30 469.41 1003.88 548.17 1115.88 575.87
00003524 00000003 848.48 175.20 374.75 538.34 1022.19 362.27 1163.94 400.55 1110.65 473.38 1002.71 548.97 1114.88 580.60
00003525 00000004 850.45 172.85 375.76 537.47 1021.50 361.32 1163.94 400.56 1109.09 471.72 1000.00 547.74 1112.92 580.12
00003526 00000005 850.90 171.81 371.25 531.24 1019.07 361.92 1163.42 397.39 1106.95 471.44 1001.36 550.96 1109.70 579.91
00003527 00000006 849.50 174.30 370.57 526.62 1015.97 362.66 1161.51 396.03 1103.06 473.04 997.94 551.60 1107.07 578.96
00003528 00000007 847.10 173.41 370.26 531.88 1011.27 364.20 1156.61 398.72 1097.11 474.77 993.73 551.71 1104.27 580.14
00003529 00000008 844.43 172.70 369.99 534.97 1005.41 365.13 1151.53 400.22 1090.55 475.11 989.94 552.30 1100.64 581.46
00003530 00000009 841.30 174.58 369.58 530.75 1000.39 366.97 1147.86 400.13 1086.27 475.37 985.96 552.50 1099.15 580.16
00003531 00000010 839.45 176.14 367.82 530.01 997.25 367.11 1144.88 400.30 1081.91 478.86 983.15 553.65 1095.08 581.43
00003532 00000011 835.11 174.42 371.31 536.01 991.36 366.15 1141.25 401.21 1076.41 480.21 975.63 552.40 1093.40 581.86
00003533 00000012 831.37 172.78 373.96 540.59 986.40 365.54 1137.32 399.88 1071.53 483.12 971.18 553.60 1090.21 582.49
00003534 00000013 825.88 171.57 375.95 542.28 978.46 364.89 1132.60 396.43 1067.50 483.71 967.05 556.01 1086.71 582.57
00003535 00000014 828.07 178.15 372.16 529.91 976.83 368.53 1131.40 400.73 1071.57 477.76 960.40 554.57 1092.91 582.94
00003536 00000015 822.19 177.06 372.23 532.54 971.62 367.59 1123.65 401.05 1063.83 475.25 954.65 552.84 1086.43 581.68
00003537 00000016 818.84 173.90 370.27 532.50 965.91 367.23 1119.37 399.25 1058.94 475.28 951.20 552.96 1083.04 580.45
00003538 00000017 814.76 173.68 369.22 534.18 960.20 369.47 1111.95 398.45 1053.19 476.68 947.04 553.40 1078.99 578.66
00003539 00000018 812.33 176.74 366.13 531.15 955.72 367.85 1108.34 396.51 1048.22 475.97 943.55 553.60 1074.98 578.43
00003540 00000019 805.98 175.77 368.93 533.07 951.02 366.05 1102.65 393.69 1042.18 475.64 941.42 553.75 1069.30 577.33
00003541 00000020 801.68 174.37 369.95 532.09 943.98 366.29 1098.91 391.84 1036.65 471.26 937.46 554.11 1065.53 575.64
00003542 00000021 798.65 171.21 369.20 529.37 936.57 365.75 1094.47 390.13 1029.40 467.76 933.53 553.00 1062.47 573.05
00003543 00000022 794.46 168.68 368.58 529.53 928.44 367.18 1088.33 387.85 1021.75 467.33 929.60 553.76 1059.90 570.56
00003544 00000023 790.56 169.51 367.93 529.19 923.49 368.79 1084.09 386.58 1015.69 469.74 925.15 555.10 1055.48 569.62
00003545 00000024 784.82 170.61 370.30 532.62 919.49 367.87 1079.14 384.39 1010.81 472.93 919.76 555.28 1049.85 569.06
00003546 00000025 780.58 169.54 370.18 538.26 916.04 367.37 1072.13 382.04 1006.64 474.44 916.34 555.99 1046.19 568.45
00003547 00000026 774.02 167.46 370.58 543.36 907.14 366.06 1067.11 379.62 1000.76 474.64 912.76 559.08 1043.11 570.52
00003548 00000027 766.87 168.74 375.08 542.42 897.07 366.92 1061.56 378.94 993.82 473.25 906.95 560.11 1040.58 570.28
00003549 00000028 765.26 178.80 371.19 538.51 892.85 377.90 1053.62 385.22 991.33 477.65 901.24 565.39 1044.79 572.16
00003550 00000029 759.15 177.02 369.69 542.59 886.70 384.58 1043.54 392.60 984.13 480.46 892.21 565.92 1035.85 573.55
00003551 DELETE   757.09 173.48 365.16 538.26 878.69 387.98 1035.32 392.69 978.36 480.08 887.77 565.64 1030.18 570.38
00003552 00000031 752.80 170.13 363.52 530.57 867.53 390.34 1031.10 392.64 969.52 479.99 882.60 567.78 1026.67 570.50
00003553 DELETE   748.96 174.57 361.83 520.91 861.55 391.55 1025.05 392.37 960.71 479.07 878.72 566.33 1021.78 567.73
00003554 DELETE   745.11 174.69 361.81 517.68 854.40 393.10 1017.37 390.36 951.08 480.30 874.44 567.20 1014.65 565.68
00003555 00000034 740.46 176.75 362.97 519.55 850.36 394.00 1009.14 388.04 946.03 482.32 874.34 569.11 1007.91 564.53
00003556 00000035 736.93 175.92 362.57 516.53 844.53 395.21 1002.47 385.33 940.00 481.16 872.05 569.33 1003.88 561.27
00003557 00000036 732.83 178.43 362.17 516.00 840.58 394.19 997.91 381.68 937.76 481.64 871.99 570.73 1002.34 560.25
00003558 00000037 729.51 181.06 359.12 511.06 836.69 394.62 992.15 380.75 933.04 483.06 868.11 570.99 997.42 559.86
00003559 00000038 724.70 177.64 365.33 528.54 831.02 393.35 988.60 380.37 928.23 484.84 862.64 573.07 1000.35 562.37
00003560 00000039 720.17 180.70 369.38 541.06 827.56 394.06 981.47 384.20 920.48 487.19 857.36 573.28 998.78 564.54
00003561 00000040 715.78 179.57 369.16 544.38 820.35 395.22 976.99 384.60 913.94 488.69 852.27 575.95 996.43 566.55
00003562 00000041 710.05 182.93 370.59 540.13 811.49 395.75 970.99 383.03 907.19 489.33 848.85 578.14 993.98 566.75
00003563 00000042 702.03 182.63 373.99 541.70 803.08 397.12 962.24 383.33 898.42 491.23 846.51 580.77 989.55 568.05
00003564 00000043 695.31 180.89 376.26 548.47 797.23 397.14 953.61 385.07 890.91 488.93 838.81 580.01 982.70 568.53
00003565 00000044 683.30 192.47 380.07 544.16 783.82 401.58 945.23 384.32 879.97 493.03 823.91 584.46 970.38 570.16
00003566 00000045 677.39 192.58 380.64 546.42 775.33 402.99 936.19 380.58 869.89 494.92 817.18 588.93 964.41 570.21
00003567 00000046 670.25 190.59 381.10 548.00 768.81 402.58 923.39 379.89 859.94 498.20 813.62 589.24 953.97 570.24
00003568 00000047 670.21 193.04 375.10 545.41 765.83 404.80 914.21 380.68 851.59 498.96 810.96 590.44 947.17 570.02
00003569 00000048 669.01 193.85 371.83 541.89 762.38 404.46 906.74 381.75 843.36 498.59 805.28 587.41 939.07 568.20
00003570 00000049 667.68 195.65 370.99 536.97 757.57 406.28 901.01 382.56 835.84 499.58 800.98 587.19 932.84 567.01
00003571 00000050 665.89 194.67 371.25 526.54 752.10 408.65 897.91 384.37 831.54 500.20 796.51 583.85 928.67 563.49
00003572 00000051 664.45 196.68 371.77 521.82 750.03 409.67 894.17 387.11 826.57 499.49 793.65 583.81 921.43 565.21
00003573 00000052 661.83 194.36 374.50 521.66 747.32 407.84 893.65 386.29 823.83 496.52 789.81 582.52 918.46 564.73
00003574 00000053 661.73 193.91 373.63 517.86 745.87 406.35 892.01 385.71 820.84 496.22 788.53 582.50 913.29 565.60
00003575 00000054 659.69 191.66 376.42 524.30 744.07 404.47 889.88 384.91 816.05 494.85 784.87 582.07 910.05 566.07
00003576 00000055 661.67 184.79 374.32 536.69 743.31 402.09 890.17 383.03 813.97 493.76 782.52 584.14 908.91 568.56
00003577 00000056 663.97 184.05 372.49 537.23 743.83 400.65 890.47 382.92 811.56 493.14 780.56 582.00 907.97 567.55
00003578 00000057 664.13 184.50 371.65 532.41 744.10 400.25 891.38 382.78 812.75 490.83 779.66 580.59 906.89 566.63
00003579 00000058 666.74 183.61 369.17 526.93 745.34 399.36 893.28 381.87 814.10 488.30 780.58 578.85 905.44 564.97
00003580 00000059 667.67 181.53 371.02 532.60 746.87 399.94 895.26 382.07 816.24 487.71 779.85 577.21 910.28 562.98
00003581 00000060 668.28 179.66 376.00 547.76 750.59 398.36 898.80 380.60 819.00 487.19 785.50 579.42 918.17 564.65
00003582 00000061 671.34 180.39 374.43 544.51 756.42 400.75 902.93 384.21 825.83 489.32 790.53 579.07 922.21 565.71
00003583 00000062 675.22 182.83 370.45 528.41 758.10 403.17 904.56 387.73 827.70 492.13 790.46 576.55 918.71 564.38
00003584 00000063 677.22 180.69 371.60 529.09 759.85 401.48 906.62 387.15 830.61 492.06 792.24 575.58 920.92 564.39
00003585 00000064 678.93 178.57 371.86 533.75 764.37 399.06 909.58 387.45 835.03 492.04 795.82 575.96 921.52 566.74
00003586 00000065 680.39 177.31 370.81 535.54 766.34 397.87 911.20 387.41 837.34 491.20 796.25 574.56 922.83 566.26
00003587 00000066 681.09 175.73 371.63 536.10 766.21 397.30 914.28 386.76 840.04 490.05 796.46 574.16 926.20 565.67
00003588 00000067 681.85 176.53 371.79 538.64 768.53 395.59 917.04 385.95 842.57 489.74 797.77 574.50 928.87 566.60
00003589 00000068 682.03 177.98 373.22 541.22 769.18 394.93 919.62 384.69 844.34 489.20 797.52 575.03 932.52 566.59
00003590 00000069 682.74 177.65 373.22 542.06 769.09 394.54 921.02 384.99 844.76 489.84 797.26 575.18 934.28 567.37
00003591 00000070 682.77 179.14 372.71 541.31 768.27 396.40 921.17 385.44 844.71 490.03 797.31 576.07 935.94 567.11
00003592 00000071 682.23 178.24 372.36 541.55 767.77 397.02 919.36 385.91 843.87 489.53 796.37 575.26 934.55 566.37
00003593 00000072 681.56 177.26 372.57 539.79 766.31 397.58 917.38 385.95 842.19 489.55 795.82 574.68 933.35 565.21
00003594 00000073 680.60 177.57 372.93 537.64 766.21 397.57 916.31 385.79 842.06 489.90 796.48 574.40 931.94 564.87
00003595 00000074 680.55 177.33 372.61 535.93 765.68 397.78 915.78 385.88 842.12 489.10 796.64 573.94 931.53 564.27
00003596 00000075 680.38 175.54 372.33 535.39 764.95 398.05 914.84 386.13 841.11 489.19 797.22 574.08 929.91 564.35
00003597 00000076 680.28 176.82 371.74 535.28 764.40 399.01 913.59 386.02 840.23 489.15 796.49 574.36 929.70 564.11
00003598 00000077 679.77 178.22 371.21 534.25 763.69 399.24 912.25 385.82 838.89 488.69 795.41 574.05 928.86 563.39
00003599 00000078 677.76 177.98 371.79 534.62 762.40 400.16 909.19 386.20 836.67 489.60 794.49 574.57 925.85 563.45
00003600 00000079 676.10 178.62 372.95 533.70 761.11 400.29 907.82 385.34 834.91 489.90 793.77 574.85 924.41 562.90
00003601 00000080 675.36 177.90 373.46 533.83 759.91 401.52 906.65 385.47 834.15 490.38 793.46 575.09 924.02 562.24
00003602 00000081 674.25 178.93 373.24 531.05 758.16 402.47 906.05 385.85 833.17 491.82 792.72 576.99 921.70 563.78
00003603 00000082 673.92 179.43 372.28 528.48 757.03 402.93 904.87 385.57 831.56 490.95 794.13 578.03 919.97 564.17
00003604 00000083 673.18 179.21 372.25 525.03 755.39 402.99 904.61 385.51 830.46 491.06 793.31 577.55 919.62 563.41
00003605 00000084 672.74 179.01 372.23 522.62 753.94 402.22 903.64 384.89 828.98 490.10 791.88 576.52 918.41 562.44
00003606 00000085 672.18 177.99 372.33 525.25 753.21 401.80 903.08 384.55 827.50 489.17 790.52 575.73 918.98 561.63
00003607 00000086 671.79 176.79 372.51 526.65 752.21 401.37 902.83 384.86 826.12 489.19 789.61 576.30 917.76 562.71
00003608 00000087 671.67 180.21 372.53 530.29 754.77 402.26 901.54 385.65 826.87 489.89 789.95 576.22 918.23 562.78
00003609 00000088 671.58 180.13 372.49 534.17 754.42 402.63 900.56 385.78 825.54 490.23 788.83 575.82 919.20 562.09
00003610 00000089 670.72 180.25 372.86 535.11 752.77 403.19 899.57 385.94 823.43 488.59 786.58 575.99 919.40 562.03
00003611 00000090 669.66 179.85 372.69 536.35 750.56 403.50 897.61 385.69 820.71 488.22 785.03 576.44 918.15 561.99
00003612 00000091 669.07 180.30 372.43 538.77 749.65 403.30 895.76 386.08 818.18 488.66 782.49 576.38 915.87 562.49
00003613 00000092 669.82 180.93 371.34 538.57 748.25 402.55 894.66 385.92 814.95 487.27 780.00 576.51 913.27 563.26
00003614 00000093 669.87 182.15 370.30 536.76 746.41 401.64 893.20 386.21 811.31 487.32 775.65 575.54 910.30 563.36
00003615 00000094 669.55 181.21 370.84 534.71 744.77 401.32 892.36 386.61 808.19 487.59 772.59 574.43 907.28 562.77
00003616 00000095 671.38 181.86 368.05 524.27 743.70 400.04 892.74 387.04 805.44 486.58 770.18 572.62 903.26 562.60
00003617 00000096 671.85 181.12 366.90 522.63 741.95 398.75 890.89 386.43 802.16 486.02 768.24 571.99 899.42 562.66
00003618 00000097 672.35 179.03 364.98 524.16 741.93 397.12 890.19 385.96 800.37 482.53 766.61 570.94 895.69 562.95
00003619 00000098 672.28 178.03 364.43 521.90 741.90 394.61 889.31 384.67 800.10 481.18 766.30 569.02 892.89 562.06
00003620 00000099 672.80 178.94 364.52 518.06 742.30 391.24 889.25 381.02 800.53 478.15 767.16 565.64 893.21 558.39
00003621 00000100 673.01 174.75 366.67 524.82 743.62 388.81 890.27 377.14 802.72 477.37 772.03 567.98 892.98 559.21
00003622 00000101 673.58 169.28 369.49 531.39 748.71 391.52 893.56 376.67 812.27 481.12 779.64 569.67 901.10 558.13
00003623 DELETE   672.60 171.13 372.72 530.45 755.17 391.52 898.35 376.86 823.55 479.83 788.54 567.52 908.48 556.01
00003624 00000103 675.99 166.18 371.19 530.31 759.07 384.21 904.52 369.30 832.28 470.78 797.89 563.73 916.87 551.91
00003625 DELETE   680.84 163.16 370.85 527.07 765.21 377.02 913.96 363.31 844.87 463.10 805.78 560.21 925.69 548.81
00003626 00000105 686.75 157.87 366.05 527.20 767.79 373.70 921.52 358.74 852.77 459.29 809.53 560.82 933.20 548.75
00003627 00000106 689.66 157.74 365.87 532.73 774.27 374.02 925.82 360.42 861.69 459.06 818.35 561.96 941.01 550.97
00003628 00000107 692.21 157.85 363.85 544.48 779.59 375.24 930.87 363.46 865.68 461.20 820.22 568.21 942.55 558.92
00003629 00000108 694.59 158.22 362.63 561.53 781.25 376.59 933.76 365.09 864.49 464.45 821.90 576.18 945.27 566.51
00003630 00000109 694.52 161.88 362.88 558.89 781.54 376.26 934.50 366.55 864.23 466.00 820.85 575.73 944.81 567.56
00003631 00000110 694.78 160.91 363.56 555.00 781.28 376.00 934.14 365.04 864.97 463.84 821.24 573.71 944.77 564.53
00003632 00000111 696.31 159.36 362.57 542.49 781.55 374.88 935.52 362.85 868.39 460.32 822.78 568.69 947.32 559.07
00003633 00000112 696.89 160.38 362.46 537.14 784.36 371.89 936.45 360.67 872.50 458.48 826.13 563.03 949.69 554.08
00003634 00000113 699.17 163.30 360.58 535.73 785.40 374.56 937.31 363.92 873.36 461.62 828.30 566.50 949.81 557.94
00003635 00000114 693.18 165.15 365.50 546.80 790.22 377.15 938.94 377.09 873.75 468.39 828.65 569.65 939.73 570.30
00003636 00000115 694.73 171.10 365.31 549.42 788.66 383.73 939.15 382.89 871.42 475.63 830.00 579.15 941.13 579.13
00003637 00000116 693.47 171.05 368.84 549.49 788.31 384.88 942.37 383.42 872.74 479.00 824.65 574.36 949.63 573.47
00003638 00000117 694.09 175.53 368.30 533.97 781.81 388.42 939.86 376.12 869.92 479.75 822.51 575.35 952.86 565.39
00003639 00000118 690.78 174.04 369.85 535.65 777.67 388.65 936.57 375.12 867.30 477.80 818.81 575.71 951.41 564.71
00003640 00000119 687.50 175.06 372.02 538.28 775.08 388.42 933.47 375.68 864.18 476.58 813.17 573.38 950.28 562.82
00003641 00000120 683.30 177.65 373.02 529.37 769.16 388.94 926.62 374.08 857.19 474.15 808.78 570.82 945.45 558.45
00003642 00000121 681.71 173.64 372.15 530.49 765.73 388.06 922.67 372.19 852.84 472.69 805.49 569.89 941.90 556.92
00003643 00000122 679.62 173.26 372.05 529.32 762.79 387.78 918.38 370.48 848.14 470.85 802.07 568.03 937.71 554.11
00003644 00000123 679.22 174.16 369.45 528.52 761.79 388.30 914.81 370.81 844.66 472.71 799.59 567.66 933.93 553.76
00003645 00000124 676.07 174.69 370.92 527.55 758.86 390.72 913.01 372.75 841.90 475.15 796.57 569.22 931.61 555.10
00003646 00000125 674.40 174.83 370.78 526.39 758.18 391.13 911.12 373.53 840.53 475.35 794.50 568.79 928.34 554.96
00003647 00000126 673.78 174.27 370.27 524.17 755.92 390.57 909.66 372.61 838.48 475.11 792.65 568.07 926.10 553.93
00003648 00000127 673.36 174.06 370.57 525.00 755.43 390.79 908.55 372.32 837.32 474.93 791.99 568.59 924.76 554.04
00003649 00000128 673.56 174.82 370.11 524.79 755.61 392.76 908.42 374.42 836.37 475.63 791.37 569.14 924.54 554.64
00003650 00000129 673.56 175.73 370.16 525.08 755.54 394.51 907.67 375.43 836.20 476.10 791.66 569.73 925.22 554.75
00003651 00000130 672.81 175.93 371.07 526.39 755.40 395.37 907.24 376.56 835.54 477.22 791.77 570.65 924.95 555.78
00003652 00000131 672.83 176.09 371.79 527.57 754.74 395.80 906.82 377.57 833.76 478.49 790.39 571.23 924.15 556.90
00003653 00000132 672.46 175.55 371.58 529.98 754.44 396.79 905.62 378.87 832.26 480.66 789.77 572.31 923.20 557.91
00003654 00000133 671.59 175.60 371.70 529.93 753.22 397.17 905.15 379.63 830.93 481.26 789.16 573.18 922.35 558.96
00003655 00000134 670.01 175.33 373.80 533.34 752.67 397.85 903.47 380.62 828.97 482.40 787.66 573.46 920.46 559.48
00003656 00000135 669.13 175.59 373.71 533.27 752.12 397.82 902.71 381.68 827.66 483.21 786.77 573.54 919.57 560.36
00003657 00000136 667.86 174.97 374.04 535.83 750.93 398.33 902.12 382.06 826.41 484.23 785.56 574.46 919.02 561.13
00003658 00000137 667.37 174.51 374.08 535.17 750.88 398.87 901.60 382.66 825.81 484.28 785.60 574.44 917.91 561.18
00003659 00000138 667.52 175.41 373.21 534.57 750.49 399.36 900.51 383.05 824.48 485.02 784.93 574.65 917.19 561.31
00003660 00000139 667.32 176.60 372.82 532.78 750.07 399.32 900.60 383.19 823.67 485.26 784.05 574.50 917.07 561.37
00003661 00000140 667.07 176.45 372.47 532.65 749.72 399.47 900.54 383.37 823.68 485.03 784.21 574.72 917.03 561.58
00003662 00000141 667.54 177.36 372.36 531.22 749.44 399.23 900.59 383.50 822.97 485.18 784.23 574.84 916.69 561.96
00003663 00000142 667.75 177.77 372.02 530.77 749.62 399.12 900.65 383.36 823.03 484.80 784.17 574.75 916.49 561.89
00003664 00000143 667.72 177.32 372.38 532.22 749.67 399.14 900.37 383.06 823.20 484.44 784.27 575.06 916.24 561.98
00003665 00000144 667.54 176.99 373.28 533.10 749.99 399.78 900.41 383.12 823.75 484.24 784.73 575.11 916.92 561.50
00003666 00000145 667.69 177.14 373.06 533.47 750.01 399.50 900.40 382.92 823.81 484.39 784.85 575.25 916.81 561.68
00003667 00000146 667.75 176.97 372.79 533.78 750.43 399.59 900.26 382.85 824.08 484.32 785.43 575.54 916.66 561.86
00003668 00000147 667.76 177.66 372.70 532.74 750.46 399.77 900.68 382.66 823.96 484.60 784.87 575.85 916.21 561.95
00003669 00000148 667.42 178.30 373.21 533.03 750.54 400.05 900.25 382.96 824.05 484.40 785.20 575.92 916.31 562.02
00003670 00000149 667.39 178.25 373.15 533.74 751.06 399.91 900.19 383.10 824.08 484.92 785.29 575.75 916.14 562.08
00003671 00000150 667.44 177.56 373.20 535.37 750.09 399.62 900.09 382.38 823.53 484.37 784.69 576.23 916.40 562.22
00003672 00000151 667.25 177.53 373.02 533.04 749.53 399.52 900.39 382.12 823.39 484.80 784.39 575.71 916.65 561.54
00003673 00000152 667.82 176.55 371.72 528.14 748.16 398.64 900.29 382.27 822.41 484.87 784.32 575.89 913.35 562.52
00003674 00000153 667.41 178.13 371.85 524.35 747.66 398.27 900.00 381.82 821.73 484.76 785.12 576.22 911.49 562.91
00003675 00000154 667.58 177.71 371.74 524.08 747.77 398.92 899.85 382.35 821.61 485.41 784.48 576.06 911.26 562.68
00003676 00000155 667.00 176.31 372.61 528.27 747.27 398.78 899.09 382.21 820.88 484.88 784.49 576.85 911.15 563.43
00003677 00000156 666.84 177.15 372.31 530.79 748.40 399.50 897.66 382.41 820.96 484.11 785.35 577.04 910.43 563.36
00003678 00000157 667.23 178.54 372.52 532.22 749.38 399.25 897.50 382.44 821.59 484.36 785.27 576.13 911.22 562.69
00003679 00000158 667.11 180.07 372.19 533.27 750.32 399.67 898.82 382.53 823.02 483.35 784.98 576.14 914.14 562.42
00003680 00000159 668.28 180.28 371.70 532.89 751.06 399.80 899.46 382.15 823.96 483.75 786.33 576.42 915.81 562.24
00003681 00000160 668.69 179.43 371.84 532.67 750.65 399.49 899.94 381.42 824.14 483.70 786.04 576.02 916.61 561.47
00003682 00000161 668.17 178.03 372.47 533.89 750.90 399.28 900.07 381.50 824.49 483.50 785.95 575.37 916.46 561.09
00003683 00000162 669.08 177.66 371.48 533.40 751.34 398.78 900.94 381.14 825.20 483.53 786.12 575.31 917.05 561.16
00003684 00000163 668.73 178.42 372.30 531.76 751.89 401.14 898.76 383.41 824.41 484.29 787.15 574.48 916.90 560.20
00003685 00000164 666.38 176.36 375.77 532.94 751.89 400.52 899.32 385.04 824.48 482.85 786.37 572.52 916.30 559.95
00003686 00000165 668.10 175.06 372.48 529.91 750.11 398.89 901.18 382.13 824.32 483.97 785.88 574.65 915.98 561.04
00003687 00000166 670.64 176.85 370.63 522.35 750.88 400.09 900.16 383.98 823.81 485.87 787.63 574.90 912.85 561.77
00003688 00000167 671.17 175.14 370.38 522.16 750.17 399.73 901.72 384.02 824.31 486.01 787.13 575.43 914.33 562.67
00003689 00000168 671.30 176.71 371.60 525.81 752.51 398.41 902.14 383.81 825.49 486.28 786.53 573.76 914.61 561.87
00003690 00000169 670.46 176.65 372.56 530.17 752.33 399.17 902.40 382.91 826.54 485.41 786.55 574.20 917.94 561.01
