Video ID: 	ehmJF1LX12E
H: 	1080
W: 	1920
FPS: 	25.0

FRAME INDEX X0 Y0 W H [Landmarks (5 Points)]

00003837 00000000 1122.85 143.07 355.58 534.24 1203.23 367.75 1369.46 359.93 1282.82 452.56 1233.67 556.84 1365.43 551.69
00003838 00000001 1124.20 142.43 354.79 539.97 1203.80 368.61 1370.87 361.26 1283.30 452.71 1233.18 559.07 1366.64 554.26
00003839 00000002 1123.83 140.81 355.56 541.36 1205.34 368.81 1371.49 361.57 1286.61 454.12 1235.23 558.57 1367.79 553.78
00003840 00000003 1121.56 140.07 358.48 537.74 1206.57 367.84 1374.06 361.20 1290.00 453.76 1236.12 555.51 1370.05 551.11
00003841 00000004 1118.08 138.41 361.95 531.51 1206.54 367.03 1374.50 360.45 1290.92 451.91 1236.82 550.95 1371.24 546.41
00003842 00000005 1117.19 137.13 362.45 529.30 1207.03 366.43 1375.48 360.56 1291.05 448.51 1236.94 547.16 1373.67 543.06
00003843 00000006 1116.09 135.99 363.33 528.73 1206.52 365.99 1375.64 360.50 1290.53 447.81 1235.98 545.55 1374.15 541.72
00003844 00000007 1112.80 135.85 366.39 529.02 1205.65 365.30 1375.03 360.17 1290.61 448.47 1234.93 545.43 1373.12 541.95
00003845 00000008 1114.67 135.89 364.69 530.98 1205.86 364.86 1375.29 360.09 1290.30 448.83 1234.15 546.08 1372.85 543.03
00003846 00000009 1117.55 137.07 361.31 532.16 1204.63 364.31 1374.00 360.58 1287.17 450.40 1231.12 546.29 1369.85 544.28
00003847 00000010 1119.17 138.88 358.64 530.45 1204.09 363.65 1372.74 360.24 1285.62 450.39 1229.14 545.28 1367.97 543.69
00003848 00000011 1122.67 139.00 355.90 532.59 1204.00 363.07 1371.49 359.58 1283.23 449.05 1228.31 546.09 1365.96 544.60
00003849 00000012 1123.55 139.50 355.58 535.74 1202.59 362.32 1370.61 359.38 1280.49 448.80 1226.66 547.56 1364.15 546.63
00003850 00000013 1127.14 139.37 351.75 536.58 1202.21 363.20 1368.43 359.79 1278.06 450.06 1225.55 547.65 1362.62 546.28
00003851 00000014 1122.10 139.16 355.68 533.32 1199.94 364.08 1367.75 361.18 1276.61 451.85 1224.17 546.44 1362.30 545.34
00003852 00000015 1123.55 141.43 353.54 526.65 1199.32 364.11 1366.75 361.67 1274.45 451.75 1223.05 544.33 1360.68 543.61
00003853 00000016 1119.61 139.64 356.15 524.07 1196.59 363.58 1365.39 362.06 1269.95 449.54 1219.47 542.79 1357.86 542.71
00003854 00000017 1117.92 136.25 356.61 525.09 1193.60 361.28 1361.03 361.14 1265.00 449.50 1214.45 539.69 1351.14 540.87
00003855 00000018 1116.67 134.82 355.92 524.23 1188.55 357.60 1354.33 358.81 1256.09 448.89 1206.56 536.75 1341.36 539.32
00003856 DELETE   1116.97 136.62 351.45 518.68 1184.70 355.19 1345.78 356.78 1247.11 443.37 1201.89 533.76 1329.93 537.05
00003857 DELETE   1116.03 135.77 350.84 518.16 1181.16 354.08 1339.55 356.39 1237.99 438.64 1195.17 532.36 1319.55 536.74
00003858 00000021 1114.34 138.25 351.10 514.04 1178.15 351.15 1335.19 354.73 1230.85 434.30 1187.52 529.10 1311.19 534.91
00003859 00000022 1114.07 135.88 350.67 515.03 1178.04 349.03 1333.38 353.21 1228.33 433.73 1186.12 527.37 1308.61 533.90
00003860 00000023 1114.12 134.32 349.91 515.35 1177.62 349.43 1331.84 353.52 1227.85 433.13 1186.33 526.42 1307.41 533.02
00003861 00000024 1115.54 135.94 349.21 513.58 1178.79 349.31 1331.15 352.23 1229.75 433.81 1189.48 528.07 1307.44 533.73
00003862 00000025 1116.23 135.94 349.40 515.51 1179.58 349.75 1331.60 352.11 1230.75 433.58 1191.27 529.62 1308.30 534.85
00003863 00000026 1116.94 136.29 350.50 517.47 1180.04 351.40 1333.69 352.39 1232.31 434.93 1193.19 532.59 1311.28 536.55
00003864 00000027 1118.07 136.20 349.35 523.08 1180.62 352.01 1335.52 353.68 1233.69 435.58 1192.57 536.70 1310.69 541.33
00003865 00000028 1119.09 137.66 348.55 523.65 1179.51 353.52 1334.92 355.91 1232.56 440.67 1191.17 537.85 1310.35 542.99
00003866 00000029 1118.44 139.67 347.78 521.56 1177.03 353.68 1331.63 357.71 1225.83 443.19 1187.48 536.33 1306.62 542.73
00003867 00000030 1116.09 138.70 347.11 522.94 1174.62 355.20 1327.64 359.87 1222.10 442.50 1184.79 536.34 1303.41 543.22
00003868 00000031 1115.78 139.29 345.81 525.18 1172.52 355.76 1324.87 358.15 1217.99 441.72 1182.03 539.37 1299.04 544.66
00003869 00000032 1114.02 137.19 343.63 529.17 1171.25 354.17 1322.02 356.51 1215.57 440.94 1180.32 540.72 1294.48 546.23
00003870 00000033 1110.81 136.57 345.09 530.13 1168.85 354.09 1320.08 355.51 1213.32 439.60 1178.00 539.17 1293.70 543.69
00003871 00000034 1110.67 133.35 343.05 530.30 1168.06 353.68 1318.36 355.43 1212.08 438.46 1177.78 537.09 1293.64 541.68
00003872 00000035 1110.78 136.21 342.24 523.15 1166.76 354.08 1317.56 354.42 1210.91 435.67 1176.45 534.99 1293.34 538.44
00003873 00000036 1109.67 135.68 344.28 520.86 1165.87 352.69 1317.97 353.48 1209.83 433.70 1174.92 532.61 1294.04 536.30
00003874 00000037 1109.31 136.26 345.44 520.97 1165.22 352.33 1319.70 352.22 1209.37 431.70 1174.19 532.11 1296.60 534.98
00003875 00000038 1106.97 136.16 345.35 521.62 1164.56 350.91 1318.66 349.25 1207.96 427.58 1172.95 531.13 1294.07 533.20
00003876 00000039 1102.19 135.92 347.56 518.11 1158.98 352.07 1311.82 348.27 1201.44 423.21 1167.83 528.07 1290.24 528.16
00003877 00000040 1094.55 135.25 349.59 517.69 1152.22 353.73 1302.68 349.23 1194.31 421.09 1161.10 525.42 1284.02 524.95
00003878 00000041 1086.75 136.29 348.94 517.60 1142.73 356.94 1293.18 349.37 1188.03 423.56 1155.14 529.25 1277.19 525.88
00003879 00000042 1081.03 137.81 351.73 518.10 1135.71 359.05 1287.24 351.70 1179.66 428.93 1148.14 531.62 1271.89 527.86
00003880 00000043 1077.17 139.28 350.67 520.26 1125.73 357.85 1280.85 352.90 1167.34 432.53 1138.97 533.37 1261.47 528.29
00003881 00000044 1075.10 138.52 346.97 523.37 1122.63 359.97 1276.41 355.82 1163.19 434.98 1135.44 536.74 1255.75 532.14
00003882 00000045 1072.25 140.19 347.88 523.15 1120.67 360.87 1274.52 356.07 1161.58 437.04 1135.19 538.95 1254.30 533.66
00003883 00000046 1071.23 141.00 346.62 522.58 1119.76 361.87 1272.93 357.05 1161.78 438.89 1135.26 539.96 1252.82 534.67
00003884 00000047 1070.83 141.09 346.15 523.49 1120.03 363.12 1272.84 358.11 1162.44 440.40 1135.54 540.83 1253.19 535.41
00003885 00000048 1070.51 140.44 346.57 524.02 1119.88 362.56 1272.78 357.72 1162.45 440.42 1135.73 540.50 1253.22 535.19
00003886 00000049 1070.56 140.33 346.03 524.15 1120.19 362.26 1273.20 357.14 1162.84 440.18 1135.77 540.55 1254.08 535.00
00003887 00000050 1070.26 139.73 346.78 524.37 1119.47 362.52 1273.08 356.35 1162.46 439.02 1135.99 540.78 1254.96 534.28
00003888 00000051 1070.54 140.04 348.83 522.87 1119.80 361.18 1273.69 354.86 1162.41 437.83 1136.16 540.28 1255.36 533.73
00003889 00000052 1071.58 139.13 348.02 523.21 1120.67 360.47 1274.49 354.75 1163.27 436.77 1136.21 540.18 1255.64 534.23
00003890 00000053 1072.16 140.10 348.64 522.71 1121.68 359.90 1275.53 353.95 1163.74 435.50 1136.56 539.88 1256.53 533.73
00003891 00000054 1072.36 141.07 348.54 522.64 1121.31 360.39 1276.06 353.60 1163.55 435.38 1137.06 541.95 1260.46 534.97
00003892 00000055 1071.57 143.18 348.23 521.27 1119.59 360.79 1275.54 352.14 1161.34 434.97 1135.91 544.77 1260.77 536.21
00003893 00000056 1070.96 143.80 345.47 521.66 1118.57 359.22 1272.76 351.08 1158.44 431.32 1134.01 542.91 1255.26 534.63
00003894 00000057 1068.20 146.02 342.98 520.50 1116.69 359.11 1269.55 350.04 1157.45 433.27 1132.85 545.10 1250.69 536.05
00003895 00000058 1063.25 151.45 349.84 519.02 1115.47 356.58 1265.62 346.73 1153.01 436.66 1134.66 544.27 1254.15 537.76
00003896 00000059 1062.41 155.08 347.48 517.48 1115.33 356.74 1263.79 349.45 1151.79 437.59 1133.51 543.57 1251.80 539.11
00003897 00000060 1060.67 153.28 349.04 522.30 1113.74 358.66 1263.41 350.06 1150.67 438.73 1132.91 545.48 1253.79 540.00
00003898 00000061 1059.20 150.42 350.56 524.93 1112.51 359.19 1262.94 349.71 1150.82 439.99 1133.31 545.46 1256.72 539.09
00003899 00000062 1057.59 149.68 352.19 522.38 1111.15 359.80 1262.98 348.79 1151.82 440.45 1133.43 545.34 1259.37 537.50
00003900 00000063 1057.15 147.96 353.05 518.81 1110.42 361.26 1263.23 347.60 1153.39 441.15 1134.85 544.84 1262.72 534.64
00003901 00000064 1056.95 147.19 353.54 517.01 1109.24 362.96 1264.05 347.51 1153.99 442.02 1135.05 545.66 1264.71 533.88
00003902 00000065 1057.22 148.63 353.82 517.82 1109.54 364.57 1265.11 348.33 1155.23 443.12 1136.15 547.48 1266.91 534.94
00003903 00000066 1057.86 149.16 354.32 525.89 1109.89 365.69 1265.86 350.55 1155.15 445.30 1136.40 550.74 1268.04 539.12
00003904 00000067 1059.65 153.39 354.54 527.01 1111.48 366.62 1265.94 353.18 1154.52 447.42 1135.83 552.80 1267.40 542.66
00003905 00000068 1061.93 156.12 352.44 527.16 1114.03 369.62 1266.60 355.65 1155.10 447.71 1138.63 555.08 1266.22 544.49
00003906 00000069 1063.41 155.96 352.63 526.90 1114.11 370.52 1267.93 356.59 1155.73 449.43 1138.70 556.25 1266.78 545.73
00003907 00000070 1063.98 155.49 354.48 524.41 1115.72 371.07 1269.73 355.68 1158.49 448.21 1140.82 556.49 1266.53 544.88
00003908 00000071 1064.71 155.17 354.20 524.05 1118.19 368.73 1270.78 354.95 1161.48 447.63 1142.71 554.64 1266.50 544.49
00003909 00000072 1065.24 155.90 353.52 523.97 1119.61 368.02 1271.62 354.06 1161.91 445.07 1143.43 554.78 1264.30 544.56
00003910 00000073 1066.92 157.19 352.19 523.64 1121.72 367.99 1272.53 354.29 1163.22 443.73 1145.46 554.59 1263.09 544.59
00003911 00000074 1067.35 157.61 351.78 519.71 1122.17 367.37 1272.05 353.27 1165.15 443.09 1146.36 552.66 1264.12 542.32
00003912 00000075 1071.30 150.48 347.03 520.32 1122.38 369.56 1275.04 359.53 1167.75 444.12 1143.65 549.57 1257.92 539.79
00003913 00000076 1068.25 156.19 354.86 510.48 1121.78 370.15 1273.32 351.67 1164.19 442.71 1147.44 550.01 1266.53 536.10
00003914 00000077 1074.12 152.24 350.67 514.15 1119.62 375.75 1273.54 361.80 1166.17 443.01 1142.38 548.82 1260.68 535.67
00003915 00000078 1075.28 152.22 351.11 513.00 1120.79 376.74 1275.25 363.05 1167.15 440.86 1142.30 548.10 1261.93 535.36
00003916 00000079 1075.79 150.63 352.33 513.71 1126.39 372.77 1279.76 364.08 1173.10 443.48 1144.28 545.77 1264.37 539.38
00003917 00000080 1080.19 158.74 349.34 504.10 1133.43 378.44 1284.72 361.97 1176.43 435.99 1150.97 551.86 1266.05 538.97
00003918 00000081 1080.58 160.03 350.17 504.95 1133.75 379.21 1286.18 362.61 1177.92 436.40 1151.01 553.15 1267.15 540.23
00003919 00000082 1077.28 151.46 354.17 518.27 1129.27 372.60 1285.45 362.92 1176.68 444.03 1147.62 548.79 1270.41 542.04
00003920 00000083 1078.51 147.75 352.89 521.14 1130.04 371.10 1287.33 362.06 1177.82 444.09 1148.57 548.08 1273.29 541.94
00003921 00000084 1079.30 144.78 351.53 522.66 1131.32 369.76 1287.37 360.82 1178.99 442.87 1150.41 547.12 1273.87 541.18
00003922 00000085 1079.33 143.98 352.11 523.63 1131.93 368.17 1287.86 359.31 1179.36 442.32 1150.88 546.81 1274.71 541.04
00003923 00000086 1080.19 143.32 351.58 524.98 1132.53 368.57 1288.30 360.09 1179.46 442.90 1151.13 546.54 1276.07 541.06
00003924 00000087 1079.44 143.63 352.77 524.18 1132.47 367.60 1289.14 359.39 1179.99 442.90 1151.31 545.80 1277.15 540.49
00003925 00000088 1079.80 143.11 352.59 524.79 1132.83 367.29 1289.12 359.15 1180.05 442.67 1151.64 545.57 1277.35 540.35
00003926 00000089 1079.72 143.07 352.15 524.69 1132.74 367.35 1289.04 359.34 1179.79 442.76 1151.52 545.49 1277.19 540.38
00003927 00000090 1079.08 143.33 353.06 524.54 1132.65 367.01 1289.03 359.32 1180.10 442.90 1151.46 545.50 1277.09 540.56
00003928 00000091 1078.55 144.03 354.02 523.53 1132.37 366.50 1288.74 358.72 1179.28 442.02 1151.07 545.18 1276.91 540.12
00003929 00000092 1078.42 144.04 353.96 522.86 1132.33 364.80 1287.86 357.47 1178.75 441.44 1151.04 544.64 1276.29 539.94
00003930 00000093 1077.79 145.00 354.67 521.69 1132.23 364.41 1287.92 356.93 1178.76 440.69 1151.09 544.30 1276.43 539.42
00003931 00000094 1078.38 144.43 354.71 522.59 1132.50 365.10 1288.41 357.20 1178.84 440.92 1151.08 544.17 1277.43 538.96
00003932 00000095 1078.21 145.04 354.64 522.11 1132.86 365.46 1289.10 357.35 1179.59 441.13 1151.56 543.95 1278.42 538.59
00003933 00000096 1079.16 145.03 353.41 522.49 1133.29 366.62 1289.13 358.58 1180.34 442.88 1152.72 543.68 1280.38 538.31
00003934 00000097 1079.96 144.46 353.61 523.28 1133.94 367.29 1289.66 359.35 1181.16 443.33 1153.26 543.62 1280.71 538.36
00003935 00000098 1080.23 143.47 354.17 523.88 1134.81 367.23 1290.46 359.56 1182.33 443.43 1154.56 542.91 1281.86 537.84
00003936 00000099 1081.04 141.64 353.52 525.11 1135.43 366.16 1290.80 359.14 1182.61 443.57 1155.28 542.35 1283.04 537.79
00003937 00000100 1081.02 140.93 354.31 525.63 1135.83 365.62 1291.64 358.62 1183.90 442.88 1155.66 542.04 1283.63 537.52
00003938 00000101 1080.95 139.88 354.91 525.97 1136.10 365.72 1292.31 358.24 1185.22 442.39 1156.96 542.18 1284.66 537.30
00003939 00000102 1081.62 139.53 354.53 526.58 1136.78 365.95 1292.67 358.36 1185.86 441.85 1157.60 541.99 1285.22 537.10
00003940 00000103 1083.50 139.69 353.89 526.20 1137.70 367.34 1292.55 359.24 1185.61 441.80 1158.63 541.44 1285.58 536.14
00003941 00000104 1084.04 139.93 354.14 526.24 1138.19 367.82 1293.69 359.45 1186.76 441.65 1159.14 541.21 1287.08 535.76
00003942 00000105 1084.67 141.09 353.57 525.13 1139.38 368.07 1295.17 360.35 1188.37 442.44 1159.57 540.91 1287.68 536.02
00003943 00000106 1085.22 140.36 353.47 526.21 1139.98 368.55 1295.28 360.84 1189.04 443.60 1160.53 541.62 1287.76 536.73
00003944 00000107 1085.27 142.18 353.61 524.05 1140.03 369.19 1296.13 361.19 1189.42 443.97 1160.84 541.39 1289.00 536.22
00003945 00000108 1085.33 141.78 353.59 524.30 1140.28 369.17 1296.30 361.62 1189.84 444.16 1160.96 541.13 1289.04 536.31
00003946 00000109 1084.80 141.21 353.51 524.79 1140.07 369.07 1296.19 361.48 1190.21 443.40 1160.65 541.14 1288.79 536.34
00003947 00000110 1084.82 141.21 353.52 524.24 1139.89 368.74 1295.80 360.89 1189.63 442.32 1160.04 540.42 1288.40 535.46
00003948 00000111 1084.11 141.57 354.00 523.26 1138.85 368.31 1295.69 359.96 1188.87 441.19 1159.38 540.20 1288.42 534.84
00003949 00000112 1084.45 141.44 353.70 523.44 1138.91 368.54 1295.55 359.89 1188.93 441.21 1159.60 540.22 1288.62 534.62
00003950 00000113 1084.22 140.66 353.83 523.95 1138.78 368.52 1295.82 360.47 1189.23 441.55 1159.48 539.80 1288.88 534.64
00003951 00000114 1084.82 140.68 352.67 524.20 1139.81 368.89 1295.08 361.18 1189.85 442.59 1160.19 539.70 1288.00 534.86
00003952 00000115 1085.35 140.74 351.54 524.58 1141.09 369.94 1295.49 362.46 1192.95 443.31 1161.69 539.69 1288.11 535.09
00003953 00000116 1085.39 140.14 351.46 525.96 1141.69 369.99 1294.52 362.18 1194.09 443.55 1162.97 541.40 1286.39 536.69
00003954 00000117 1085.71 140.53 350.85 525.62 1142.32 369.83 1294.14 362.23 1194.72 444.16 1163.93 541.33 1286.51 536.76
00003955 00000118 1086.86 139.97 349.83 525.99 1142.99 369.13 1294.32 362.29 1195.16 445.56 1164.49 541.94 1286.16 538.00
00003956 00000119 1088.13 140.74 349.35 526.72 1143.08 370.21 1293.73 362.10 1195.29 447.95 1165.93 542.59 1287.82 537.54
00003957 00000120 1086.04 143.33 352.54 527.16 1142.38 373.25 1295.87 362.40 1198.62 450.52 1169.09 545.61 1291.53 538.30
00003958 DELETE   1084.19 148.13 354.16 530.98 1139.29 378.13 1290.01 362.53 1195.43 456.96 1171.56 554.58 1291.05 543.06
00003959 00000122 1081.78 151.77 351.50 527.34 1133.90 376.99 1285.08 361.65 1185.63 452.75 1160.57 555.83 1279.46 544.70
00003960 DELETE   1077.18 151.17 352.85 518.91 1122.63 370.98 1275.69 349.08 1169.96 440.25 1148.18 554.15 1267.34 534.83
00003961 00000124 1071.40 147.43 348.35 517.69 1118.00 364.60 1267.49 344.07 1156.27 426.15 1140.68 545.81 1253.00 527.56
00003962 00000125 1067.88 145.76 344.88 512.69 1114.98 359.63 1262.44 343.78 1150.51 421.17 1134.16 540.31 1240.40 526.39
00003963 00000126 1067.77 141.30 343.69 512.94 1117.88 356.11 1266.46 342.12 1153.02 421.38 1135.88 539.88 1245.57 529.41
00003964 00000127 1064.43 142.51 342.11 515.39 1116.97 357.14 1264.74 342.70 1152.68 424.42 1137.96 544.58 1244.66 533.59
00003965 00000128 1060.29 152.25 346.35 516.61 1111.53 357.45 1256.33 341.42 1145.67 429.80 1137.65 545.83 1246.49 534.72
00003966 DELETE   1058.72 158.60 345.24 513.34 1109.06 360.55 1252.51 344.61 1143.07 433.86 1135.76 550.12 1242.14 539.01
00003967 00000130 1056.64 161.48 343.91 509.66 1106.58 359.59 1250.16 345.00 1139.99 432.09 1130.98 548.01 1239.24 538.16
00003968 00000131 1053.62 163.08 346.85 502.64 1106.55 358.01 1249.31 342.73 1140.53 427.86 1130.06 541.95 1238.49 531.75
00003969 00000132 1050.12 148.36 352.43 503.75 1105.00 360.59 1253.39 348.42 1147.99 433.07 1123.01 536.31 1237.43 529.52
00003970 00000133 1049.99 144.93 352.49 504.58 1106.08 358.63 1254.51 347.58 1148.91 430.37 1123.27 531.11 1241.10 525.16
00003971 00000134 1050.72 142.59 353.14 507.58 1106.64 358.21 1256.68 347.15 1150.27 431.19 1124.00 531.11 1244.74 525.06
00003972 00000135 1052.60 143.93 351.71 506.49 1106.93 359.32 1256.79 349.28 1150.47 434.54 1125.64 532.38 1247.05 527.00
00003973 00000136 1053.21 144.76 352.20 508.23 1108.26 361.18 1259.37 351.04 1151.56 434.90 1126.58 534.42 1249.22 528.92
00003974 00000137 1054.38 145.19 351.69 512.96 1109.06 362.64 1260.50 350.24 1153.12 435.65 1128.62 537.56 1252.02 530.23
00003975 00000138 1056.04 147.41 350.88 514.70 1110.36 363.55 1263.66 351.81 1154.60 437.67 1129.07 538.93 1255.23 531.94
00003976 00000139 1056.28 146.80 352.19 516.22 1110.30 364.10 1264.83 352.19 1155.97 438.74 1129.71 540.40 1256.86 533.26
00003977 00000140 1054.25 150.78 355.96 518.93 1108.27 362.27 1261.53 343.61 1153.51 435.08 1136.28 546.37 1259.78 532.27
00003978 00000141 1054.39 150.09 357.35 525.59 1107.97 363.16 1263.38 344.37 1155.65 438.38 1137.59 549.59 1263.34 535.21
00003979 00000142 1055.44 150.86 357.77 528.64 1109.45 363.33 1263.87 344.52 1155.73 438.55 1139.34 551.05 1264.44 536.55
00003980 00000143 1055.25 148.70 360.70 530.33 1110.64 363.36 1264.58 343.22 1156.40 436.53 1140.64 549.99 1265.19 534.41
00003981 00000144 1056.51 148.69 361.03 528.44 1111.73 363.57 1265.04 341.36 1156.22 433.89 1142.21 549.73 1265.33 532.58
00003982 00000145 1059.51 150.20 358.49 526.71 1114.63 363.20 1267.23 342.07 1157.85 433.46 1143.10 549.54 1265.59 533.32
00003983 00000146 1061.03 150.13 358.36 527.26 1115.22 367.18 1268.24 345.31 1158.37 438.24 1143.31 552.49 1266.60 535.55
00003984 00000147 1059.98 153.42 359.45 521.74 1111.17 374.34 1266.54 349.95 1156.72 443.18 1142.95 555.81 1267.99 536.62
00003985 DELETE   1060.88 154.18 357.32 512.66 1113.24 374.39 1265.45 350.76 1158.59 441.61 1144.07 551.93 1264.57 533.46
00003986 00000149 1065.18 147.66 349.28 512.09 1114.95 371.25 1270.98 358.67 1161.86 438.41 1139.26 547.13 1253.80 535.20
00003987 00000150 1068.34 141.29 346.51 515.02 1117.65 365.00 1271.96 356.12 1162.99 435.41 1137.76 542.68 1253.39 534.03
00003988 00000151 1069.30 135.80 348.85 519.44 1119.40 360.91 1276.21 353.02 1166.43 432.05 1137.49 540.98 1256.75 533.38
00003989 00000152 1071.36 134.60 349.96 521.15 1121.99 360.10 1279.19 352.25 1170.48 431.59 1138.59 540.56 1260.56 533.03
00003990 00000153 1072.57 135.25 351.03 520.67 1125.63 358.33 1283.32 351.48 1175.29 432.36 1141.53 540.37 1264.78 533.75
00003991 00000154 1074.26 134.94 351.74 523.38 1128.67 357.71 1286.68 350.50 1178.92 429.30 1143.50 540.44 1268.68 533.50
00003992 00000155 1079.14 137.90 350.09 516.41 1138.83 361.57 1290.76 350.43 1180.47 423.51 1153.13 541.18 1271.14 532.50
00003993 00000156 1079.51 135.35 350.61 516.73 1139.26 362.63 1292.71 350.93 1181.60 422.48 1154.01 540.53 1272.41 531.18
00003994 00000157 1081.22 131.88 349.78 517.97 1141.01 363.04 1294.90 351.33 1182.71 423.03 1154.97 539.19 1274.84 529.76
00003995 00000158 1082.96 132.89 348.79 518.12 1143.50 363.36 1296.35 351.00 1185.36 422.73 1158.08 540.06 1276.50 529.98
00003996 00000159 1083.16 132.51 349.02 522.01 1144.80 362.14 1298.30 351.17 1186.40 423.78 1158.57 541.47 1278.07 532.42
00003997 00000160 1078.56 131.22 354.61 527.86 1138.95 356.92 1298.83 352.91 1190.60 430.96 1153.41 538.85 1279.86 537.69
00003998 00000161 1076.85 131.01 355.25 530.93 1137.72 357.61 1297.39 353.89 1188.87 432.90 1151.95 540.27 1278.65 539.19
00003999 00000162 1076.99 130.67 353.77 532.15 1137.00 357.52 1295.59 356.10 1187.56 437.66 1150.62 541.15 1276.61 541.75
