Video ID: 	T1FROaSBHRE
H: 	1080
W: 	1920
FPS: 	25.0

FRAME INDEX X0 Y0 W H [Landmarks (5 Points)]

00009339 00000000 983.18 274.24 428.07 563.64 1070.86 497.78 1268.33 498.75 1150.73 623.84 1092.57 702.87 1254.84 703.71
00009340 00000001 991.28 279.99 415.41 561.21 1072.22 505.53 1268.07 508.13 1157.18 634.42 1090.89 714.30 1250.83 717.31
00009341 00000002 984.90 281.61 425.84 563.27 1073.18 502.76 1272.06 503.85 1155.10 629.80 1094.57 707.30 1258.63 708.52
00009342 DELETE   982.10 274.31 426.44 568.43 1073.06 497.69 1274.56 497.60 1159.03 625.16 1094.58 705.74 1261.05 705.82
00009343 00000004 979.37 267.37 426.85 567.23 1072.24 492.24 1272.91 491.41 1158.62 614.35 1095.91 698.86 1262.37 697.80
00009344 DELETE   984.88 248.16 420.66 568.93 1077.87 478.50 1276.04 474.58 1167.35 594.58 1103.43 684.02 1265.91 680.07
00009345 DELETE   988.89 229.16 419.79 573.50 1080.16 451.42 1282.82 452.91 1172.26 564.77 1100.13 662.29 1265.69 663.47
00009346 00000007 996.25 196.25 413.18 576.55 1084.14 432.75 1286.54 431.23 1176.64 540.24 1104.31 642.71 1273.54 641.27
00009347 DELETE   995.35 182.44 419.14 565.48 1094.53 413.29 1295.68 412.36 1192.03 507.88 1121.69 613.84 1288.78 611.92
00009348 00000009 1003.90 163.87 414.03 574.04 1101.31 399.50 1308.20 399.38 1204.70 489.32 1125.07 605.59 1298.46 605.19
00009349 00000010 1012.20 159.81 410.64 573.67 1110.75 394.08 1314.50 393.98 1212.13 486.58 1130.83 603.12 1299.18 603.39
00009350 DELETE   1018.63 157.82 407.27 575.07 1121.97 394.45 1324.97 397.16 1223.36 487.15 1138.12 602.58 1306.20 605.59
00009351 DELETE   1024.37 162.02 405.16 574.27 1135.06 394.06 1336.21 396.43 1237.98 488.12 1149.22 602.40 1315.22 605.19
00009352 DELETE   1029.70 166.66 403.39 572.07 1144.19 398.58 1342.43 403.33 1249.26 494.16 1156.55 603.86 1319.63 608.77
00009353 00000014 1031.73 169.53 408.78 565.85 1149.48 400.25 1352.05 410.83 1257.05 499.71 1159.75 603.56 1325.97 612.74
00009354 00000015 1032.76 175.98 409.64 564.09 1151.18 406.76 1351.75 417.62 1258.13 509.55 1163.30 611.55 1324.18 620.89
00009355 00000016 1033.07 186.21 412.47 575.76 1155.90 407.30 1360.46 422.42 1266.27 518.61 1163.69 622.58 1332.37 635.64
00009356 00000017 1034.12 189.11 414.37 590.81 1157.69 413.74 1359.69 431.79 1266.30 525.50 1162.09 630.69 1326.85 646.89
00009357 00000018 1035.54 199.72 408.51 584.41 1155.24 428.68 1354.67 436.64 1267.95 535.86 1161.78 645.82 1325.10 653.60
00009358 00000019 1033.62 207.56 409.06 573.44 1154.00 434.51 1353.85 442.01 1266.51 544.69 1160.86 646.23 1326.47 653.47
00009359 00000020 1031.92 211.97 411.02 569.18 1151.23 439.80 1352.83 447.97 1264.03 555.23 1159.04 652.10 1324.07 659.87
00009360 00000021 1032.26 216.71 412.42 571.07 1150.34 444.26 1353.52 454.85 1263.05 562.34 1161.18 661.23 1322.72 670.52
00009361 00000022 1034.00 220.72 413.51 574.99 1151.66 446.48 1355.03 457.41 1262.83 564.68 1163.95 666.82 1322.81 675.83
00009362 00000023 1037.56 222.98 411.94 572.38 1155.78 446.60 1359.34 457.78 1267.60 563.88 1168.98 666.49 1327.12 675.67
00009363 00000024 1039.87 226.81 409.35 577.14 1158.95 443.54 1356.91 454.36 1268.28 559.95 1169.20 666.41 1322.54 675.60
00009364 00000025 1041.18 226.23 409.73 575.90 1159.76 441.97 1358.11 452.71 1269.01 557.93 1169.68 664.66 1324.16 673.60
00009365 00000026 1042.39 224.91 410.27 574.32 1159.25 440.73 1358.79 451.04 1267.83 557.24 1169.98 662.72 1324.86 671.24
00009366 00000027 1042.69 223.11 409.82 575.58 1158.08 440.57 1357.52 450.46 1266.50 556.74 1169.26 661.68 1324.15 669.92
00009367 00000028 1041.64 222.79 409.70 576.10 1156.25 438.83 1355.97 447.19 1264.76 557.21 1168.97 660.90 1322.22 667.90
00009368 00000029 1040.67 222.88 410.35 580.10 1153.94 435.03 1354.17 441.30 1262.66 556.49 1169.94 661.86 1317.75 666.90
00009369 00000030 1039.60 221.77 409.40 583.40 1150.62 434.33 1350.96 439.28 1259.50 555.87 1168.72 662.05 1315.04 666.15
00009370 00000031 1033.52 215.83 413.66 586.50 1146.97 438.24 1344.69 438.80 1256.70 555.23 1167.35 662.62 1323.92 662.70
00009371 00000032 1030.20 217.85 412.22 585.85 1142.35 440.42 1339.06 438.86 1251.17 555.59 1164.66 665.34 1318.87 663.29
00009372 00000033 1027.68 215.99 407.99 591.84 1137.37 442.07 1334.08 438.79 1244.16 555.01 1159.96 668.83 1313.17 665.60
00009373 00000034 1023.51 216.20 407.86 590.44 1130.24 446.42 1328.30 441.29 1235.35 557.02 1153.88 670.72 1308.79 666.19
00009374 00000035 1021.29 216.57 410.26 577.44 1123.99 448.66 1324.87 443.46 1227.83 559.28 1144.25 663.66 1309.86 658.99
00009375 00000036 1017.86 219.29 410.55 570.70 1118.50 449.88 1321.00 445.70 1222.52 562.90 1137.35 660.80 1307.94 656.83
00009376 00000037 1014.54 220.52 413.48 571.90 1116.21 452.97 1318.31 448.81 1219.59 566.41 1135.44 662.38 1306.11 658.17
00009377 00000038 1013.74 224.66 413.33 568.70 1113.96 456.02 1315.79 451.50 1216.28 569.78 1136.19 666.61 1303.27 662.05
00009378 00000039 1013.21 226.74 413.77 570.40 1113.24 456.42 1313.79 452.98 1214.13 572.10 1136.13 669.72 1299.25 665.96
00009379 00000040 1012.61 227.60 413.58 570.11 1112.58 458.81 1312.42 456.23 1212.86 574.68 1136.15 671.08 1298.02 667.86
00009380 00000041 1011.99 229.33 414.83 569.42 1111.50 460.42 1311.70 458.07 1211.41 575.93 1136.23 672.46 1298.35 669.18
00009381 00000042 1011.04 230.46 416.10 568.42 1111.80 461.19 1311.88 459.06 1212.61 576.60 1137.72 673.17 1298.42 669.92
00009382 00000043 1012.32 231.22 415.44 566.89 1112.01 462.26 1311.80 459.13 1212.16 577.44 1138.76 674.04 1298.93 670.05
00009383 00000044 1013.73 228.94 415.04 568.04 1111.96 463.53 1312.27 458.85 1212.37 577.68 1140.07 673.96 1301.72 668.74
00009384 00000045 1014.18 227.23 415.88 571.03 1112.12 463.67 1313.09 457.16 1213.42 576.22 1142.01 674.58 1304.68 667.94
00009385 00000046 1013.68 228.11 416.66 570.26 1111.69 464.22 1311.61 456.65 1213.18 577.00 1142.86 674.75 1304.71 667.13
00009386 00000047 1013.09 229.87 416.05 569.02 1110.08 464.34 1309.68 456.30 1211.25 576.23 1141.53 674.55 1303.49 666.59
00009387 00000048 1011.21 228.36 416.87 571.03 1106.88 462.64 1305.97 454.16 1208.23 573.79 1139.76 674.66 1299.12 666.28
00009388 00000049 1008.14 228.50 418.76 570.78 1103.80 460.54 1302.97 452.26 1205.50 572.31 1137.53 674.21 1294.45 666.07
00009389 00000050 1004.96 227.31 420.62 573.90 1100.69 460.78 1299.35 451.80 1203.17 571.85 1136.39 674.90 1292.00 666.33
00009390 00000051 1002.05 228.27 421.49 574.98 1097.04 459.52 1295.41 449.47 1199.18 570.19 1134.39 675.41 1288.25 666.17
00009391 00000052 997.97 228.19 423.77 576.90 1093.80 458.81 1291.41 448.81 1196.20 569.50 1132.80 675.40 1285.92 666.20
00009392 00000053 995.67 230.74 423.95 576.74 1091.18 459.22 1288.94 448.82 1193.78 568.81 1130.83 675.88 1284.60 666.60
00009393 00000054 993.95 231.69 424.51 578.55 1089.03 460.07 1286.76 449.40 1191.65 570.05 1129.09 677.11 1283.84 667.50
00009394 00000055 991.54 233.26 425.12 581.84 1086.09 461.76 1283.98 448.94 1189.65 571.60 1128.33 679.22 1284.77 667.70
00009395 00000056 990.00 233.49 423.19 585.41 1082.75 464.01 1281.19 450.45 1186.09 573.44 1125.92 681.38 1284.16 669.34
00009396 00000057 987.20 232.74 422.45 589.05 1079.35 462.97 1278.33 448.99 1182.51 573.82 1122.62 682.25 1282.02 669.86
00009397 00000058 986.09 231.13 421.50 591.05 1077.87 461.83 1277.65 447.69 1181.22 573.31 1120.23 680.93 1280.91 668.79
00009398 00000059 985.65 231.09 420.15 589.21 1076.97 459.62 1278.26 446.27 1181.08 568.86 1117.22 677.43 1281.31 666.18
00009399 00000060 986.02 227.18 418.20 588.24 1076.76 455.87 1278.87 444.13 1181.04 564.62 1114.85 672.82 1280.18 663.04
00009400 00000061 986.44 222.34 417.37 588.94 1076.24 452.55 1278.42 442.24 1179.26 561.87 1112.78 668.43 1280.18 659.62
00009401 00000062 986.98 217.67 415.78 585.63 1075.76 449.80 1277.08 440.23 1177.49 561.44 1110.93 664.74 1278.00 656.74
00009402 00000063 988.50 211.45 414.88 588.60 1076.73 446.81 1277.26 436.93 1177.15 559.12 1112.37 663.54 1275.92 655.79
00009403 00000064 988.90 208.33 418.25 591.62 1077.23 445.16 1278.45 434.28 1178.17 560.33 1114.04 663.63 1276.95 654.89
00009404 00000065 989.19 207.02 417.96 590.79 1077.67 445.33 1279.30 434.23 1179.41 562.62 1117.74 665.17 1276.95 656.29
00009405 00000066 989.78 212.31 419.19 593.37 1078.74 446.49 1280.85 434.52 1181.92 565.27 1119.67 669.65 1279.14 659.82
00009406 00000067 988.29 217.23 420.74 594.65 1079.16 450.32 1281.68 437.60 1184.15 564.69 1121.39 670.88 1284.25 659.91
00009407 00000068 987.44 220.11 422.23 595.98 1078.40 453.41 1282.12 440.45 1184.19 563.56 1117.30 670.71 1288.47 659.37
00009408 00000069 988.78 222.64 422.97 591.14 1078.43 454.32 1283.52 441.51 1184.44 563.24 1117.55 670.41 1290.12 659.08
00009409 00000070 989.69 219.75 424.06 589.47 1078.63 454.64 1283.84 441.32 1183.66 563.33 1117.66 668.75 1291.37 656.80
00009410 00000071 992.47 214.23 422.20 592.10 1079.32 457.05 1282.35 440.52 1182.50 562.57 1119.62 668.35 1292.81 654.01
00009411 00000072 992.65 207.51 422.41 599.09 1081.18 462.04 1282.66 442.94 1183.29 560.43 1121.56 667.50 1295.99 650.47
00009412 00000073 993.66 205.26 420.52 603.76 1080.69 461.05 1280.57 439.58 1181.51 558.09 1122.35 668.07 1295.88 649.47
00009413 00000074 993.79 201.23 420.89 601.79 1082.00 457.51 1280.93 433.64 1184.43 554.23 1127.04 666.82 1291.61 646.56
00009414 00000075 992.16 196.29 423.35 599.97 1082.26 452.03 1278.59 426.14 1186.04 547.10 1132.78 664.85 1283.21 643.64
00009415 00000076 990.20 196.41 426.23 599.60 1081.07 448.67 1276.58 420.98 1185.36 542.37 1137.76 664.46 1283.20 641.61
00009416 00000077 989.94 197.42 426.65 595.46 1076.36 449.28 1273.94 417.12 1179.99 541.20 1135.82 664.35 1288.36 637.61
00009417 00000078 989.76 196.35 425.34 595.06 1073.44 454.36 1270.87 415.77 1177.05 537.68 1133.21 662.74 1293.58 630.57
00009418 00000079 986.96 197.46 427.97 592.95 1070.84 455.63 1265.79 413.89 1173.33 534.15 1131.50 660.26 1292.26 625.17
00009419 00000080 984.71 195.71 429.28 592.63 1067.98 458.05 1261.45 412.74 1169.30 532.33 1130.89 659.99 1290.03 622.20
00009420 00000081 980.83 192.51 431.40 586.05 1068.20 455.99 1255.17 410.91 1161.10 526.86 1131.68 651.18 1286.32 613.28
00009421 00000082 980.61 191.24 429.47 584.29 1067.93 458.57 1253.02 413.40 1159.80 524.90 1130.90 650.37 1283.73 612.51
00009422 00000083 979.47 191.76 432.00 593.50 1067.08 459.92 1252.82 412.27 1158.99 526.40 1130.09 654.84 1284.93 615.10
00009423 00000084 979.28 192.23 432.48 599.69 1068.35 462.56 1253.12 412.04 1160.38 529.23 1133.71 661.19 1286.05 619.53
00009424 00000085 980.17 201.05 435.17 599.10 1066.77 471.44 1258.64 419.48 1167.20 533.88 1135.90 670.94 1293.44 627.23
00009425 00000086 980.61 201.86 435.64 597.41 1068.01 471.98 1259.91 420.45 1168.81 535.80 1136.97 670.74 1296.02 627.14
00009426 00000087 978.60 194.16 437.91 598.92 1070.77 466.41 1258.66 415.62 1165.82 535.03 1135.29 661.83 1293.27 619.40
00009427 00000088 977.57 193.99 440.24 597.91 1070.21 465.96 1259.71 413.28 1167.14 534.16 1135.84 660.47 1296.57 616.07
00009428 00000089 978.32 191.38 440.14 596.79 1070.54 464.05 1259.57 412.36 1167.27 532.39 1135.28 656.55 1296.78 612.75
00009429 00000090 978.66 190.26 434.61 587.20 1071.10 460.47 1256.06 414.86 1165.88 530.48 1135.87 652.43 1287.25 614.07
00009430 00000091 977.11 189.56 433.79 583.03 1069.13 457.82 1251.47 414.58 1161.14 525.56 1135.50 654.69 1276.65 618.96
00009431 00000092 971.14 185.71 437.78 588.26 1065.10 453.37 1248.89 413.18 1158.55 527.00 1130.71 654.06 1271.46 621.11
00009432 DELETE   968.41 186.17 438.63 589.13 1062.50 453.47 1248.16 413.03 1156.87 528.76 1129.73 657.57 1269.93 624.68
00009433 DELETE   965.98 187.93 439.34 591.87 1061.38 454.69 1247.48 413.61 1156.97 533.08 1130.31 660.19 1271.90 626.79
00009434 00000095 965.98 187.86 437.91 596.34 1062.06 456.85 1248.80 414.28 1159.66 535.98 1129.17 660.03 1276.60 625.37
00009435 00000096 964.33 195.11 436.98 591.91 1060.87 459.07 1247.84 417.09 1158.85 540.50 1128.59 663.39 1274.25 629.49
00009436 00000097 961.95 197.04 437.12 592.72 1058.29 460.97 1244.67 419.76 1155.77 544.46 1124.81 664.45 1270.48 631.44
00009437 DELETE   960.64 201.02 434.91 591.51 1056.01 465.11 1243.44 423.85 1153.72 549.60 1122.63 668.36 1267.83 635.35
00009438 DELETE   958.50 203.55 436.65 591.00 1053.51 472.44 1243.15 430.07 1152.98 559.16 1121.21 673.33 1269.24 639.17
00009439 00000100 955.12 207.41 438.11 586.89 1052.36 478.64 1243.58 435.26 1154.03 565.22 1120.67 674.58 1271.19 639.52
00009440 00000101 952.70 211.76 436.84 588.92 1049.88 482.68 1240.64 439.24 1151.78 570.94 1120.75 682.39 1266.57 647.34
00009441 00000102 947.61 215.20 438.67 596.66 1043.91 486.46 1236.19 440.11 1147.91 574.94 1117.15 688.14 1266.90 650.65
00009442 00000103 942.19 219.14 438.80 594.70 1038.67 491.32 1234.08 444.39 1143.64 575.05 1111.20 691.67 1263.69 653.80
00009443 00000104 939.37 230.88 433.43 577.14 1038.45 495.82 1230.00 451.69 1143.44 580.90 1106.95 694.91 1258.99 656.62
00009444 00000105 937.50 235.22 430.96 579.73 1037.14 496.23 1228.18 453.84 1143.84 587.82 1106.40 700.01 1257.72 662.96
00009445 00000106 935.13 236.25 430.47 585.14 1035.79 499.32 1227.52 458.01 1143.31 591.12 1103.58 703.55 1257.76 667.26
00009446 00000107 934.75 239.77 428.30 584.62 1036.27 499.47 1227.21 458.32 1144.46 590.64 1103.52 704.41 1257.63 668.44
00009447 00000108 935.69 238.38 427.38 585.06 1037.10 498.74 1227.68 458.21 1145.21 590.46 1102.98 703.25 1256.87 667.69
00009448 00000109 935.65 238.11 426.14 583.99 1038.84 495.59 1226.83 457.15 1146.52 589.77 1105.19 702.88 1252.48 669.35
00009449 00000110 937.35 239.19 423.31 589.65 1039.96 492.69 1224.01 454.51 1145.91 585.22 1109.92 708.87 1246.07 676.08
00009450 00000111 939.60 238.86 422.85 598.70 1037.64 491.44 1220.94 448.97 1143.12 575.13 1111.79 714.76 1243.41 678.79
00009451 00000112 939.18 232.61 429.25 607.06 1033.37 485.42 1227.84 444.95 1143.02 565.72 1112.02 711.50 1242.53 679.07
00009452 00000113 940.22 230.27 431.77 607.46 1033.93 485.50 1229.21 443.28 1145.13 568.55 1113.94 710.18 1247.23 676.12
00009453 00000114 943.39 225.30 431.95 606.02 1035.69 483.19 1232.17 438.05 1149.68 571.80 1113.94 701.48 1255.48 665.03
00009454 00000115 945.37 219.86 435.08 602.26 1040.08 478.64 1231.11 430.14 1147.82 568.10 1118.76 688.64 1266.83 649.54
00009455 00000116 951.44 209.72 432.88 590.19 1043.56 468.44 1235.91 421.98 1150.25 558.73 1117.70 675.05 1269.07 637.77
00009456 00000117 952.84 196.65 437.36 594.08 1047.79 456.79 1238.55 411.60 1154.44 546.68 1121.46 662.89 1275.92 626.12
00009457 00000118 955.85 196.68 439.06 591.52 1049.86 453.67 1241.82 408.12 1156.41 544.44 1123.25 659.77 1280.28 622.44
00009458 00000119 958.06 202.28 438.98 589.41 1052.73 460.27 1244.88 415.54 1158.98 554.66 1123.90 664.82 1281.42 628.23
00009459 00000120 956.44 215.81 444.51 587.00 1051.27 472.13 1245.84 423.93 1158.29 571.68 1126.97 678.15 1283.75 638.71
00009460 00000121 955.90 226.39 443.98 591.91 1047.53 482.85 1247.46 440.65 1159.30 588.11 1123.37 695.16 1276.85 660.31
00009461 00000122 956.20 229.69 441.31 595.10 1047.06 487.88 1247.96 449.71 1156.96 598.97 1120.85 703.33 1272.95 672.27
00009462 00000123 956.54 231.44 439.26 593.84 1046.84 489.91 1249.82 451.96 1157.78 601.99 1120.93 706.31 1274.39 675.51
00009463 00000124 955.84 229.77 436.56 592.21 1046.16 487.96 1249.69 450.94 1156.96 599.44 1118.32 703.33 1271.26 673.50
00009464 00000125 953.08 229.17 437.50 589.50 1045.12 485.33 1248.67 448.99 1156.05 595.71 1116.33 699.33 1267.79 670.24
00009465 00000126 952.14 228.30 434.69 587.87 1042.73 483.73 1244.46 443.47 1154.93 590.43 1117.76 698.29 1266.17 666.11
00009466 00000127 949.35 226.08 432.72 586.25 1048.07 486.17 1240.73 445.50 1153.06 584.03 1120.81 691.20 1263.19 658.59
00009467 00000128 949.28 222.28 432.37 588.85 1045.81 480.38 1235.93 438.45 1151.18 576.30 1118.60 684.59 1264.70 650.71
00009468 00000129 950.82 221.20 432.18 585.01 1047.88 477.58 1239.37 432.97 1155.98 573.26 1117.96 677.56 1273.76 641.03
00009469 00000130 954.09 221.41 431.88 584.51 1054.95 475.34 1246.66 430.85 1165.75 571.64 1122.53 674.73 1281.92 638.07
00009470 00000131 957.47 221.42 432.23 586.14 1060.00 474.18 1252.55 428.73 1173.53 569.83 1127.18 674.63 1289.53 636.86
00009471 00000132 969.06 224.86 425.30 590.63 1063.93 473.45 1260.40 431.26 1182.65 567.42 1132.33 681.74 1299.34 645.48
00009472 00000133 972.51 220.02 425.82 600.18 1069.22 467.49 1263.54 427.83 1188.41 562.51 1137.87 681.16 1300.96 646.90
00009473 00000134 976.92 218.13 428.51 600.89 1073.62 466.56 1269.25 427.06 1193.40 560.63 1141.32 680.30 1307.08 645.77
00009474 00000135 981.75 218.77 428.31 595.08 1078.17 467.65 1274.46 428.55 1198.65 561.87 1144.03 679.71 1310.12 645.54
00009475 00000136 986.67 222.41 425.95 587.95 1083.96 469.34 1278.98 431.21 1204.05 562.70 1148.39 679.32 1313.06 645.85
00009476 00000137 990.03 227.04 425.64 584.18 1089.13 473.53 1283.28 437.84 1208.33 566.69 1152.25 681.16 1314.19 649.69
00009477 00000138 990.66 234.02 429.77 583.69 1092.11 481.20 1286.67 444.93 1211.16 572.33 1154.93 686.73 1318.08 655.08
00009478 00000139 992.07 237.93 431.37 584.37 1097.27 486.46 1291.69 451.01 1215.86 579.37 1158.56 690.32 1323.03 658.88
00009479 00000140 995.23 238.89 429.75 583.85 1102.20 489.54 1295.52 454.24 1220.55 582.93 1163.52 692.77 1326.03 661.45
00009480 00000141 997.92 239.72 429.83 581.05 1105.42 491.19 1298.45 455.09 1221.73 584.55 1165.39 692.94 1327.63 660.60
00009481 00000142 1000.11 238.86 429.06 580.73 1107.11 491.76 1300.28 455.76 1222.88 585.36 1166.56 692.83 1328.92 660.65
00009482 00000143 1002.05 238.57 428.22 581.40 1109.05 491.53 1301.94 454.91 1224.46 585.95 1168.90 692.84 1330.92 660.16
00009483 00000144 1004.68 237.87 428.02 579.67 1110.69 489.84 1304.28 452.18 1225.66 585.81 1170.78 691.27 1332.92 657.76
00009484 00000145 1008.16 237.91 426.05 578.20 1112.41 489.08 1306.21 450.17 1227.24 584.56 1173.64 690.91 1335.39 656.42
00009485 00000146 1009.77 238.72 426.15 576.91 1113.82 488.55 1306.92 449.35 1228.06 583.79 1175.58 690.57 1335.94 655.85
00009486 00000147 1010.91 239.68 426.68 576.71 1115.27 488.75 1307.94 449.79 1228.74 584.08 1177.48 691.31 1336.75 656.80
00009487 00000148 1010.92 240.62 427.87 575.60 1114.78 490.16 1307.41 450.84 1227.71 586.41 1177.63 693.15 1335.75 658.40
00009488 00000149 1011.33 243.43 428.05 573.46 1115.11 490.95 1307.33 451.82 1226.60 587.40 1178.29 694.04 1335.36 659.55
00009489 00000150 1013.01 244.65 426.67 572.25 1115.57 492.55 1307.42 453.30 1225.80 589.89 1178.58 694.88 1335.84 660.40
00009490 00000151 1013.90 246.82 426.72 571.39 1114.66 495.85 1306.33 456.08 1222.82 592.89 1178.51 697.79 1334.10 663.10
00009491 00000152 1014.27 247.27 426.80 572.30 1113.56 498.85 1303.35 457.89 1220.16 594.06 1177.31 698.53 1332.54 662.84
00009492 00000153 1016.73 248.78 424.47 569.39 1112.49 499.85 1300.88 456.65 1215.64 591.60 1176.83 697.80 1332.21 660.32
00009493 00000154 1016.47 246.81 424.99 567.24 1110.07 497.95 1297.05 451.89 1211.36 585.10 1177.06 694.82 1331.14 654.78
00009494 00000155 1017.92 244.30 426.69 563.84 1109.34 496.51 1293.26 448.25 1207.01 578.63 1178.34 690.92 1328.43 649.17
00009495 00000156 1018.42 245.01 428.68 562.76 1108.67 497.37 1287.89 448.41 1203.05 579.97 1180.11 691.88 1323.73 649.43
00009496 00000157 1014.78 248.06 433.30 557.68 1108.01 496.99 1284.39 451.32 1201.05 587.23 1178.78 691.23 1316.72 651.49
00009497 00000158 1013.97 248.29 433.52 560.29 1107.61 497.96 1281.68 455.61 1197.80 590.14 1177.52 694.13 1310.23 657.56
00009498 00000159 1014.58 245.38 434.46 576.89 1098.79 493.96 1285.13 452.40 1195.58 591.24 1174.03 701.88 1307.20 667.81
00009499 00000160 1016.06 243.89 435.32 587.54 1100.52 497.23 1285.09 456.75 1196.56 594.37 1175.14 708.79 1308.20 675.91
00009500 00000161 1018.49 245.49 436.56 585.74 1101.61 498.41 1288.52 457.01 1198.40 597.17 1177.73 710.09 1314.23 676.25
00009501 00000162 1024.16 239.78 435.50 589.31 1106.70 497.60 1297.85 454.47 1205.02 594.17 1183.06 708.04 1326.82 672.21
