Video ID: 	IJ1CmaiuIs4
H: 	1080
W: 	1920
FPS: 	25.0

FRAME INDEX X0 Y0 W H [Landmarks (5 Points)]

00004420 00000000 709.74 132.14 413.25 672.79 813.97 386.71 1000.63 377.73 916.07 501.31 845.46 637.45 994.80 628.25
00004421 DELETE   710.25 132.18 414.26 677.44 814.75 386.53 1001.62 377.34 916.94 502.27 846.44 639.50 996.04 630.02
00004422 00000002 709.46 131.61 414.42 678.03 812.15 385.74 1002.48 377.90 914.20 501.64 841.48 637.22 998.15 629.08
00004423 00000003 709.26 131.00 413.62 677.05 810.71 385.41 1002.58 379.46 912.67 501.86 837.30 635.16 998.47 628.65
00004424 00000004 709.37 130.77 414.00 686.91 812.30 384.51 1002.22 378.43 913.50 503.64 838.32 640.02 996.35 633.10
00004425 00000005 709.08 133.61 414.76 694.55 812.33 384.26 1002.75 377.60 913.26 504.98 838.29 644.14 999.16 636.57
00004426 00000006 708.22 133.61 415.60 686.98 810.38 385.13 1002.39 379.29 911.34 505.65 835.51 640.63 997.76 633.76
00004427 00000007 707.84 134.41 414.24 678.07 809.03 385.57 1001.56 380.12 909.85 505.33 834.13 638.18 996.39 631.94
00004428 DELETE   708.75 134.92 413.15 675.43 809.00 386.07 1002.03 380.97 909.75 504.96 833.79 638.75 995.02 632.79
00004429 00000009 709.43 134.72 415.57 690.79 814.02 387.43 1003.29 381.12 914.50 508.97 839.97 645.37 998.49 638.17
00004430 00000010 710.64 136.66 416.52 692.67 817.68 390.43 1003.20 383.92 915.28 512.62 843.15 648.72 996.22 641.45
00004431 00000011 711.66 140.03 416.18 691.36 819.52 391.58 1002.80 383.82 916.86 513.31 847.01 651.34 994.63 643.17
00004432 00000012 712.82 140.77 415.30 690.29 818.51 391.87 1003.55 383.11 915.64 511.94 847.48 653.74 992.42 644.94
00004433 00000013 713.91 139.66 414.67 691.62 819.71 389.06 1004.32 379.95 915.81 511.02 847.48 652.44 991.83 643.36
00004434 00000014 714.25 134.66 414.19 690.56 819.78 387.81 1004.99 378.42 918.85 509.37 850.75 651.21 992.22 641.82
00004435 00000015 714.30 133.35 414.92 681.47 820.54 388.56 1005.78 377.91 923.79 506.13 856.37 646.86 995.66 636.46
00004436 00000016 716.39 132.83 414.84 678.48 823.64 389.84 1006.70 381.46 926.62 504.53 859.65 645.18 997.76 636.42
00004437 00000017 717.67 134.62 415.27 675.20 826.16 392.13 1010.25 383.78 930.76 506.36 863.73 647.15 1002.71 638.48
00004438 DELETE   719.47 135.13 414.99 670.33 829.12 391.39 1015.17 382.63 935.90 505.65 865.48 643.82 1009.01 634.65
00004439 00000019 721.56 136.98 414.42 668.73 833.64 389.72 1018.26 380.49 943.27 505.97 868.98 639.81 1014.87 630.47
00004440 00000020 723.67 135.62 413.96 667.07 838.35 386.92 1022.46 380.16 947.29 502.75 869.85 635.64 1015.59 628.48
00004441 00000021 724.31 134.42 414.63 666.42 838.99 386.07 1023.25 379.57 947.63 499.64 869.95 633.26 1016.13 626.50
00004442 00000022 723.33 131.66 413.74 665.03 837.25 385.88 1024.38 380.55 946.41 498.26 864.99 628.59 1017.18 623.23
00004443 00000023 721.16 131.61 414.28 665.08 834.86 386.57 1022.97 381.70 943.78 497.85 860.23 625.97 1017.41 621.05
00004444 00000024 718.42 133.30 414.29 661.35 831.09 388.17 1018.80 384.26 939.40 499.71 856.30 625.31 1014.21 621.18
00004445 00000025 716.98 133.75 416.39 668.31 828.53 388.37 1014.89 385.46 933.87 499.79 853.21 628.15 1009.91 624.31
00004446 00000026 716.45 131.94 415.23 680.05 828.34 385.65 1013.02 383.34 931.26 500.04 851.83 633.62 1005.12 629.69
00004447 00000027 712.70 130.28 416.40 675.83 823.21 384.18 1012.37 383.17 927.93 498.81 846.98 630.06 1004.83 627.51
00004448 00000028 712.56 131.72 415.61 669.04 822.35 383.07 1013.09 380.44 927.41 497.35 846.47 628.81 1005.07 624.86
00004449 00000029 712.35 130.50 416.39 676.16 823.04 382.92 1010.59 379.88 926.96 496.66 848.06 630.26 1002.94 625.78
00004450 00000030 712.10 132.62 416.29 671.28 822.19 383.15 1009.74 379.53 925.28 497.61 848.90 631.84 1000.60 626.78
00004451 00000031 713.00 132.83 417.38 681.11 824.81 383.92 1009.20 380.30 924.54 500.53 849.71 636.13 999.14 631.20
00004452 00000032 713.36 133.21 416.18 684.42 825.48 384.43 1009.44 382.03 923.71 503.22 846.90 637.64 998.40 633.70
00004453 00000033 713.88 134.32 416.03 686.43 826.42 384.87 1009.82 382.56 923.88 504.95 847.43 638.99 999.20 635.11
00004454 00000034 714.29 134.07 415.48 684.07 825.79 385.59 1009.85 383.48 923.81 504.89 846.54 638.48 998.62 634.86
00004455 00000035 714.45 134.92 415.11 681.68 826.23 384.13 1009.21 382.20 923.91 502.98 846.93 636.50 998.03 633.05
00004456 00000036 713.52 133.66 415.96 675.99 822.68 381.26 1008.83 378.24 922.38 494.71 846.19 631.27 998.38 626.90
00004457 00000037 713.38 131.43 415.89 676.04 822.24 377.45 1010.31 374.02 923.46 489.96 846.33 628.53 999.88 623.70
00004458 00000038 713.50 131.08 414.59 674.15 821.00 375.90 1009.49 372.46 922.15 487.00 844.53 626.34 998.74 621.80
00004459 00000039 713.14 129.29 413.74 672.35 819.87 375.86 1006.90 371.53 920.40 487.03 845.32 625.70 996.86 620.33
00004460 00000040 713.15 132.40 413.44 674.99 820.03 381.70 1004.91 376.66 919.02 492.54 845.30 628.95 997.68 623.14
00004461 DELETE   712.62 134.52 411.42 677.55 824.90 389.17 1002.73 390.13 920.71 496.58 844.57 628.79 995.69 628.36
00004462 DELETE   710.88 140.15 413.02 680.71 821.69 395.94 1000.59 395.51 915.85 509.64 842.13 638.44 994.06 636.62
00004463 00000043 708.60 145.12 417.14 684.46 815.35 399.46 997.26 396.19 908.88 523.34 839.07 649.38 991.66 644.71
00004464 00000044 711.11 152.72 416.56 671.40 812.99 398.17 1001.39 393.04 909.43 520.86 840.94 650.33 984.20 643.84
00004465 00000045 710.15 148.01 418.05 676.50 812.96 395.70 1003.12 390.11 908.60 518.50 840.48 647.97 985.57 640.97
00004466 00000046 710.82 143.29 415.08 679.79 813.37 391.59 1002.41 385.70 908.45 512.59 840.02 644.14 987.92 636.98
00004467 00000047 709.12 139.53 413.02 682.49 814.66 385.20 998.73 383.98 907.01 507.94 833.56 639.54 989.24 636.70
00004468 00000048 708.08 139.01 413.54 676.66 813.91 383.09 1000.43 382.57 907.87 503.99 832.40 634.82 989.92 632.62
00004469 00000049 707.78 137.85 414.17 671.23 813.03 382.40 999.53 380.70 907.69 501.48 834.12 631.86 990.43 628.50
00004470 00000050 707.14 137.61 415.32 667.92 813.08 382.88 998.55 379.51 908.81 499.68 837.14 629.89 991.18 625.12
00004471 00000051 705.70 138.37 416.96 659.98 811.65 383.97 997.30 378.56 909.36 499.41 839.60 628.30 991.70 621.76
00004472 00000052 705.36 138.48 417.31 656.54 810.78 384.76 996.92 378.30 909.10 500.01 841.16 629.34 990.78 622.03
00004473 00000053 704.89 138.75 417.34 655.61 809.95 384.81 996.31 377.63 908.02 499.71 841.07 629.76 989.94 621.88
00004474 00000054 705.17 138.39 416.67 660.70 810.57 383.42 996.53 375.52 908.45 498.79 841.96 631.33 989.43 622.79
00004475 00000055 705.06 138.34 416.07 661.74 810.44 382.24 995.93 374.37 908.35 496.15 842.36 631.27 987.65 622.87
00004476 00000056 705.39 135.55 415.61 663.08 810.77 380.13 996.08 372.77 908.28 494.38 841.73 629.68 986.42 621.61
00004477 00000057 704.57 136.39 415.74 659.39 808.46 378.19 994.94 370.36 907.69 492.09 840.16 627.40 987.79 618.74
00004478 00000058 704.39 135.24 416.73 655.88 806.47 376.76 994.88 369.97 906.06 491.22 836.11 623.29 988.12 615.54
00004479 00000059 703.98 133.67 417.60 654.56 805.37 377.08 995.17 370.36 906.14 489.93 833.89 620.57 990.41 612.96
00004480 00000060 703.59 132.43 419.22 653.38 806.47 377.06 996.50 370.18 907.20 490.36 834.84 618.41 990.89 610.83
00004481 00000061 702.50 134.30 419.14 653.98 805.32 377.36 994.86 370.51 906.36 489.62 834.28 620.12 989.95 612.60
00004482 00000062 702.69 133.04 418.76 655.87 805.39 377.29 994.96 370.45 907.08 490.61 835.07 621.37 989.67 613.85
00004483 00000063 702.93 133.42 418.98 653.74 806.22 377.54 995.19 370.04 907.65 489.58 836.80 620.64 989.96 612.60
00004484 00000064 703.27 133.25 418.60 655.36 806.83 377.20 995.47 369.43 908.35 490.11 837.67 622.04 989.20 613.72
00004485 00000065 704.33 133.19 416.42 655.38 807.62 377.07 995.16 368.67 908.24 489.70 840.52 626.45 984.22 617.73
00004486 00000066 704.62 132.52 416.04 658.39 808.14 376.84 994.95 367.48 908.76 490.63 842.94 628.76 984.43 619.26
00004487 00000067 704.58 132.31 416.12 657.76 807.90 377.05 995.52 367.74 908.80 490.25 842.78 628.73 984.78 619.27
00004488 00000068 704.71 132.78 416.04 655.07 807.64 377.43 995.25 367.71 908.83 489.98 842.64 627.95 985.14 618.26
00004489 00000069 704.86 133.48 415.68 652.31 807.66 376.95 995.12 368.21 908.28 489.54 841.53 626.71 983.76 617.86
00004490 00000070 705.10 134.41 415.95 650.47 806.94 376.94 996.03 369.27 907.96 488.92 839.46 626.26 984.54 618.22
00004491 00000071 705.12 134.45 415.99 653.08 807.05 378.19 995.45 371.02 906.09 490.65 838.79 627.64 982.89 619.97
00004492 00000072 705.01 134.09 416.15 650.42 807.96 378.65 996.40 371.00 908.06 490.66 840.65 627.47 983.36 619.53
00004493 00000073 705.66 133.26 417.18 652.49 810.47 378.10 998.42 370.73 910.47 493.20 842.50 625.70 986.63 617.62
00004494 00000074 707.77 133.47 416.53 656.01 815.64 379.69 1003.62 371.31 918.32 494.31 849.82 629.21 992.48 620.34
00004495 00000075 709.95 133.90 416.91 664.40 820.25 382.08 1007.25 374.27 925.16 495.40 853.84 633.21 996.70 624.86
00004496 00000076 712.46 132.24 416.05 673.22 825.92 385.23 1010.91 379.78 929.93 496.89 854.08 635.27 1001.91 628.96
00004497 00000077 710.10 133.22 417.00 667.78 824.76 386.26 1008.04 383.28 927.39 499.26 850.58 630.23 999.95 625.85
00004498 00000078 704.30 132.65 419.22 668.15 817.77 385.30 1004.65 383.10 921.21 499.23 842.23 626.01 999.46 622.01
00004499 00000079 701.05 133.48 418.29 661.79 810.21 383.67 998.55 380.60 913.98 498.55 836.01 626.63 992.86 622.14
00004500 00000080 700.24 138.40 417.09 664.74 805.86 384.33 994.09 380.64 905.98 502.25 832.22 633.48 983.42 628.90
00004501 00000081 700.77 138.37 416.17 671.35 805.93 384.59 992.96 381.27 903.86 503.86 831.23 637.19 980.99 633.03
00004502 00000082 700.85 136.44 416.84 671.63 805.70 385.01 995.97 384.26 903.26 504.89 827.43 634.77 985.75 632.40
00004503 00000083 704.05 135.72 415.65 673.11 809.94 387.04 999.71 384.26 909.84 507.54 834.01 637.38 989.89 633.23
00004504 00000084 707.49 133.30 417.91 686.28 817.45 388.26 1006.19 383.86 918.41 511.01 841.04 643.21 996.87 637.41
00004505 00000085 709.95 136.28 417.26 686.06 820.49 387.82 1008.23 385.09 919.72 510.06 842.21 642.99 998.30 638.72
00004506 00000086 711.15 136.91 414.78 674.94 817.67 389.09 1006.44 386.07 916.14 508.97 840.81 640.96 995.78 636.72
00004507 00000087 710.53 136.53 415.37 670.39 816.48 388.48 1005.63 385.18 915.04 508.56 840.56 637.74 995.33 633.02
00004508 00000088 711.01 137.11 414.87 663.91 817.58 392.57 1008.15 391.63 916.42 509.42 839.35 632.61 997.91 630.61
00004509 00000089 711.16 134.47 414.55 671.97 822.33 397.53 1007.60 401.12 920.52 512.76 840.98 633.79 997.00 635.56
00004510 00000090 712.75 137.18 415.70 683.24 825.12 396.43 1011.19 397.33 924.17 512.07 845.33 641.16 1001.59 640.22
00004511 00000091 713.44 136.59 415.26 689.91 823.08 392.44 1010.54 392.30 921.87 513.32 842.54 644.80 1000.27 643.03
00004512 00000092 713.08 135.30 416.14 692.15 823.06 391.31 1010.79 391.46 921.36 514.72 841.95 644.94 1000.49 643.25
00004513 00000093 711.87 135.14 416.86 692.56 822.40 390.67 1010.14 391.44 920.86 514.36 840.06 643.47 1000.52 642.22
00004514 00000094 710.71 135.02 416.95 686.56 820.57 389.33 1008.12 390.75 918.84 512.91 838.69 640.07 998.66 639.26
00004515 00000095 710.20 136.11 416.73 675.50 816.87 388.94 1006.83 390.13 915.49 510.91 836.16 636.36 996.29 635.47
00004516 00000096 709.90 135.91 416.19 666.61 815.93 389.26 1005.55 390.06 914.72 509.10 836.38 632.97 994.73 631.79
00004517 00000097 709.03 136.94 417.44 661.66 815.65 390.72 1005.07 390.91 914.84 509.19 837.03 631.51 995.03 629.87
00004518 00000098 708.57 136.36 418.47 662.81 815.67 391.07 1005.77 390.96 915.91 510.64 837.33 632.43 995.67 630.41
00004519 00000099 709.87 137.53 416.74 661.81 816.09 390.72 1005.47 391.14 914.80 510.96 836.96 632.91 994.36 631.47
00004520 00000100 710.12 135.67 417.34 682.01 818.30 389.35 1006.83 391.30 915.42 513.08 836.65 638.71 995.88 638.33
00004521 00000101 710.99 137.54 415.76 687.15 819.43 388.12 1006.39 388.85 914.30 514.61 837.42 640.81 996.68 639.15
00004522 00000102 711.49 137.08 416.72 686.30 818.75 389.37 1006.43 389.84 914.58 515.43 837.65 641.77 996.48 639.93
00004523 00000103 712.33 138.64 418.26 678.41 820.43 393.06 1007.14 391.15 917.05 517.44 844.17 643.26 997.11 639.47
00004524 00000104 712.95 140.00 418.78 675.90 822.42 396.06 1007.56 392.46 919.95 519.56 849.54 646.04 997.67 640.84
00004525 00000105 714.35 141.25 418.39 673.83 823.67 397.17 1007.14 392.43 920.99 520.48 852.38 647.12 997.24 641.10
00004526 00000106 714.56 141.56 417.93 672.96 824.37 397.16 1006.55 392.28 921.34 521.36 854.84 647.72 996.80 641.51
00004527 00000107 715.74 141.80 417.18 669.31 824.24 397.21 1007.09 393.28 920.32 520.22 852.29 645.95 995.68 640.73
00004528 00000108 714.84 139.09 417.85 675.03 821.23 396.76 1008.95 393.59 919.54 521.27 846.54 643.91 1000.52 639.16
00004529 00000109 714.05 138.98 418.08 669.88 820.68 396.32 1009.10 394.11 919.18 518.92 844.66 641.16 999.93 637.28
00004530 00000110 713.08 139.35 418.86 683.56 822.57 394.06 1009.19 392.29 920.17 519.46 843.76 644.61 1000.49 640.91
00004531 00000111 712.89 139.57 418.66 685.69 823.53 392.90 1008.25 391.86 919.65 519.48 844.65 645.04 998.88 641.95
00004532 00000112 712.24 138.94 418.16 682.52 821.78 393.35 1006.98 392.76 917.95 518.58 843.10 644.54 996.08 642.02
00004533 00000113 712.58 138.84 417.78 680.02 821.87 393.33 1006.72 391.09 918.24 517.95 845.23 645.46 995.47 641.49
00004534 00000114 711.53 138.84 418.56 677.22 819.41 393.89 1005.92 390.72 917.56 518.49 845.05 645.74 995.20 640.95
00004535 00000115 711.96 138.11 417.90 676.90 820.95 393.46 1005.85 389.68 918.29 517.45 847.46 645.91 993.84 640.67
00004536 00000116 712.71 137.82 418.28 679.07 820.32 393.81 1006.67 389.50 918.67 517.13 848.02 648.29 993.19 642.76
00004537 00000117 714.52 137.92 416.69 684.38 821.95 392.25 1007.28 387.66 918.47 516.65 850.10 651.55 992.56 645.81
00004538 00000118 714.46 137.75 417.52 687.96 823.27 392.26 1008.05 387.72 919.43 515.43 850.64 651.11 995.05 645.40
00004539 00000119 715.23 138.29 416.67 687.98 824.10 392.44 1008.02 387.49 919.84 515.23 851.42 651.63 994.95 645.59
00004540 00000120 714.75 138.21 416.87 686.56 823.68 392.51 1008.36 387.68 920.09 515.72 850.57 651.09 995.03 645.17
00004541 00000121 714.33 137.28 417.07 685.40 823.15 392.52 1008.44 388.08 919.62 516.30 848.77 649.14 995.00 643.50
00004542 00000122 714.00 137.22 417.38 683.84 821.50 391.99 1008.30 388.46 918.10 515.25 846.56 647.64 995.46 642.70
00004543 00000123 713.26 138.67 418.28 683.83 821.46 391.12 1008.33 387.93 918.25 515.55 845.90 647.35 995.53 642.67
00004544 00000124 713.39 138.43 418.22 690.04 822.86 390.74 1008.66 388.59 918.13 516.57 844.90 648.59 994.56 644.86
00004545 00000125 713.52 138.76 417.62 693.23 822.89 391.31 1007.89 389.56 917.08 516.74 844.29 650.03 993.55 646.67
00004546 00000126 712.46 137.12 418.93 694.79 821.43 391.27 1008.80 389.58 916.69 518.60 843.31 649.28 996.50 645.76
00004547 00000127 711.23 136.77 418.85 686.56 818.32 393.09 1007.38 391.00 915.43 519.01 841.45 646.97 996.15 643.10
00004548 00000128 711.98 137.40 417.23 676.02 816.45 393.75 1007.36 390.80 913.72 518.23 840.60 644.50 996.05 640.03
00004549 00000129 712.40 136.07 417.34 680.07 817.18 395.26 1006.61 390.64 915.34 518.34 844.21 648.35 995.79 642.54
00004550 00000130 711.49 138.72 418.78 677.71 817.29 396.93 1005.01 390.71 917.18 520.34 848.28 650.84 995.18 643.68
00004551 00000131 712.27 141.14 418.21 677.27 819.28 399.19 1004.55 392.63 918.88 523.32 852.21 654.01 996.30 646.52
00004552 00000132 712.64 140.99 419.35 682.82 821.59 398.42 1006.81 391.98 921.92 522.33 853.90 655.89 997.46 648.44
00004553 00000133 713.67 137.01 418.36 688.34 823.70 395.56 1008.11 389.81 923.10 514.73 853.54 652.77 996.99 646.24
00004554 00000134 714.25 136.93 416.60 677.58 823.00 391.19 1008.97 385.22 924.08 504.34 852.56 644.68 998.17 638.14
00004555 00000135 713.99 134.01 414.28 669.08 822.75 387.91 1009.93 382.83 927.28 495.22 852.29 634.83 1001.58 629.02
00004556 DELETE   715.42 130.36 413.57 671.35 828.79 390.05 1012.96 389.78 936.19 491.46 855.13 628.90 1007.23 627.67
CROP_BBOX: 408 0 1396 973
