Video ID: 	FxtBQ4I-smg
H: 	1080
W: 	1920
FPS: 	25.0

FRAME INDEX X0 Y0 W H [Landmarks (5 Points)]

00004222 00000000 901.34 184.27 376.33 566.36 941.70 394.06 1089.96 433.03 937.56 508.05 929.64 601.39 1042.28 635.89
00004223 00000001 893.82 187.58 387.28 574.85 943.45 397.63 1089.53 435.30 941.76 508.34 932.37 604.89 1039.72 635.36
00004224 00000002 891.16 196.16 393.18 570.17 941.63 399.72 1095.36 431.31 951.85 519.88 937.97 614.08 1050.49 639.62
00004225 00000003 885.84 192.71 398.23 580.25 941.87 405.24 1096.10 431.60 955.84 520.64 940.71 618.03 1055.93 639.07
00004226 DELETE   884.99 197.46 394.07 577.76 936.82 404.56 1084.47 426.09 947.44 517.22 938.93 620.86 1047.37 637.78
00004227 00000005 878.72 185.92 380.52 588.64 920.44 401.89 1068.98 424.08 930.70 516.98 919.98 615.73 1034.03 634.98
00004228 DELETE   866.77 177.42 382.97 583.90 904.36 398.85 1051.27 418.87 914.18 515.43 901.36 610.83 1019.22 628.38
00004229 00000007 857.81 175.05 388.25 580.22 893.65 398.28 1041.69 417.68 899.41 515.60 892.13 607.25 1013.46 623.71
00004230 00000008 850.42 175.89 391.52 572.87 889.40 395.64 1039.11 411.49 899.65 510.99 888.40 603.81 1009.17 617.38
00004231 00000009 847.75 177.57 391.69 570.44 887.22 394.32 1037.13 408.27 899.57 510.09 887.54 604.55 1007.32 616.64
00004232 00000010 843.56 167.99 391.67 584.05 883.43 393.06 1034.12 409.99 895.05 510.60 883.13 607.71 1001.13 622.35
00004233 00000011 839.27 170.23 391.51 586.54 878.83 393.42 1028.20 411.28 891.23 511.16 880.17 610.65 991.65 625.88
00004234 00000012 839.73 171.71 389.41 591.83 878.41 394.16 1025.98 412.23 890.97 512.12 881.87 614.92 987.07 630.70
00004235 00000013 841.46 172.43 390.05 594.05 880.64 394.00 1026.25 410.94 890.06 510.42 885.53 616.99 987.21 631.79
00004236 00000014 844.16 169.25 388.83 596.72 881.89 392.41 1026.76 408.78 890.89 509.15 887.04 615.10 989.25 629.38
00004237 00000015 842.39 162.97 390.70 600.51 882.41 391.47 1028.33 407.33 892.09 505.68 886.87 612.44 990.36 626.31
00004238 00000016 843.02 162.87 389.31 598.31 883.16 390.57 1027.63 406.52 891.62 503.41 886.28 609.37 989.29 623.30
00004239 00000017 842.39 159.88 390.58 597.26 881.89 389.77 1028.33 406.25 891.78 504.37 883.91 608.32 989.18 622.76
00004240 00000018 844.84 164.09 390.61 590.95 882.43 389.31 1029.68 406.59 891.49 504.39 882.07 606.99 989.80 622.14
00004241 00000019 845.65 164.94 392.50 590.95 883.75 387.82 1033.48 405.70 892.30 504.86 881.90 605.25 998.01 620.88
00004242 00000020 845.74 165.19 394.55 591.47 884.90 387.21 1035.65 405.31 892.40 503.99 881.83 604.73 1000.33 620.68
00004243 00000021 844.78 163.13 395.35 591.30 885.59 386.48 1036.25 404.74 892.90 503.64 882.72 603.13 1001.46 619.09
00004244 00000022 846.30 165.05 393.40 584.96 885.74 385.62 1037.28 405.32 893.94 504.18 881.45 600.26 1001.66 617.33
00004245 00000023 846.69 162.75 394.51 584.40 887.44 385.83 1039.18 405.68 895.79 503.98 881.82 598.87 1003.25 616.30
00004246 00000024 847.25 161.41 394.99 585.65 888.78 384.77 1041.97 406.82 898.13 504.84 881.21 598.12 1005.26 617.34
00004247 00000025 847.83 161.73 395.87 582.67 889.88 383.01 1043.79 406.81 898.34 504.52 881.50 594.81 1006.88 615.31
00004248 00000026 848.83 162.40 395.15 581.72 891.83 383.39 1045.66 405.74 901.04 504.25 883.26 594.65 1009.68 614.09
00004249 00000027 850.91 161.92 396.37 580.63 893.05 382.48 1046.85 404.98 902.01 503.53 884.88 593.28 1012.33 612.94
00004250 00000028 854.36 162.33 393.20 576.79 896.58 380.87 1048.66 403.23 903.48 502.65 887.78 591.51 1014.44 611.18
00004251 00000029 856.76 160.08 393.05 577.79 898.64 380.85 1050.35 401.69 905.88 501.36 890.65 591.22 1015.43 609.91
00004252 00000030 859.51 158.19 391.19 576.04 900.90 378.80 1053.07 400.56 909.23 498.59 892.19 589.04 1018.17 608.39
00004253 00000031 861.02 157.83 390.66 573.08 902.52 376.50 1054.50 399.63 912.60 499.01 894.84 588.45 1019.06 608.87
00004254 00000032 861.04 153.97 391.12 575.16 903.50 375.17 1057.24 400.06 917.48 500.98 895.16 587.67 1021.04 609.64
00004255 00000033 863.70 156.85 391.25 571.74 905.82 375.86 1059.74 398.68 922.46 501.56 898.21 589.45 1024.03 609.87
00004256 00000034 866.35 155.51 390.53 572.16 907.25 376.38 1062.03 397.84 925.49 500.43 900.71 590.32 1028.06 609.51
00004257 00000035 868.79 157.52 389.77 570.05 910.35 375.79 1064.07 397.79 927.82 500.10 903.55 590.22 1030.65 609.81
00004258 00000036 870.18 156.21 391.30 572.71 912.77 375.00 1066.17 398.37 928.59 500.14 905.98 589.60 1033.72 610.17
00004259 00000037 873.83 159.32 390.06 567.27 914.79 373.23 1068.71 397.38 929.17 499.39 907.43 589.12 1035.72 610.20
00004260 00000038 877.03 157.76 389.22 566.22 916.46 372.25 1070.92 395.99 931.41 497.06 911.13 586.86 1038.62 607.41
00004261 00000039 880.09 157.39 386.24 565.34 919.10 371.76 1071.56 396.42 932.12 494.91 912.43 584.63 1037.31 605.79
00004262 00000040 882.11 159.70 384.99 560.17 920.67 369.59 1073.65 395.73 932.95 493.97 913.35 582.72 1038.47 604.88
00004263 00000041 885.72 161.43 383.14 554.30 923.23 369.05 1075.89 394.98 935.51 491.77 915.31 580.48 1037.73 602.32
00004264 00000042 886.72 160.40 382.75 553.11 924.34 366.93 1076.96 394.02 934.94 489.53 916.16 578.77 1039.47 601.49
00004265 00000043 885.58 160.10 384.10 550.34 924.68 369.25 1072.83 395.56 931.41 485.83 916.02 575.31 1036.91 597.10
00004266 00000044 885.52 158.50 384.71 549.46 922.46 367.30 1072.82 393.03 929.60 486.31 913.96 574.72 1035.45 596.01
00004267 00000045 884.45 152.55 382.62 553.61 922.04 362.62 1073.63 390.08 929.18 484.60 910.12 572.27 1031.97 595.02
00004268 00000046 884.08 151.08 380.61 551.79 920.28 362.54 1071.24 387.76 928.56 480.81 907.86 570.43 1028.42 591.51
00004269 00000047 882.47 152.20 382.37 550.70 918.83 362.74 1067.76 385.11 927.00 479.18 907.93 569.39 1026.43 588.41
00004270 00000048 880.31 154.43 382.38 546.27 918.00 360.98 1066.40 381.69 927.93 475.78 906.35 567.64 1023.19 585.42
00004271 00000049 878.75 153.89 383.16 546.07 917.23 360.07 1061.98 379.71 926.28 473.44 906.16 565.72 1018.42 582.69
00004272 00000050 876.68 152.66 383.84 545.40 915.01 359.48 1059.22 378.32 923.45 471.48 904.45 565.08 1015.26 581.36
00004273 00000051 875.49 152.11 382.23 543.47 912.12 358.67 1056.23 375.73 919.58 469.06 901.85 564.27 1013.24 579.00
00004274 00000052 871.42 151.60 384.96 544.54 911.29 358.60 1056.68 373.41 921.32 463.77 901.00 563.73 1012.74 576.70
00004275 00000053 869.22 151.60 385.66 541.55 910.11 355.70 1053.62 371.52 920.34 461.31 898.45 560.22 1009.83 573.82
00004276 00000054 869.04 151.58 384.71 538.75 920.24 347.61 1066.64 369.01 923.60 450.61 903.35 554.14 1013.33 573.65
00004277 00000055 871.15 148.12 375.90 541.83 906.25 345.53 1051.68 367.96 915.74 452.20 891.04 549.74 1002.48 569.30
00004278 00000056 869.41 147.74 376.81 541.48 905.47 344.68 1051.39 366.83 915.22 450.97 890.58 548.29 1001.76 567.68
00004279 00000057 868.98 148.05 375.04 540.92 904.65 344.00 1050.35 366.93 914.78 450.90 890.05 547.44 1001.59 567.38
00004280 00000058 868.51 147.13 375.38 540.94 903.86 343.50 1049.14 366.74 913.64 450.53 889.34 546.19 1000.87 566.41
00004281 00000059 867.87 147.68 375.67 540.44 903.39 342.74 1049.55 366.28 913.39 449.61 888.43 545.79 1000.48 566.27
00004282 00000060 868.14 148.63 375.48 539.62 904.19 342.37 1050.19 365.84 913.68 449.28 888.76 545.38 1001.21 565.79
00004283 00000061 869.31 150.06 373.85 537.02 905.36 342.96 1050.55 366.95 915.41 450.86 890.37 545.62 1002.03 566.30
00004284 00000062 870.99 151.47 372.59 536.23 906.88 345.40 1050.15 368.24 916.54 452.85 891.73 549.15 1002.06 568.79
00004285 00000063 869.20 155.54 379.78 532.14 922.00 349.05 1065.64 371.85 923.79 452.10 902.58 553.37 1010.21 574.04
00004286 00000064 871.66 156.11 377.19 530.83 923.53 350.67 1066.62 373.56 925.60 452.35 904.90 553.62 1011.51 574.16
00004287 00000065 872.58 150.38 378.91 537.50 913.96 355.85 1055.43 371.74 923.90 460.22 899.73 557.16 1011.65 570.59
00004288 00000066 874.81 151.79 377.81 535.46 916.04 354.74 1056.43 372.38 924.59 459.78 899.49 554.36 1011.75 569.13
00004289 00000067 876.05 152.17 377.80 535.10 917.63 354.94 1057.34 371.95 926.59 459.25 900.55 554.09 1012.14 568.40
00004290 00000068 878.66 152.29 374.90 536.05 917.71 356.01 1057.37 372.22 926.83 461.33 901.40 557.57 1012.10 571.31
00004291 00000069 881.94 156.37 371.73 531.90 918.58 359.55 1056.28 376.97 926.31 465.50 901.39 559.39 1009.32 574.02
00004292 00000070 883.78 159.37 371.45 528.00 920.64 359.28 1057.69 379.59 927.09 467.44 901.64 558.46 1008.92 575.29
00004293 00000071 885.96 160.71 372.29 528.63 922.10 360.77 1059.89 381.92 928.56 470.59 904.33 560.75 1011.79 578.35
00004294 00000072 888.79 163.28 371.19 526.64 922.85 360.99 1062.35 382.72 929.75 471.95 905.36 561.22 1014.46 579.14
00004295 00000073 891.22 162.33 369.32 528.32 923.46 361.62 1063.84 383.01 930.82 473.34 906.15 562.09 1016.35 579.66
00004296 00000074 890.59 164.44 370.00 527.33 923.41 362.69 1064.23 384.03 930.69 473.81 906.27 563.23 1017.03 580.87
00004297 00000075 890.02 166.21 368.85 526.76 923.23 363.46 1063.10 385.13 928.09 473.30 905.04 563.91 1014.10 581.95
00004298 00000076 888.37 168.66 369.33 525.27 922.50 364.30 1063.90 387.32 928.14 474.29 904.33 563.59 1014.79 582.70
00004299 00000077 888.12 166.07 369.81 529.46 923.05 367.46 1063.45 391.01 926.67 474.74 905.07 564.75 1014.81 584.16
00004300 00000078 889.17 167.98 369.75 528.58 922.34 366.71 1064.80 390.85 925.21 475.27 904.74 566.24 1016.39 586.05
00004301 00000079 891.62 166.93 367.93 529.79 922.44 366.19 1067.77 390.69 928.45 476.54 905.48 567.98 1019.06 588.00
00004302 00000080 891.69 164.26 368.61 533.18 923.30 365.63 1070.14 390.22 931.31 478.36 907.07 568.93 1023.09 588.98
00004303 00000081 892.97 165.02 367.43 531.95 924.11 366.01 1071.56 389.98 932.33 477.48 907.09 569.80 1023.32 589.37
00004304 00000082 893.20 164.97 368.61 532.61 924.27 366.77 1072.00 390.80 932.79 478.29 907.72 570.80 1023.42 590.45
00004305 00000083 893.93 165.15 369.41 531.39 925.90 366.36 1074.32 390.55 935.69 478.22 910.00 570.33 1026.58 589.97
00004306 00000084 892.55 166.33 363.71 529.15 919.87 362.19 1075.91 393.54 928.40 474.12 914.36 568.63 1031.29 595.96
00004307 00000085 894.00 171.73 372.76 524.76 931.20 369.91 1077.10 393.67 936.74 477.25 913.92 569.52 1028.78 588.59
00004308 00000086 893.19 174.86 369.38 522.79 921.86 368.22 1079.13 398.44 931.12 477.36 916.28 571.13 1035.17 597.92
00004309 00000087 895.35 171.27 368.59 527.40 922.67 366.36 1082.57 398.65 933.60 481.44 917.47 573.79 1038.69 602.53
00004310 00000088 897.20 170.57 369.62 532.44 924.59 367.46 1087.15 401.33 938.44 487.50 918.31 577.51 1042.83 607.83
00004311 00000089 898.17 171.01 369.51 535.55 927.56 370.13 1091.02 401.78 943.82 489.41 920.41 581.04 1046.27 609.99
00004312 00000090 899.74 171.85 373.23 539.86 929.05 371.22 1094.97 403.02 947.03 493.25 922.84 585.55 1049.21 614.89
00004313 00000091 900.13 174.51 377.76 541.12 931.81 373.30 1097.97 406.04 949.23 496.47 925.68 587.81 1052.30 618.05
00004314 00000092 899.69 177.51 380.84 540.09 932.06 373.18 1099.97 405.48 953.00 499.71 929.18 589.25 1054.70 619.14
00004315 00000093 900.32 177.68 380.50 539.61 932.59 372.96 1100.30 405.20 953.50 499.98 929.77 589.46 1055.38 619.32
00004316 00000094 900.04 177.17 381.38 540.62 932.07 373.73 1100.01 406.38 952.46 500.24 928.91 589.77 1054.64 619.91
00004317 00000095 899.59 178.67 381.63 540.89 931.74 374.49 1099.84 408.19 952.49 503.74 929.77 591.22 1054.93 622.10
00004318 00000096 898.49 180.61 383.86 541.44 932.55 376.16 1100.15 411.08 952.04 504.50 929.61 591.19 1054.56 622.99
00004319 00000097 897.12 180.60 384.46 543.33 933.20 378.33 1100.26 412.79 952.61 505.71 930.27 593.50 1054.00 625.05
00004320 00000098 896.34 181.39 384.42 544.11 933.07 379.14 1099.00 413.73 951.43 506.31 930.25 594.62 1053.58 626.25
00004321 00000099 894.01 182.59 384.81 543.30 931.49 377.80 1098.04 413.81 949.93 505.10 928.26 594.20 1051.93 626.94
00004322 00000100 893.87 180.90 382.88 543.60 929.39 377.15 1095.33 412.96 946.05 504.02 925.92 594.34 1049.62 626.91
00004323 00000101 893.16 183.87 381.61 540.08 927.40 377.72 1093.46 411.69 943.04 504.13 924.11 595.39 1047.15 626.43
00004324 00000102 891.35 184.51 380.79 538.88 925.88 378.42 1091.70 412.03 942.58 504.34 922.41 595.46 1045.95 626.12
00004325 00000103 890.47 187.13 381.30 535.43 925.47 378.47 1090.64 411.37 942.10 504.09 922.32 595.16 1045.56 625.25
00004326 00000104 888.79 183.07 382.95 540.49 923.85 378.18 1090.11 410.75 942.37 504.84 922.34 595.21 1045.92 624.99
00004327 00000105 888.20 180.12 384.58 543.48 923.43 377.62 1089.94 410.04 942.55 505.30 922.74 595.63 1046.51 625.32
00004328 00000106 888.08 183.03 384.45 540.06 922.95 377.51 1089.77 409.49 942.24 505.40 922.71 595.83 1046.15 625.19
00004329 00000107 888.35 181.70 384.95 541.81 923.28 377.37 1089.66 409.85 942.08 505.37 923.05 594.95 1047.01 624.73
00004330 00000108 889.93 183.30 384.21 540.25 924.29 377.16 1090.33 409.39 941.76 504.19 923.39 595.15 1047.07 624.72
00004331 00000109 891.42 183.03 384.21 539.10 925.25 376.14 1091.40 409.43 942.39 503.98 923.62 594.27 1046.62 624.74
00004332 00000110 892.57 182.87 384.24 539.48 925.81 374.92 1092.27 408.71 943.26 503.99 924.44 593.55 1048.23 624.47
00004333 00000111 893.11 182.86 384.46 538.91 925.87 375.40 1091.76 408.95 942.21 504.07 924.86 593.36 1048.27 624.10
00004334 00000112 893.51 183.39 383.24 538.27 925.59 375.29 1091.12 409.32 941.74 504.23 925.81 593.01 1049.59 624.06
00004335 00000113 893.91 183.02 384.10 539.42 926.00 375.64 1091.94 409.63 942.15 504.31 925.92 593.66 1049.88 624.69
00004336 00000114 894.40 182.93 382.96 538.83 926.45 374.65 1092.25 409.62 942.24 504.03 926.03 592.74 1049.98 624.53
00004337 00000115 894.70 184.23 382.90 536.27 927.03 374.18 1092.54 408.75 943.12 504.39 926.62 592.54 1049.20 623.97
00004338 00000116 894.66 185.33 382.66 534.17 927.27 374.06 1092.91 407.95 944.08 504.32 927.12 592.35 1049.14 623.19
00004339 00000117 895.07 184.48 382.51 535.31 927.31 374.13 1092.35 408.28 943.82 504.25 927.57 591.90 1049.94 622.94
00004340 00000118 895.31 184.39 381.42 536.17 927.26 375.07 1092.02 409.43 943.22 504.16 927.17 592.25 1050.18 623.49
00004341 00000119 894.93 183.68 382.28 537.01 927.03 375.38 1091.85 410.26 943.02 504.27 926.67 591.68 1050.37 623.36
00004342 00000120 894.39 187.19 381.43 532.96 926.95 375.43 1091.51 409.96 942.43 503.55 925.80 591.09 1050.01 622.40
00004343 00000121 893.33 187.51 380.38 531.87 925.85 376.66 1089.62 409.25 942.29 504.32 925.36 592.77 1047.61 622.50
00004344 00000122 890.11 185.43 380.68 533.05 924.04 376.36 1087.92 408.66 941.42 504.45 923.59 592.71 1045.15 622.15
00004345 00000123 888.75 182.47 378.61 535.23 922.38 376.89 1085.96 408.82 938.22 503.11 920.36 592.04 1042.40 620.95
00004346 00000124 887.44 183.27 376.66 534.58 921.46 377.71 1084.72 409.56 937.53 503.83 919.49 591.76 1041.46 620.55
00004347 00000125 888.62 187.42 378.50 530.06 922.47 376.42 1074.12 401.36 933.30 502.02 912.10 589.71 1037.17 610.41
00004348 00000126 886.65 186.13 378.69 531.61 920.45 377.31 1070.61 401.83 931.49 502.50 910.36 589.35 1034.06 609.98
00004349 00000127 883.50 188.14 377.65 531.49 918.15 378.94 1068.73 403.49 929.14 502.03 907.13 589.76 1031.37 610.56
00004350 00000128 881.53 187.29 376.97 533.64 916.25 380.66 1067.10 404.75 927.86 503.16 905.09 591.41 1029.88 611.93
00004351 00000129 880.27 187.96 377.13 533.22 915.35 382.80 1065.72 406.13 927.28 503.91 905.16 591.60 1030.14 611.46
00004352 00000130 877.35 191.19 377.79 531.23 912.74 382.45 1063.81 406.10 924.76 506.80 902.67 592.04 1026.57 612.34
00004353 00000131 873.26 189.15 379.61 532.76 910.98 384.36 1060.77 407.09 921.81 506.86 901.49 591.56 1024.69 611.25
00004354 00000132 870.21 185.33 383.37 536.19 908.82 384.44 1057.97 407.63 918.35 506.70 900.28 589.97 1024.03 609.90
00004355 00000133 867.82 183.47 384.00 537.80 907.01 382.56 1055.71 406.99 915.35 507.71 898.84 588.82 1022.99 609.76
00004356 00000134 866.51 180.44 382.95 541.79 905.59 384.34 1053.63 407.90 913.85 508.78 898.05 589.95 1022.40 610.07
00004357 00000135 866.06 179.21 381.04 543.59 906.74 384.11 1055.61 409.14 915.80 509.78 898.57 590.06 1023.78 611.38
00004358 00000136 864.81 183.58 381.82 541.13 902.48 385.86 1052.19 409.82 912.76 512.96 896.76 593.14 1022.52 613.55
00004359 00000137 864.62 185.76 382.28 540.08 899.56 387.64 1049.00 410.65 909.20 515.08 896.37 594.49 1020.68 614.03
00004360 00000138 862.90 183.04 382.77 544.79 897.42 388.80 1046.84 412.73 907.92 515.85 894.11 594.94 1018.01 615.19
00004361 00000139 860.04 183.85 384.02 546.15 895.40 389.95 1044.78 415.84 907.36 519.68 892.07 595.50 1015.96 617.19
00004362 00000140 859.88 182.02 384.46 548.93 894.74 391.00 1044.22 417.05 906.53 519.95 891.22 595.74 1014.93 617.53
00004363 00000141 857.47 182.76 385.77 547.29 893.63 388.64 1043.89 416.56 904.44 519.45 889.67 594.16 1014.26 617.43
00004364 00000142 854.41 178.38 385.00 551.24 891.31 386.33 1042.37 414.39 900.18 516.70 886.12 592.65 1011.69 615.99
00004365 00000143 853.64 175.44 383.42 551.32 890.77 384.27 1040.90 412.14 899.81 513.86 884.10 590.98 1009.62 614.33
00004366 00000144 852.18 175.68 383.75 549.59 888.38 383.39 1038.40 410.73 898.56 513.20 881.81 590.63 1006.32 613.55
00004367 00000145 850.51 177.60 383.41 549.45 886.18 384.83 1036.24 410.77 896.44 511.87 879.63 592.34 1002.36 614.18
00004368 00000146 847.72 178.26 384.71 549.95 884.57 384.36 1034.99 411.04 895.23 511.96 878.18 593.38 997.86 615.79
00004369 00000147 846.23 178.12 386.01 552.11 882.99 383.76 1033.07 411.26 893.78 512.11 877.50 594.87 995.42 617.80
00004370 00000148 842.22 174.81 388.35 556.30 879.81 384.21 1031.23 411.93 893.45 512.34 875.13 595.23 992.32 618.26
00004371 00000149 837.15 174.09 388.80 556.60 871.59 383.91 1035.99 413.76 884.77 513.98 873.82 599.46 994.83 626.16
00004372 00000150 834.04 173.83 387.15 557.27 866.58 382.20 1029.72 412.96 881.39 513.11 871.46 597.71 991.50 625.23
00004373 00000151 830.83 176.80 384.41 553.20 863.75 383.12 1025.84 416.20 877.51 514.25 868.00 596.64 988.10 625.90
00004374 00000152 825.23 170.79 388.72 570.16 871.07 395.74 1018.62 424.82 875.86 514.13 867.96 597.63 984.18 620.66
00004375 00000153 818.35 176.96 393.51 575.26 869.75 406.90 1017.03 433.66 877.31 521.49 869.29 605.36 985.14 626.64
00004376 00000154 814.21 190.37 395.24 578.77 866.60 417.68 1020.42 440.07 883.67 532.56 871.69 622.62 992.05 639.88
00004377 DELETE   813.07 208.18 395.42 577.48 866.22 440.04 1023.84 461.20 890.25 551.29 877.91 638.70 998.88 654.59
00004378 DELETE   808.58 205.14 403.30 595.21 868.89 453.05 1028.36 472.87 904.26 565.75 886.29 651.20 1008.75 666.71
00004379 00000157 805.21 227.36 412.24 582.83 871.81 470.28 1035.72 488.10 909.83 590.14 890.19 662.57 1025.42 675.74
00004380 DELETE   806.81 246.67 414.85 576.27 875.81 483.96 1050.83 507.42 928.14 613.28 893.95 677.47 1031.83 695.56
00004381 DELETE   807.38 259.99 414.72 578.55 883.59 503.78 1062.45 524.25 946.93 637.79 902.16 696.77 1044.64 713.01
00004382 00000160 802.68 272.73 416.59 574.22 885.82 526.02 1071.10 540.30 962.32 662.68 901.48 709.28 1054.25 720.59
00004383 00000161 797.56 276.69 416.65 576.73 885.87 530.90 1072.37 548.78 964.44 674.91 899.07 713.77 1055.49 728.48
00004384 00000162 792.17 297.76 418.93 558.46 883.93 535.67 1076.76 552.01 967.99 685.58 900.66 722.14 1056.04 735.99
00004385 00000163 792.14 307.91 422.97 549.83 884.39 533.22 1072.67 547.74 962.67 678.53 901.30 728.06 1059.23 739.06
00004386 00000164 785.76 307.68 425.83 547.96 881.56 536.22 1069.41 549.15 963.26 679.45 902.28 730.33 1056.44 739.99
00004387 00000165 779.40 308.22 430.13 547.85 878.83 534.61 1066.89 550.03 959.52 679.55 896.44 725.91 1054.46 737.93
00004388 00000166 772.47 316.49 432.89 539.84 875.85 534.59 1064.87 549.06 957.63 678.97 890.88 723.49 1051.35 735.32
00004389 00000167 761.93 323.19 436.23 534.57 872.22 536.27 1062.51 551.70 955.72 682.08 887.32 722.00 1047.60 734.68
