Video ID: 	4rPOcMIr4Fc
H: 	1080
W: 	1920
FPS: 	23.976023976023978

FRAME INDEX X0 Y0 W H [Landmarks (5 Points)]

00056555 00000000 366.11 224.17 495.23 698.86 476.07 540.45 710.32 560.56 573.72 708.78 478.73 767.21 677.02 783.89
00056556 00000001 359.89 223.71 499.57 697.04 476.43 535.48 711.56 556.22 573.86 703.85 473.74 757.51 677.07 775.02
00056557 00000002 357.64 219.23 497.56 701.50 476.69 530.85 710.47 555.17 574.00 699.24 471.80 756.45 671.46 776.93
00056558 00000003 346.50 222.60 502.15 699.40 475.88 530.22 707.45 562.14 570.93 700.63 467.54 761.61 653.17 789.47
00056559 00000004 334.23 230.00 505.51 691.24 468.02 533.04 696.65 566.17 560.33 705.67 460.35 764.31 642.38 793.23
00056560 00000005 330.22 232.91 492.59 696.48 456.55 535.04 683.84 570.92 545.76 707.42 440.92 759.65 633.69 790.49
00056561 DELETE   317.41 236.10 492.84 686.74 443.71 534.22 672.65 571.50 533.37 705.99 428.65 756.01 620.53 787.70
00056562 DELETE   304.32 231.76 492.91 689.23 432.11 532.64 659.98 569.53 522.29 705.99 417.49 753.54 608.32 784.96
00056563 00000008 299.13 222.00 493.68 687.57 427.76 522.77 653.71 561.00 515.24 694.38 413.99 743.78 599.19 776.51
00056564 00000009 295.14 213.89 493.74 679.55 426.80 510.16 649.99 550.47 511.60 676.22 408.11 730.60 585.11 765.36
00056565 00000010 288.86 210.53 491.83 680.83 416.00 492.38 642.34 531.37 505.88 657.49 405.45 724.73 581.43 758.09
00056566 00000011 284.66 193.92 493.67 693.23 413.32 479.55 635.62 516.54 502.73 642.59 407.01 719.40 577.92 751.05
00056567 DELETE   281.21 182.15 491.58 697.69 408.27 471.88 627.74 506.91 496.47 634.69 403.15 714.74 568.23 744.87
00056568 00000013 271.95 179.77 492.61 687.60 395.31 466.88 615.61 500.97 481.33 629.41 389.66 707.09 556.85 736.73
00056569 00000014 262.29 180.22 493.33 681.11 387.81 466.80 607.37 498.56 474.86 629.57 386.85 706.53 551.47 733.89
00056570 00000015 256.21 181.71 491.23 683.30 377.25 468.75 600.59 497.27 465.50 630.99 380.28 715.50 542.61 740.01
00056571 00000016 251.41 180.20 491.38 688.46 369.55 471.78 596.36 495.36 461.87 632.78 379.02 724.27 539.18 744.54
00056572 00000017 252.78 178.46 482.25 705.39 371.35 473.85 590.63 495.75 467.70 633.69 379.99 728.49 539.99 747.65
00056573 00000018 248.07 176.25 486.35 709.30 371.25 476.71 589.68 494.92 467.57 634.11 379.93 725.31 544.78 741.30
00056574 00000019 245.72 176.64 487.42 703.53 368.75 482.14 589.75 494.46 467.30 636.95 378.79 720.13 555.60 730.74
00056575 00000020 244.61 176.75 489.43 699.07 365.59 482.98 589.41 491.91 466.20 638.50 377.22 714.50 564.88 721.79
00056576 00000021 243.80 172.48 489.25 699.74 363.77 480.64 588.66 488.94 464.99 636.30 375.65 710.60 565.98 717.21
00056577 00000022 242.58 170.90 489.05 702.78 360.82 479.37 584.72 487.04 461.12 633.00 374.07 710.45 564.23 716.46
00056578 00000023 239.98 171.54 489.83 704.82 357.70 481.43 580.46 486.27 457.94 633.86 375.01 715.11 562.83 718.68
00056579 00000024 235.23 172.39 493.17 704.52 353.43 487.56 576.69 486.48 456.17 637.48 378.65 723.06 562.79 721.61
00056580 00000025 232.64 172.70 493.36 702.64 350.31 491.71 571.65 487.20 452.75 637.92 380.58 727.16 559.23 722.92
00056581 00000026 233.54 180.32 489.37 690.85 346.05 492.02 568.90 489.28 450.58 636.88 377.80 722.16 555.56 719.28
00056582 00000027 232.04 180.60 487.14 692.03 342.33 490.00 563.82 487.83 446.30 637.43 375.62 723.37 551.16 721.02
00056583 00000028 230.19 177.91 487.91 693.63 337.99 486.94 560.60 483.53 442.27 637.84 372.50 723.36 548.30 720.27
00056584 00000029 227.52 174.78 489.77 695.40 334.00 485.47 556.99 480.81 438.43 635.18 369.76 722.29 546.14 718.20
00056585 00000030 225.44 171.32 491.05 696.87 331.16 483.53 554.84 478.38 435.82 633.32 367.45 720.69 545.01 716.25
00056586 00000031 223.23 171.59 492.85 700.90 331.09 483.36 554.22 477.25 436.36 631.74 366.79 719.76 546.24 714.48
00056587 00000032 222.69 170.62 493.82 703.01 330.70 483.19 553.66 475.13 436.74 630.48 367.97 719.76 548.17 712.87
00056588 00000033 223.34 169.52 493.78 706.41 331.61 481.68 553.78 471.04 438.98 627.06 372.26 721.01 550.55 712.02
00056589 00000034 224.79 166.08 493.69 712.24 334.22 477.18 556.55 466.15 442.65 621.89 374.67 717.72 555.33 708.40
00056590 00000035 227.79 162.11 493.38 716.24 341.32 470.79 564.57 459.18 453.48 612.52 383.44 713.22 565.37 703.41
00056591 00000036 229.93 153.49 493.54 719.40 348.39 462.12 569.79 450.17 460.45 594.94 391.31 704.21 572.81 693.73
00056592 00000037 232.06 144.42 492.45 718.24 354.48 455.56 575.29 439.85 472.13 585.90 400.30 694.84 582.06 681.01
00056593 00000038 228.27 133.16 497.03 719.97 355.13 452.66 580.94 428.21 476.58 578.63 401.91 694.36 587.19 673.41
00056594 00000039 227.02 128.48 499.78 720.85 355.43 451.29 579.16 423.50 476.77 574.33 403.99 690.24 590.17 666.18
00056595 00000040 230.17 136.54 497.83 707.52 353.01 450.86 575.60 424.63 479.36 579.95 410.27 686.11 593.82 663.87
00056596 00000041 229.57 141.55 496.08 705.96 352.17 457.33 574.15 429.86 479.21 585.25 410.54 691.79 593.96 668.60
00056597 00000042 228.28 148.29 495.00 704.73 350.97 466.70 570.77 438.70 476.32 593.49 409.93 698.55 589.58 675.02
00056598 00000043 226.12 157.34 496.50 707.08 347.19 477.90 569.87 450.12 471.07 609.77 405.23 709.49 588.04 686.27
00056599 00000044 221.24 163.13 501.65 714.12 343.16 489.57 563.01 461.06 463.56 622.68 405.31 722.63 582.69 698.71
00056600 00000045 217.03 171.95 505.57 714.52 338.86 501.63 557.04 472.28 457.06 632.81 403.52 734.79 576.35 709.89
00056601 00000046 204.68 177.58 513.62 716.53 330.12 504.68 551.53 476.63 455.10 641.83 398.71 742.98 575.10 719.19
00056602 00000047 200.88 181.28 513.78 711.72 323.82 507.12 547.43 480.36 447.38 647.94 390.92 741.87 571.69 718.90
00056603 00000048 195.31 177.67 517.34 715.85 319.29 506.93 542.97 479.25 441.76 644.78 384.40 740.17 566.62 716.24
00056604 00000049 199.69 175.94 509.95 719.00 319.24 504.93 537.34 476.26 433.09 635.45 382.01 742.97 551.14 718.18
00056605 00000050 198.34 167.12 503.56 727.38 315.71 496.15 533.98 470.00 430.04 629.29 378.99 743.90 543.00 721.57
00056606 00000051 192.20 158.87 503.56 735.58 312.23 489.07 531.68 463.23 428.81 623.08 377.22 743.09 539.59 720.94
00056607 00000052 189.06 160.09 502.57 737.47 307.99 488.53 528.18 462.61 424.34 623.52 371.83 744.92 535.65 722.73
00056608 00000053 186.17 161.82 503.31 739.05 305.02 496.16 524.12 469.20 419.99 628.75 368.92 749.82 531.11 726.50
00056609 00000054 183.57 167.32 499.77 736.34 300.89 505.56 520.33 477.54 414.97 638.83 362.16 756.09 526.21 731.88
00056610 00000055 179.00 172.81 499.68 732.38 296.72 510.71 517.91 484.32 410.19 642.84 354.54 759.13 521.42 736.12
00056611 00000056 174.40 175.76 501.46 729.31 292.25 513.03 513.91 485.51 405.45 648.11 352.67 761.13 520.81 737.19
00056612 00000057 171.37 177.29 504.21 726.08 289.45 514.43 512.03 485.62 402.53 650.78 351.44 761.48 521.50 736.33
00056613 00000058 175.70 176.86 502.17 724.37 291.39 514.99 512.25 484.60 403.55 649.74 352.98 758.75 523.62 732.17
00056614 00000059 181.14 174.48 502.45 718.15 296.98 512.45 517.95 484.43 408.61 645.44 352.33 748.09 526.18 723.40
00056615 00000060 186.76 165.36 506.46 727.90 305.44 507.05 525.53 479.13 417.08 638.64 361.43 741.32 535.73 716.78
00056616 00000061 197.70 169.49 507.92 721.41 313.03 499.17 533.81 473.47 424.69 632.39 368.59 735.19 545.58 712.94
00056617 00000062 204.28 163.05 515.36 735.97 321.46 492.39 539.67 467.13 433.60 628.28 385.61 739.22 556.99 717.32
00056618 00000063 215.82 161.26 512.79 736.38 328.32 490.61 548.15 464.51 439.91 626.74 394.14 737.66 569.11 715.59
00056619 00000064 223.19 160.04 511.06 734.59 337.80 489.88 559.95 466.20 449.81 626.08 398.98 733.84 578.73 713.60
00056620 00000065 234.25 156.00 506.84 737.79 349.53 489.05 567.15 465.10 455.38 622.48 401.93 731.23 584.34 709.83
00056621 00000066 245.07 155.49 501.81 724.69 358.10 485.11 579.04 463.11 465.68 623.58 407.49 723.45 592.62 704.09
00056622 00000067 254.18 153.38 500.53 720.77 364.91 481.58 588.04 460.19 474.57 619.69 413.16 718.09 599.68 699.39
00056623 00000068 259.79 154.38 502.64 717.42 371.82 479.10 595.12 459.44 481.13 618.16 419.00 716.18 604.65 698.99
00056624 00000069 261.83 153.92 506.33 720.18 375.07 478.77 599.42 460.41 484.78 617.60 421.25 715.75 609.33 699.51
00056625 00000070 265.53 158.49 508.65 720.42 379.00 479.75 602.07 463.04 487.23 619.57 425.50 718.56 611.65 703.78
00056626 00000071 269.36 161.51 510.52 722.54 380.77 481.81 603.49 466.21 487.83 622.23 427.47 720.72 613.85 706.77
00056627 00000072 272.11 163.34 508.64 726.76 382.40 484.63 604.79 469.00 489.31 623.58 429.50 723.17 617.01 709.09
00056628 00000073 274.48 163.48 511.14 725.51 382.47 486.95 605.46 470.59 489.17 624.81 430.86 724.72 618.00 710.01
00056629 00000074 276.95 165.62 511.73 722.82 384.94 484.24 607.85 470.60 490.26 624.76 432.25 723.24 619.64 710.92
00056630 00000075 282.03 165.83 510.34 721.42 386.26 485.00 608.75 471.65 490.04 625.98 433.43 723.36 620.67 711.36
00056631 00000076 288.06 166.99 507.42 723.66 389.30 488.49 611.24 476.18 490.02 629.80 434.81 727.23 620.79 716.20
00056632 00000077 292.15 169.51 509.63 725.95 394.87 493.01 617.43 483.22 491.96 635.00 436.31 730.20 623.24 721.38
00056633 00000078 297.73 168.04 509.79 736.91 406.10 495.91 624.89 491.46 496.16 641.14 442.79 738.82 622.08 734.41
00056634 00000079 308.13 172.43 503.41 732.40 413.54 497.28 632.02 496.86 502.76 644.83 448.71 742.68 623.68 741.89
00056635 00000080 317.07 173.18 499.79 730.55 418.01 497.74 638.32 498.79 507.55 645.25 451.54 744.67 626.41 745.17
00056636 00000081 324.27 171.91 501.45 731.55 423.61 495.90 643.49 499.76 509.64 645.35 453.49 743.71 628.48 746.76
00056637 00000082 329.00 173.51 499.71 729.15 425.02 495.77 647.02 500.41 512.11 645.11 453.07 744.60 629.76 748.64
00056638 00000083 330.78 174.67 499.53 728.75 426.97 494.47 649.60 501.37 513.31 645.07 452.73 745.34 628.55 751.44
00056639 00000084 325.40 182.90 510.02 715.28 429.25 495.33 657.74 505.89 513.96 647.36 453.07 746.61 627.99 755.02
00056640 00000085 328.98 177.98 498.70 718.18 425.10 493.51 649.27 503.57 512.21 645.36 447.10 740.78 625.46 749.31
00056641 00000086 325.53 173.51 500.80 719.07 424.72 494.17 647.23 503.46 510.72 643.71 446.25 734.68 627.70 741.99
00056642 00000087 319.46 167.29 504.88 727.58 424.01 492.79 643.75 500.30 510.11 641.43 449.08 737.14 622.48 743.15
00056643 00000088 313.35 160.54 509.62 736.28 419.50 490.61 639.65 498.26 504.47 642.04 448.19 740.79 616.31 747.12
00056644 00000089 306.67 159.76 510.89 739.14 414.18 489.30 638.18 496.18 502.45 643.09 443.34 740.41 617.27 746.10
00056645 00000090 300.27 159.62 515.00 749.23 409.71 489.18 632.34 495.85 497.20 640.34 438.52 738.51 618.30 743.67
00056646 00000091 296.87 161.49 514.61 749.12 403.18 490.63 629.37 495.70 492.47 641.19 432.81 742.25 614.88 746.36
00056647 00000092 291.92 165.85 516.71 750.13 397.19 493.91 627.38 499.64 487.53 644.31 427.33 750.80 608.16 755.78
00056648 00000093 287.85 170.13 517.77 749.13 392.26 497.74 624.34 504.14 482.71 649.61 423.20 755.89 603.74 761.32
00056649 00000094 286.49 174.94 516.80 742.81 391.80 499.45 619.58 506.74 479.51 651.11 424.37 757.72 597.09 763.87
00056650 00000095 285.47 175.44 517.40 734.82 390.29 499.25 617.90 507.51 476.80 652.13 422.81 753.85 596.21 760.40
00056651 00000096 284.83 178.37 518.73 732.80 388.60 499.39 618.06 507.42 476.19 654.33 420.77 752.23 601.19 758.19
00056652 00000097 286.35 178.75 517.58 729.01 389.38 498.40 619.34 506.10 478.09 653.81 421.55 748.46 605.59 753.89
00056653 00000098 288.64 176.22 514.14 728.40 390.73 498.55 620.03 506.25 479.68 652.79 420.12 742.02 608.40 747.30
00056654 00000099 289.72 176.34 511.36 725.84 391.96 497.91 620.30 507.50 480.33 652.56 418.29 736.08 608.87 742.85
00056655 00000100 291.33 177.66 510.31 723.54 392.47 498.20 620.42 508.38 480.33 652.72 417.89 733.06 611.31 740.07
00056656 00000101 291.21 176.66 511.62 725.49 392.69 498.09 620.46 508.19 479.85 652.45 418.90 734.40 610.41 741.58
00056657 00000102 293.12 173.41 511.28 735.96 394.60 497.80 619.53 505.85 480.31 649.84 423.69 740.61 608.51 746.56
00056658 00000103 293.93 175.44 512.57 730.34 392.90 501.46 620.30 505.91 481.35 654.66 428.26 747.23 611.19 750.21
00056659 00000104 293.92 178.19 513.47 730.19 393.83 503.20 621.59 506.88 483.47 656.71 429.76 748.42 613.54 750.77
00056660 00000105 296.58 177.37 513.52 734.15 396.88 503.83 623.44 507.02 485.96 656.76 432.55 748.45 616.78 750.38
00056661 00000106 297.15 178.56 513.74 731.73 399.90 504.36 623.97 506.67 488.77 655.55 435.90 746.19 618.57 747.22
00056662 00000107 298.46 178.08 513.88 728.02 402.11 505.09 625.58 506.29 490.88 655.52 439.35 746.37 619.05 746.66
00056663 00000108 301.52 177.61 513.31 729.17 404.52 507.99 627.48 505.44 493.84 655.41 447.41 754.28 620.54 751.75
00056664 00000109 301.50 173.88 516.02 738.68 406.34 507.57 630.73 503.72 497.33 654.67 451.34 759.98 621.88 756.58
00056665 00000110 302.32 175.11 515.30 738.56 407.61 509.94 632.31 504.88 499.92 657.64 452.56 762.23 624.10 757.75
00056666 00000111 302.13 176.05 515.74 738.49 407.89 511.81 633.76 505.91 501.76 659.66 453.03 763.71 626.84 758.37
00056667 00000112 301.00 178.92 516.66 736.31 407.87 513.76 635.66 509.27 503.50 664.68 450.79 762.41 629.72 758.08
00056668 00000113 302.29 184.66 514.69 727.03 410.21 514.22 636.48 511.81 504.94 668.72 451.57 759.90 629.46 757.31
00056669 00000114 301.75 183.75 516.26 724.70 410.94 513.27 637.04 513.28 504.08 669.01 449.11 756.18 627.42 755.46
00056670 00000115 302.88 182.03 516.75 733.51 413.46 511.27 638.84 511.82 506.02 668.10 449.86 757.70 627.86 757.51
00056671 00000116 304.17 180.52 520.34 753.31 417.45 512.46 642.78 509.13 512.89 666.84 457.94 769.89 633.53 766.64
00056672 00000117 304.33 181.78 520.23 756.01 418.09 513.01 644.81 510.14 515.49 668.34 457.55 768.55 639.42 765.32
00056673 00000118 304.80 182.18 518.60 750.85 418.18 513.26 644.09 512.37 514.80 668.61 456.61 764.59 638.94 762.83
00056674 00000119 305.14 183.06 516.98 742.07 418.12 514.27 644.73 513.91 514.69 668.82 455.22 761.20 638.76 759.80
00056675 00000120 304.91 182.83 517.21 742.39 417.78 514.95 644.01 514.42 514.02 669.50 454.74 759.56 640.56 757.83
00056676 00000121 304.94 181.27 516.21 741.03 416.84 514.20 643.43 514.22 512.68 669.21 453.38 758.28 638.99 757.10
00056677 00000122 304.03 182.65 516.87 738.14 414.81 513.84 640.61 512.79 510.27 668.87 452.41 756.95 638.21 754.85
00056678 00000123 304.26 180.79 516.43 740.62 414.49 513.30 639.20 512.74 508.71 668.25 452.60 756.58 636.88 754.93
00056679 00000124 304.85 181.83 515.60 741.40 414.46 513.66 638.98 513.27 508.26 668.16 452.51 757.80 636.67 756.35
00056680 00000125 304.22 178.82 515.68 743.24 411.90 514.65 637.86 514.41 505.48 669.52 450.86 758.46 635.28 757.13
00056681 00000126 306.03 180.59 513.60 736.05 411.67 513.96 636.31 514.87 503.24 669.14 448.39 754.56 633.08 754.25
00056682 00000127 306.27 181.58 511.64 724.04 410.31 512.17 636.28 512.54 502.21 667.52 447.49 751.85 630.75 751.28
00056683 00000128 307.66 182.77 510.34 719.64 410.91 513.06 635.65 512.51 502.21 665.98 448.64 751.02 630.82 749.58
00056684 00000129 307.37 180.36 510.44 725.51 412.12 510.55 636.28 511.15 503.01 663.60 448.03 749.60 630.26 749.11
00056685 00000130 307.56 177.38 509.26 733.55 412.40 508.85 634.62 508.21 502.89 658.59 449.93 751.83 627.50 750.60
00056686 00000131 308.03 176.13 510.05 734.72 410.92 509.83 632.65 507.24 501.23 658.78 453.78 758.19 624.51 755.72
00056687 00000132 309.50 175.24 510.59 735.85 410.00 506.88 631.07 504.17 498.27 655.69 454.67 761.97 619.33 759.93
00056688 00000133 312.08 170.66 508.62 740.45 409.52 503.73 630.73 501.18 495.93 651.25 455.22 764.75 615.09 763.11
00056689 00000134 313.22 169.19 510.07 749.00 411.50 503.43 631.42 500.33 496.63 649.25 457.38 768.68 614.66 766.55
00056690 00000135 314.86 171.53 510.44 753.81 411.11 504.15 631.55 500.89 496.23 650.88 457.10 772.61 616.64 770.39
00056691 00000136 316.43 174.08 508.58 752.31 413.58 506.57 634.50 505.44 498.71 651.55 456.66 772.21 616.86 771.88
00056692 00000137 317.62 176.58 507.26 748.18 414.06 510.07 637.01 507.72 500.80 651.84 456.39 772.68 619.66 771.31
00056693 00000138 319.55 174.82 505.91 746.38 414.89 509.40 638.58 508.14 502.55 656.08 456.30 771.99 619.43 771.84
00056694 00000139 321.56 176.73 507.80 740.81 417.93 504.70 640.41 508.88 503.39 657.73 455.20 766.13 618.62 770.50
00056695 00000140 326.50 173.72 504.72 732.89 423.11 501.05 644.80 506.96 507.69 651.48 454.85 758.11 617.58 763.94
00056696 00000141 332.59 172.88 503.06 731.94 428.52 496.57 648.64 505.76 511.85 647.06 455.15 746.02 626.68 753.91
00056697 00000142 329.40 173.66 510.18 727.17 436.99 491.76 662.16 503.21 521.74 651.80 453.62 731.83 640.02 742.42
00056698 00000143 334.53 170.52 511.48 729.01 435.90 486.36 662.98 502.84 522.09 645.38 453.98 728.14 646.48 741.04
00056699 00000144 338.01 166.98 510.31 730.26 441.15 483.51 666.86 501.03 528.01 643.90 458.24 724.32 650.63 738.10
00056700 00000145 341.13 169.27 512.16 725.59 444.41 483.59 670.79 500.89 531.05 644.28 460.64 723.52 653.96 737.26
00056701 00000146 343.32 176.25 509.31 712.86 446.67 483.08 670.62 501.96 532.67 643.05 458.75 713.94 656.65 729.04
00056702 00000147 342.81 177.43 508.39 709.04 447.70 480.27 670.60 502.50 533.32 640.44 454.92 704.04 658.38 722.01
00056703 00000148 343.14 175.72 508.32 711.02 448.35 475.76 673.09 501.92 534.98 639.34 451.17 695.87 662.96 717.15
00056704 00000149 343.77 173.57 508.29 710.53 456.92 473.48 681.85 504.03 539.18 632.01 458.08 690.13 670.99 713.99
00056705 00000150 345.41 173.30 507.59 709.67 452.02 471.21 677.58 498.44 539.51 634.43 451.67 686.57 671.22 708.86
00056706 00000151 347.02 174.45 505.91 708.93 452.51 469.72 678.16 496.41 539.87 633.69 452.47 688.55 670.83 710.49
00056707 00000152 346.27 175.95 507.57 708.19 452.29 469.38 677.79 495.82 539.42 633.24 452.59 690.60 668.88 712.38
00056708 00000153 344.54 176.04 508.21 711.43 451.18 471.87 675.28 497.45 537.98 635.08 453.08 695.36 665.78 716.24
00056709 00000154 343.14 183.39 508.41 703.71 448.07 480.09 672.72 502.60 534.94 642.68 455.09 701.83 665.24 719.95
00056710 00000155 343.55 188.39 509.63 703.84 448.77 489.48 673.90 510.81 534.67 650.93 457.72 708.84 668.28 725.89
00056711 00000156 339.59 185.46 513.89 711.05 454.92 496.27 686.27 517.70 543.25 659.61 460.60 718.45 667.66 736.02
00056712 00000157 342.24 186.54 514.33 718.62 457.89 499.49 689.58 522.57 544.37 661.87 461.20 721.72 669.12 740.65
00056713 00000158 340.78 186.23 514.66 723.09 456.59 500.03 689.17 522.95 543.63 661.90 460.20 723.53 670.95 741.97
00056714 00000159 336.67 184.23 515.88 731.33 452.23 498.55 684.15 518.51 539.27 660.23 458.32 727.45 667.69 743.69
00056715 00000160 334.36 182.55 517.35 740.01 450.12 504.33 681.49 522.53 536.68 662.98 457.68 735.36 667.84 749.73
00056716 00000161 334.65 186.97 518.62 750.35 449.72 511.51 679.60 530.79 533.31 672.14 457.81 745.04 668.12 760.26
00056717 00000162 330.15 198.91 520.51 742.74 449.95 524.83 678.73 543.31 535.42 685.07 458.68 753.13 666.26 767.88
00056718 00000163 329.75 212.64 516.80 721.37 448.35 534.10 674.82 555.57 532.39 695.38 457.60 760.87 656.06 778.67
00056719 00000164 329.30 216.12 512.91 721.49 438.00 541.09 663.70 559.37 519.14 702.39 454.81 773.68 647.93 788.28
00056720 00000165 326.77 209.14 510.02 736.91 434.33 540.34 659.25 563.25 513.70 699.83 453.82 777.27 635.97 796.21
00056721 00000166 323.69 213.04 512.49 741.28 432.54 545.11 658.52 566.35 512.86 709.59 453.82 789.21 632.96 806.81
00056722 00000167 324.40 216.98 510.85 740.55 431.87 547.21 657.32 567.60 512.18 711.10 452.97 793.57 630.97 810.38
00056723 00000168 321.88 213.48 511.59 747.18 429.90 547.40 654.64 565.88 510.34 709.90 451.01 795.12 628.69 810.44
00056724 00000169 321.86 215.02 510.89 744.40 429.91 547.31 654.57 565.81 510.29 710.78 451.77 794.50 629.38 809.85
00056725 00000170 318.77 219.24 511.92 723.92 429.25 549.11 658.72 568.58 515.07 716.22 451.20 787.91 635.52 803.73
