Video ID: 	oL0ZTm31IIc
H: 	1080
W: 	1920
FPS: 	25.0

FRAME INDEX X0 Y0 W H [Landmarks (5 Points)]

00001597 00000000 847.43 296.78 409.34 581.14 1016.10 526.35 1195.36 504.02 1155.24 650.03 1048.57 741.94 1191.01 722.48
00001598 00000001 836.10 297.32 411.83 586.76 1006.59 526.04 1185.83 508.36 1141.21 654.23 1040.34 746.86 1177.16 730.98
00001599 00000002 830.56 298.78 411.86 585.64 1000.50 527.73 1180.59 508.66 1136.40 656.66 1036.04 747.43 1172.19 731.08
00001600 DELETE   825.94 298.67 410.81 588.59 994.70 529.79 1173.39 508.15 1131.22 659.22 1028.74 747.78 1166.04 730.15
00001601 00000004 820.66 302.76 411.47 583.98 987.88 536.28 1163.89 513.22 1122.27 666.98 1019.04 745.76 1163.71 727.17
00001602 00000005 815.59 302.07 412.05 582.87 976.19 540.42 1156.58 518.29 1110.34 669.20 1007.30 742.26 1161.92 724.83
00001603 00000006 808.79 308.40 413.35 571.56 970.07 539.85 1151.59 517.90 1103.82 669.81 1001.34 738.79 1157.00 721.86
00001604 00000007 806.88 306.02 411.27 568.17 967.21 537.84 1148.41 516.42 1099.24 665.78 997.68 734.79 1151.62 718.30
00001605 00000008 805.12 302.16 409.86 571.27 965.67 533.84 1144.12 513.38 1097.85 658.77 996.02 732.32 1147.40 716.36
00001606 00000009 803.73 301.77 411.28 569.22 963.95 525.40 1142.93 507.46 1097.35 648.44 995.51 728.97 1144.27 714.81
00001607 00000010 806.59 296.36 411.92 572.21 966.94 515.78 1149.53 500.59 1100.61 643.95 997.81 723.68 1146.11 711.53
00001608 00000011 811.80 293.15 411.77 576.32 970.68 508.38 1152.37 493.77 1102.23 637.45 1000.60 717.31 1148.25 705.27
00001609 00000012 816.13 290.29 411.57 576.96 978.33 501.42 1158.55 488.38 1107.32 632.55 1006.18 714.43 1149.66 703.29
00001610 00000013 821.29 286.67 415.94 579.45 985.51 496.57 1167.97 483.01 1113.09 633.20 1011.59 714.18 1154.54 702.28
00001611 00000014 824.65 283.56 421.10 581.17 991.60 492.87 1173.80 477.87 1119.82 628.89 1017.75 712.60 1160.06 699.29
00001612 00000015 828.51 279.18 424.37 583.84 997.63 487.79 1181.70 474.00 1128.09 624.36 1024.57 708.46 1167.37 695.61
00001613 00000016 836.53 275.17 418.79 584.42 1003.93 484.79 1184.50 472.13 1133.23 618.35 1029.42 703.93 1171.57 692.05
00001614 00000017 840.61 273.04 415.19 579.46 1007.03 481.16 1186.41 471.02 1136.50 610.49 1032.93 698.04 1174.92 688.20
00001615 00000018 845.41 261.41 411.79 579.97 1007.23 476.87 1188.54 466.33 1137.59 606.52 1031.08 691.10 1178.15 681.26
00001616 00000019 844.31 246.37 410.25 588.09 1004.97 478.71 1184.21 465.03 1130.92 600.50 1029.98 689.72 1177.55 678.12
00001617 00000020 840.14 240.55 414.78 589.68 1001.63 472.34 1181.27 460.63 1127.17 596.47 1025.94 683.40 1174.97 673.34
00001618 00000021 837.74 235.37 418.20 590.64 997.96 469.46 1179.75 458.07 1123.81 595.41 1020.69 678.10 1173.85 668.51
00001619 00000022 840.80 235.61 415.03 587.27 998.03 467.00 1178.97 455.08 1124.33 589.97 1021.00 672.17 1176.21 662.25
00001620 00000023 842.78 230.38 413.17 588.58 997.73 461.32 1179.76 449.06 1126.85 579.71 1024.89 668.11 1178.92 657.38
00001621 00000024 847.68 229.33 409.61 583.68 1001.88 455.43 1182.75 443.17 1132.40 570.82 1030.64 664.50 1181.62 653.48
00001622 00000025 850.07 229.27 409.50 581.80 1005.12 451.03 1185.78 440.44 1135.45 565.36 1033.23 662.21 1182.74 652.46
00001623 00000026 852.89 229.24 406.79 585.46 1008.47 455.39 1186.87 445.26 1138.46 570.19 1035.01 664.57 1184.64 655.37
00001624 00000027 854.56 233.38 408.80 591.17 1012.81 464.80 1189.58 453.71 1140.58 583.48 1038.67 674.52 1187.80 664.65
00001625 00000028 856.95 245.01 408.44 589.35 1014.41 478.43 1194.23 462.39 1143.92 595.82 1047.43 693.54 1194.01 679.47
00001626 DELETE   860.16 265.96 408.70 573.69 1020.22 489.84 1203.30 468.51 1159.56 610.36 1053.66 703.76 1201.94 685.35
00001627 00000030 863.76 273.32 409.94 573.20 1029.86 500.09 1207.84 475.21 1170.28 617.95 1064.58 711.40 1210.07 689.89
00001628 00000031 869.38 277.79 411.51 568.90 1037.14 503.09 1215.80 477.12 1178.51 622.75 1070.76 714.92 1217.37 692.71
00001629 00000032 869.29 270.12 416.16 573.76 1047.46 499.34 1226.70 475.84 1185.72 625.44 1082.32 708.23 1226.42 690.45
00001630 00000033 870.64 260.71 415.11 571.69 1051.63 491.06 1228.95 463.31 1195.10 611.79 1091.00 702.40 1231.86 680.69
00001631 00000034 877.47 247.27 410.34 577.59 1057.95 477.37 1231.38 453.35 1201.33 594.21 1101.44 693.08 1239.21 673.56
00001632 00000035 880.58 234.94 404.89 586.39 1058.80 467.84 1227.89 446.02 1202.12 581.46 1103.85 684.42 1236.33 666.27
00001633 00000036 881.62 228.56 403.80 588.35 1057.03 462.02 1227.84 440.02 1201.84 571.15 1103.89 679.67 1235.09 661.46
00001634 00000037 879.76 229.66 406.53 584.70 1054.00 460.25 1226.78 435.90 1199.18 567.86 1102.45 676.32 1237.81 655.98
00001635 00000038 879.00 230.94 407.36 576.64 1051.64 460.17 1226.51 435.27 1196.25 564.58 1101.42 672.50 1238.23 651.85
00001636 00000039 880.50 227.92 407.04 574.63 1051.04 457.01 1226.79 431.20 1195.79 558.01 1100.13 666.29 1239.62 644.70
00001637 00000040 883.57 226.53 405.76 571.56 1055.83 448.80 1229.24 423.22 1200.31 551.54 1105.13 662.26 1239.26 640.72
00001638 00000041 888.55 220.12 406.84 578.70 1060.82 442.33 1233.85 416.03 1205.70 544.58 1111.09 661.10 1243.74 638.46
00001639 00000042 894.58 220.32 403.81 574.70 1066.38 438.51 1238.46 413.68 1209.77 540.57 1116.23 657.27 1247.15 635.38
00001640 00000043 895.23 220.62 405.73 570.48 1069.44 438.20 1240.11 411.96 1213.61 539.14 1118.99 653.88 1250.70 630.77
00001641 00000044 897.84 218.65 403.42 567.57 1072.51 438.86 1243.37 412.19 1217.96 539.11 1124.00 653.80 1253.92 630.33
00001642 00000045 899.62 218.19 402.75 568.94 1074.10 437.20 1245.54 412.00 1220.18 537.71 1125.80 654.29 1255.38 631.82
00001643 00000046 901.58 216.47 403.93 573.29 1074.44 433.48 1245.79 410.73 1219.81 533.71 1127.93 654.07 1255.25 633.27
00001644 00000047 902.08 215.65 405.45 574.35 1075.27 430.40 1246.86 407.80 1221.95 529.42 1129.93 653.15 1256.64 632.41
00001645 00000048 902.96 214.07 404.49 571.60 1077.74 428.89 1247.77 406.28 1223.04 527.19 1132.09 650.90 1255.74 630.21
00001646 00000049 903.66 213.49 405.32 567.84 1077.40 429.48 1249.29 404.28 1224.61 526.57 1131.73 649.66 1258.80 626.96
00001647 00000050 903.59 211.62 407.93 565.74 1079.00 429.36 1250.34 401.47 1226.78 524.53 1133.32 647.11 1261.10 622.34
00001648 00000051 904.03 209.75 407.03 562.02 1079.33 428.77 1250.10 399.39 1226.63 522.23 1135.13 645.00 1261.47 619.19
00001649 00000052 903.68 206.45 404.69 563.82 1079.27 427.45 1247.38 397.58 1226.73 518.78 1136.67 644.36 1260.10 618.18
00001650 00000053 905.25 204.18 399.51 567.54 1077.54 424.31 1245.77 394.94 1225.67 517.14 1138.03 645.05 1258.64 619.25
00001651 00000054 905.92 199.83 396.47 574.65 1077.47 422.57 1244.24 393.81 1225.80 515.94 1141.44 646.40 1258.98 620.92
00001652 00000055 903.02 201.70 400.71 581.43 1076.91 424.57 1242.94 394.99 1225.03 516.69 1140.97 648.17 1260.71 621.24
00001653 00000056 901.93 200.78 398.32 584.35 1082.08 434.04 1240.56 406.93 1225.03 519.03 1142.12 649.10 1257.92 624.40
00001654 00000057 902.64 199.39 397.07 584.32 1081.91 434.57 1240.19 407.91 1223.53 518.64 1141.72 648.53 1256.86 624.24
00001655 00000058 901.99 199.49 396.26 581.21 1078.18 431.11 1238.69 403.24 1221.57 516.28 1140.42 647.23 1255.73 621.94
00001656 00000059 901.12 199.08 397.77 578.33 1074.62 429.71 1236.92 401.16 1219.07 512.96 1138.63 644.63 1255.89 618.89
00001657 00000060 899.55 201.21 401.21 577.93 1071.67 425.42 1237.01 396.80 1217.31 511.56 1134.78 643.52 1255.01 617.60
00001658 00000061 898.07 199.67 401.37 579.63 1070.74 423.88 1236.16 394.48 1217.76 510.68 1133.15 643.23 1253.97 616.93
00001659 00000062 897.07 200.96 401.90 571.24 1070.22 425.15 1236.27 394.53 1218.75 510.41 1131.00 639.78 1254.05 612.74
00001660 00000063 893.40 199.21 403.92 566.43 1069.34 423.75 1236.81 391.36 1218.74 511.81 1126.31 634.48 1252.73 606.38
00001661 00000064 891.44 200.17 402.94 560.02 1069.11 422.94 1234.02 392.39 1217.92 510.38 1126.50 631.60 1249.60 605.14
00001662 00000065 891.53 199.26 393.40 548.15 1060.61 423.28 1229.79 391.59 1210.87 513.32 1122.77 624.26 1251.57 598.69
00001663 00000066 891.54 194.79 393.75 548.99 1060.95 420.84 1227.81 389.29 1209.67 508.85 1123.01 619.11 1251.36 593.48
00001664 00000067 888.88 193.58 396.64 546.25 1059.04 418.47 1226.25 388.69 1208.48 504.15 1121.89 615.18 1251.27 591.01
00001665 00000068 886.43 194.09 398.82 545.28 1056.56 416.98 1222.72 386.65 1207.85 499.98 1120.77 611.74 1252.25 587.08
00001666 00000069 884.93 192.26 400.04 545.34 1054.61 415.39 1221.58 385.44 1207.93 496.47 1119.80 608.53 1253.15 584.16
00001667 00000070 883.86 191.52 400.92 543.16 1053.26 414.43 1221.77 385.58 1205.72 494.81 1119.61 607.46 1252.95 583.98
00001668 00000071 880.75 190.08 403.43 544.38 1050.78 413.61 1220.88 384.74 1205.62 492.64 1117.89 606.70 1253.91 583.11
00001669 00000072 881.14 187.61 401.92 543.03 1050.25 412.52 1220.22 382.56 1204.66 489.78 1118.50 604.27 1254.56 579.73
00001670 00000073 879.76 181.96 402.54 545.41 1048.48 409.00 1219.28 377.23 1202.81 486.18 1117.74 602.42 1253.62 576.23
00001671 00000074 877.80 177.45 404.06 550.29 1046.45 405.52 1218.08 373.42 1202.56 482.10 1117.27 601.00 1254.75 574.27
00001672 00000075 877.27 173.77 403.57 550.36 1045.81 403.08 1215.36 370.92 1199.52 478.64 1116.79 597.02 1252.72 570.18
00001673 00000076 874.53 169.75 403.22 553.87 1043.95 398.25 1210.76 366.39 1196.35 475.56 1115.14 594.68 1248.44 568.33
00001674 00000077 872.35 166.82 403.07 553.69 1042.07 397.05 1209.39 364.86 1195.05 472.49 1112.07 591.96 1246.67 565.39
00001675 00000078 870.60 167.16 399.79 553.24 1046.58 397.57 1212.57 360.45 1200.76 469.64 1105.46 598.62 1240.46 567.26
00001676 00000079 869.98 165.78 396.40 550.53 1044.87 395.92 1210.21 358.94 1197.69 469.88 1100.87 596.37 1235.08 565.48
00001677 00000080 867.90 165.44 397.34 550.04 1043.39 394.36 1207.91 355.69 1196.93 469.25 1099.50 596.48 1232.90 564.36
00001678 00000081 868.11 164.14 396.43 551.35 1043.53 393.98 1207.61 355.06 1197.83 468.79 1098.97 596.29 1232.64 564.08
00001679 00000082 867.40 163.93 397.08 551.57 1044.48 393.23 1208.12 353.82 1199.69 468.63 1099.41 595.89 1233.41 563.24
00001680 00000083 869.28 162.33 395.44 552.91 1046.87 393.31 1209.21 355.85 1200.10 467.91 1101.16 594.84 1234.07 563.76
00001681 00000084 871.08 162.48 394.35 552.52 1048.50 394.36 1210.99 357.71 1200.85 468.01 1103.16 595.15 1235.25 564.61
00001682 00000085 872.19 166.14 396.55 551.37 1048.32 395.29 1212.70 358.70 1200.86 468.93 1103.44 596.12 1237.53 565.36
00001683 00000086 874.65 168.78 396.99 550.80 1049.81 396.29 1214.50 360.94 1201.60 469.27 1104.92 596.53 1239.35 566.59
00001684 00000087 877.05 167.69 400.73 551.53 1047.76 395.68 1215.27 365.85 1198.90 473.26 1114.40 589.90 1247.48 565.06
00001685 00000088 880.03 169.02 399.80 551.39 1052.26 397.65 1218.60 367.34 1203.07 476.42 1119.50 592.18 1249.76 567.04
00001686 00000089 882.99 169.64 400.98 554.07 1054.35 401.92 1221.84 371.38 1206.30 479.02 1121.61 595.28 1253.17 569.70
00001687 00000090 887.34 171.33 397.88 555.17 1057.49 403.75 1225.41 373.40 1209.58 482.49 1123.61 597.46 1254.88 572.05
00001688 00000091 891.35 176.00 396.43 551.14 1063.13 405.58 1227.38 375.74 1213.17 485.66 1128.81 599.72 1254.96 574.89
00001689 00000092 895.20 179.96 393.59 550.76 1066.37 408.82 1229.15 378.81 1216.31 490.28 1131.41 605.07 1255.29 580.18
00001690 00000093 897.91 181.84 393.69 554.21 1069.64 411.59 1233.50 381.45 1222.59 493.34 1133.56 608.83 1261.52 583.49
00001691 00000094 900.71 182.22 392.10 555.44 1071.89 412.27 1235.83 383.00 1224.57 494.68 1136.78 611.59 1263.44 586.66
00001692 00000095 902.10 184.78 396.32 555.21 1074.59 414.93 1240.16 384.82 1227.48 498.26 1139.01 615.97 1267.48 590.19
00001693 00000096 903.96 187.30 397.28 555.67 1077.15 416.61 1243.41 385.36 1232.17 499.51 1140.11 617.66 1271.00 590.89
00001694 00000097 907.46 188.70 396.23 551.28 1080.74 418.66 1249.66 388.87 1234.87 502.88 1141.90 619.80 1272.32 594.18
00001695 00000098 907.40 189.80 400.74 553.64 1081.04 420.12 1254.19 388.60 1237.11 506.66 1141.35 622.99 1276.27 595.96
00001696 00000099 908.65 190.53 399.49 553.40 1081.93 421.47 1255.71 390.49 1236.86 510.55 1142.72 625.66 1275.97 598.97
00001697 00000100 909.49 191.54 401.15 558.47 1090.37 419.02 1256.97 385.46 1243.67 510.39 1144.08 631.70 1270.18 603.39
00001698 00000101 909.22 193.53 401.16 557.01 1089.25 419.21 1256.67 386.06 1242.80 510.76 1142.94 631.75 1269.90 603.64
00001699 00000102 907.51 193.90 402.52 558.87 1088.31 418.90 1255.57 386.01 1241.53 511.13 1141.07 631.73 1268.82 603.85
00001700 00000103 906.21 193.46 403.47 559.17 1087.29 418.33 1254.97 386.66 1240.29 511.39 1140.22 631.69 1268.19 604.63
00001701 00000104 905.72 192.33 403.96 562.22 1085.45 419.03 1252.89 386.55 1237.79 511.69 1139.40 632.82 1268.03 604.89
00001702 00000105 903.42 192.70 403.54 561.95 1084.00 420.06 1250.56 387.66 1235.87 512.17 1138.15 632.53 1265.99 604.62
00001703 00000106 901.41 193.79 403.27 560.72 1081.54 420.74 1247.80 388.85 1233.11 512.26 1136.23 633.08 1262.49 605.65
00001704 00000107 899.91 193.26 395.82 557.03 1067.97 423.60 1240.73 391.23 1221.01 515.94 1131.53 629.54 1263.40 602.11
00001705 00000108 898.73 192.64 393.38 558.68 1066.70 422.41 1237.99 389.75 1219.02 516.11 1130.88 630.03 1260.38 602.43
00001706 00000109 896.96 194.63 392.63 555.30 1064.03 422.54 1235.97 390.58 1216.10 516.08 1128.81 628.46 1259.37 601.55
00001707 00000110 894.28 194.02 393.01 555.30 1061.14 423.62 1233.39 391.44 1213.74 516.26 1127.05 628.28 1257.73 601.25
00001708 00000111 892.21 195.79 393.37 552.52 1059.60 424.53 1232.48 391.83 1212.95 516.98 1125.58 628.52 1256.33 601.19
00001709 00000112 889.97 196.98 394.68 550.37 1058.20 424.81 1230.61 392.15 1211.17 517.84 1124.15 627.60 1254.93 600.40
00001710 00000113 886.65 200.54 395.54 548.61 1055.33 425.42 1227.39 393.72 1207.81 518.35 1120.74 627.47 1252.11 601.32
00001711 00000114 883.50 201.18 395.74 549.94 1052.56 424.84 1224.31 392.14 1205.93 518.90 1117.48 627.28 1250.52 600.49
00001712 00000115 880.84 202.64 398.20 551.08 1049.73 426.17 1222.79 393.20 1204.71 520.33 1115.24 628.46 1250.54 601.57
00001713 00000116 878.08 203.88 399.26 552.02 1046.63 426.92 1220.06 393.99 1201.97 520.59 1112.50 628.69 1249.54 601.92
00001714 00000117 877.45 205.66 399.58 550.91 1044.73 427.59 1218.15 394.33 1199.87 521.37 1110.84 629.09 1248.43 602.07
00001715 00000118 875.97 206.56 401.29 552.11 1042.25 428.61 1216.85 394.30 1199.39 522.33 1110.01 630.26 1249.94 602.28
00001716 00000119 873.11 209.53 403.33 549.60 1040.79 429.59 1216.13 396.64 1198.06 522.21 1108.63 630.31 1248.98 603.54
00001717 00000120 871.86 208.95 403.13 550.53 1039.54 428.41 1215.30 397.14 1195.99 520.82 1107.88 630.30 1247.71 604.91
00001718 00000121 871.24 209.59 402.71 549.66 1039.37 428.02 1214.39 397.55 1194.53 520.22 1107.21 630.16 1245.11 605.54
00001719 00000122 874.05 209.60 400.35 545.43 1045.63 431.16 1217.07 393.20 1198.83 516.21 1100.08 638.71 1234.26 607.26
00001720 00000123 873.00 208.64 399.23 545.37 1044.32 431.12 1214.65 393.24 1196.80 516.03 1098.57 638.21 1231.19 606.83
00001721 00000124 871.53 207.08 399.46 546.41 1042.77 430.50 1213.62 392.19 1195.69 516.01 1096.16 637.92 1230.01 606.29
00001722 00000125 870.59 207.37 397.39 544.57 1040.65 430.27 1211.57 391.59 1192.90 516.79 1093.46 637.74 1227.53 606.01
00001723 00000126 870.93 208.51 395.91 544.53 1040.44 429.91 1211.61 391.73 1192.25 517.54 1092.69 638.53 1226.91 607.28
00001724 00000127 871.34 209.58 396.46 543.84 1040.98 429.94 1212.70 391.61 1192.84 518.08 1093.44 638.80 1228.10 607.37
00001725 00000128 872.22 209.14 397.28 545.63 1041.70 430.88 1214.03 392.14 1194.61 520.07 1093.59 640.04 1229.11 608.41
00001726 00000129 872.93 209.67 397.50 547.42 1041.88 432.11 1214.29 394.10 1195.31 521.07 1093.71 641.37 1229.73 610.43
00001727 00000130 874.10 210.47 399.45 548.63 1042.17 434.26 1215.30 395.15 1195.76 522.34 1095.35 642.94 1232.24 610.94
00001728 00000131 875.97 211.80 399.58 548.41 1044.70 436.31 1218.75 396.18 1198.99 525.22 1097.76 644.32 1235.70 611.59
00001729 00000132 876.42 214.73 400.01 546.26 1045.40 438.01 1219.02 396.94 1198.48 527.71 1098.43 645.99 1235.73 612.65
00001730 00000133 875.64 211.29 402.12 552.86 1049.23 434.35 1218.99 404.98 1192.88 529.25 1105.90 642.12 1237.71 616.71
00001731 00000134 875.14 211.69 402.51 553.36 1048.86 436.26 1218.81 407.09 1193.51 530.76 1104.57 643.54 1237.52 618.45
00001732 00000135 873.80 213.43 403.52 552.32 1047.13 437.29 1217.72 407.86 1192.30 531.59 1102.35 644.64 1236.63 619.30
00001733 00000136 873.75 216.79 401.13 546.28 1043.60 443.95 1217.00 401.38 1197.95 531.95 1092.85 648.97 1233.11 614.92
00001734 00000137 871.78 215.91 402.63 548.41 1042.59 444.07 1216.70 401.52 1197.54 533.80 1091.24 650.33 1231.71 616.26
00001735 00000138 871.84 215.74 402.72 548.79 1042.61 444.40 1217.06 401.80 1197.66 533.95 1090.90 650.43 1232.02 616.31
00001736 00000139 870.79 216.83 403.68 548.35 1042.33 443.83 1216.86 401.57 1197.47 534.44 1090.35 650.99 1231.19 617.11
00001737 00000140 868.54 216.10 405.27 550.48 1041.01 444.08 1215.43 400.42 1196.54 534.46 1089.53 651.70 1230.71 616.63
00001738 00000141 867.58 211.97 403.71 553.79 1039.10 444.64 1213.52 398.85 1194.02 534.56 1086.91 651.67 1228.70 615.04
00001739 00000142 864.29 208.76 404.19 557.91 1035.94 441.59 1211.28 396.74 1190.46 533.33 1082.97 651.30 1225.77 615.26
00001740 00000143 862.20 208.81 403.76 554.79 1030.87 439.06 1209.05 396.43 1184.40 533.63 1079.38 649.22 1223.57 614.61
00001741 00000144 860.29 209.68 402.38 552.16 1026.77 436.74 1206.66 395.38 1178.85 533.81 1077.20 647.47 1221.91 613.39
00001742 00000145 854.49 207.59 405.34 553.24 1020.97 436.17 1204.63 397.19 1174.05 533.62 1073.22 647.63 1217.89 614.86
CROP_BBOX: 575 0 1603 1042
