Video ID: 	KGBapUfmV6Q
H: 	1080
W: 	1920
FPS: 	29.97002997002997

FRAME INDEX X0 Y0 W H [Landmarks (5 Points)]

00002848 00000000 564.73 206.84 359.80 510.56 724.23 401.15 872.00 406.07 823.62 519.03 728.59 588.71 838.03 593.74
00002849 00000001 566.03 209.13 358.74 505.97 724.20 402.71 872.78 407.05 823.38 520.33 728.11 586.80 839.65 591.45
00002850 00000002 566.64 209.93 357.93 503.27 724.15 404.83 872.88 408.27 822.38 522.86 728.65 587.34 840.10 591.07
00002851 00000003 566.82 212.42 357.29 499.50 724.00 407.47 873.36 409.67 822.01 525.51 729.64 588.76 840.33 591.19
00002852 00000004 565.84 214.01 358.64 498.90 723.89 409.63 874.00 410.63 822.50 528.36 730.68 591.43 841.08 592.75
00002853 00000005 566.57 216.66 359.11 498.33 723.68 412.01 875.62 411.74 823.90 530.79 732.16 594.90 842.29 595.21
00002854 00000006 566.23 220.07 360.04 495.78 723.10 415.13 876.81 413.95 823.69 533.93 731.81 597.02 842.60 596.46
00002855 00000007 566.77 222.23 359.92 495.44 724.88 416.86 879.04 415.70 825.64 538.39 732.94 600.11 842.36 599.36
00002856 00000008 568.99 224.37 357.95 496.18 725.83 420.52 878.77 419.73 825.87 542.52 735.40 604.39 842.99 603.78
00002857 00000009 573.53 237.78 356.66 489.47 726.96 422.27 877.09 421.46 829.16 543.61 731.81 610.57 846.91 610.47
00002858 00000010 575.48 239.57 359.20 493.44 731.08 427.09 882.15 427.55 833.11 549.28 736.05 614.86 851.54 615.68
00002859 00000011 579.90 243.13 361.54 494.40 736.49 434.61 888.48 434.23 839.02 555.16 744.25 621.41 857.01 621.56
00002860 DELETE   585.73 244.37 360.53 491.58 746.30 440.47 899.63 440.09 853.33 554.92 751.41 622.79 866.22 623.77
00002861 00000013 592.78 240.48 357.36 496.45 757.36 442.76 910.49 441.02 866.78 557.47 759.23 626.22 874.52 626.97
00002862 00000014 599.76 243.59 355.33 503.77 773.80 445.86 914.92 438.50 884.60 556.24 775.69 632.73 879.22 627.71
00002863 DELETE   609.80 246.32 348.61 499.46 783.04 440.95 923.69 451.77 889.19 553.82 782.24 628.55 884.07 640.19
00002864 DELETE   604.63 238.94 355.37 501.22 793.69 440.08 926.67 440.29 896.86 553.64 795.82 629.25 884.82 634.63
00002865 00000017 610.26 239.83 351.73 497.69 802.10 437.31 931.55 435.82 903.42 551.93 805.31 630.48 888.47 634.36
00002866 00000018 612.49 234.70 351.99 499.87 809.82 436.88 935.85 433.98 910.47 551.08 810.12 629.70 890.73 632.56
00002867 00000019 615.36 238.48 351.91 492.15 814.49 436.91 939.48 431.79 915.90 551.60 813.40 628.47 894.42 629.68
00002868 00000020 615.94 234.33 352.48 494.88 815.83 437.74 941.63 431.52 918.13 551.37 813.97 628.13 896.04 628.58
00002869 00000021 615.66 236.06 351.70 493.81 814.49 437.93 940.82 432.08 916.68 551.70 812.45 628.77 895.69 629.45
00002870 00000022 614.44 236.00 351.21 494.47 813.19 439.67 938.98 434.37 913.53 554.12 811.99 630.38 892.26 631.73
00002871 00000023 611.20 242.21 353.68 489.09 805.68 441.19 934.87 438.45 905.59 555.57 803.22 629.60 888.37 632.78
00002872 00000024 607.00 237.74 356.83 493.55 796.67 444.54 930.59 442.84 898.98 551.53 797.02 627.09 886.94 630.65
00002873 DELETE   604.19 233.33 358.86 496.51 791.18 438.87 928.37 441.01 893.58 550.04 792.33 621.65 886.90 627.69
00002874 00000026 610.56 236.12 356.68 497.10 781.68 428.36 930.26 436.79 889.42 545.10 778.40 620.07 887.87 629.22
00002875 00000027 601.45 230.29 361.30 504.24 783.26 420.21 925.87 427.31 892.15 541.21 779.16 617.83 875.37 624.74
00002876 00000028 597.98 229.91 363.07 496.32 768.84 416.93 919.53 422.77 877.85 538.07 769.29 615.80 875.45 621.53
00002877 00000029 591.43 224.58 361.45 498.74 764.76 408.98 918.59 414.45 878.29 528.46 772.79 609.61 871.97 614.20
00002878 00000030 588.27 218.43 362.26 500.80 757.30 405.87 915.02 411.89 868.94 521.04 767.57 604.73 870.68 609.63
00002879 00000031 585.44 215.52 361.38 497.88 751.13 403.60 908.32 409.41 860.70 516.12 762.28 598.48 866.33 603.19
00002880 00000032 583.03 214.10 359.72 497.69 745.53 403.07 901.92 407.61 853.71 517.53 757.21 595.90 861.01 599.66
00002881 00000033 578.85 213.96 357.33 496.87 742.21 405.75 894.82 407.07 846.93 521.71 752.84 595.55 853.33 596.56
00002882 00000034 575.01 212.16 357.44 497.33 736.95 406.69 889.27 406.13 840.56 523.84 747.12 594.72 850.07 594.52
00002883 00000035 572.09 210.74 358.16 497.86 733.20 406.69 884.71 405.49 835.54 523.46 744.42 593.78 847.44 592.98
00002884 00000036 569.60 208.72 357.38 498.51 731.38 403.99 880.95 404.82 833.27 517.32 740.00 589.28 844.94 590.54
00002885 00000037 568.95 205.97 357.51 500.10 731.78 398.45 880.32 401.07 834.08 511.74 739.18 585.98 843.73 588.79
00002886 00000038 569.30 202.98 357.70 502.36 732.97 395.34 881.24 398.49 835.77 508.03 739.66 583.95 844.12 587.25
00002887 00000039 569.98 204.15 358.42 502.11 732.94 396.95 882.11 399.61 834.78 511.54 741.36 585.53 845.79 588.20
00002888 00000040 571.00 207.16 358.16 501.91 732.82 404.83 882.90 404.15 834.88 521.91 744.19 593.24 846.45 593.08
00002889 00000041 569.71 213.72 359.67 502.09 731.01 411.04 884.72 408.88 836.59 530.93 745.64 601.60 849.53 599.90
00002890 00000042 575.51 229.07 358.11 494.16 729.27 413.36 882.74 413.76 836.49 534.41 740.09 609.93 850.35 610.11
00002891 00000043 576.45 235.30 358.77 494.24 730.37 419.05 882.10 419.40 835.69 538.59 739.20 613.08 851.97 613.52
00002892 00000044 576.49 237.51 358.84 495.73 730.67 422.55 880.55 422.25 835.30 540.85 740.05 614.82 852.12 614.94
00002893 00000045 577.08 238.32 357.99 494.76 729.73 422.85 880.55 422.69 834.76 541.69 739.65 614.82 852.88 615.12
00002894 00000046 576.67 238.29 358.65 495.61 729.97 422.69 880.15 422.70 834.57 540.45 738.05 614.04 852.29 614.66
00002895 00000047 576.19 237.73 359.23 496.69 729.66 421.77 880.79 421.96 834.92 539.68 736.71 613.71 851.96 614.55
00002896 00000048 577.14 235.20 358.52 498.60 728.98 419.63 880.86 420.23 834.06 539.49 735.79 613.84 850.31 615.04
00002897 00000049 576.91 234.76 358.02 496.65 728.18 418.70 879.66 419.57 832.63 537.99 734.54 611.14 850.36 612.64
00002898 00000050 576.02 231.67 359.21 497.26 727.14 416.08 880.81 417.46 833.11 536.91 732.94 608.92 850.66 610.81
00002899 00000051 575.09 229.56 360.02 498.65 725.81 411.19 881.31 413.18 833.77 532.30 733.87 605.87 852.78 608.13
00002900 00000052 576.51 224.55 357.85 500.62 725.39 408.77 880.15 408.68 834.12 528.94 736.24 604.44 853.49 605.06
00002901 00000053 572.26 211.16 357.64 506.37 727.96 410.95 878.52 407.26 834.83 524.34 744.99 598.14 853.81 596.04
00002902 00000054 571.60 208.56 355.29 503.44 729.34 409.00 876.63 403.66 834.31 519.24 746.49 592.16 853.50 588.56
00002903 00000055 570.49 205.24 353.87 500.01 727.82 407.12 875.73 401.12 834.16 515.12 747.71 588.84 854.37 584.32
00002904 00000056 566.83 202.16 352.42 497.83 723.97 403.34 870.71 397.88 829.88 508.24 744.69 584.35 851.53 580.03
00002905 00000057 559.07 196.65 352.65 500.93 719.79 396.36 866.08 392.89 825.32 501.30 739.97 579.38 846.17 576.60
00002906 00000058 551.09 193.55 355.93 504.75 712.51 391.51 859.58 388.05 818.16 498.84 729.29 577.19 840.40 574.57
00002907 00000059 550.48 189.71 355.73 505.51 703.08 394.49 858.00 391.71 817.11 492.65 716.39 576.72 842.88 575.70
00002908 00000060 548.24 185.51 353.96 506.34 693.65 393.83 849.70 388.83 808.02 489.63 710.81 574.13 838.79 571.52
00002909 00000061 546.94 180.67 351.56 504.14 685.59 392.14 843.26 385.06 799.67 483.57 706.46 570.60 834.45 566.36
00002910 00000062 545.15 176.90 349.84 503.88 680.58 390.80 838.72 381.70 795.28 481.04 703.29 568.57 831.60 562.79
00002911 00000063 541.62 176.18 349.87 504.62 676.36 389.67 832.14 379.08 790.20 477.22 698.30 564.68 827.13 557.86
00002912 00000064 538.35 173.94 350.15 506.00 671.06 385.55 827.50 376.12 784.33 473.94 693.97 563.04 821.52 557.01
00002913 00000065 535.81 174.26 350.57 505.51 666.96 383.91 825.07 373.25 780.56 472.34 691.31 562.89 819.26 555.53
00002914 00000066 533.42 174.11 350.67 507.06 663.77 383.59 822.38 372.38 778.49 472.62 689.96 564.11 816.29 555.98
00002915 00000067 531.40 176.27 351.68 507.84 661.58 384.56 821.53 372.38 776.88 475.71 688.43 566.13 815.29 557.04
00002916 00000068 529.00 177.19 352.13 507.94 657.38 385.02 818.61 372.13 773.39 477.55 686.56 567.94 813.48 558.02
00002917 00000069 526.66 176.69 352.43 508.77 653.79 386.95 814.32 372.62 771.00 479.43 685.60 569.62 811.51 558.52
00002918 00000070 524.08 176.68 352.49 510.64 650.93 390.47 810.07 375.99 767.61 480.16 685.29 571.39 808.81 559.86
00002919 00000071 521.39 177.62 353.01 511.91 650.54 392.39 806.52 378.57 765.36 481.44 684.47 572.62 804.91 561.64
00002920 00000072 518.66 179.05 354.30 514.24 648.16 391.44 802.98 378.56 761.65 482.12 683.54 574.70 801.66 564.30
00002921 00000073 516.40 183.04 357.62 513.01 645.13 393.45 799.69 381.15 756.14 483.60 680.05 576.47 798.47 566.65
00002922 00000074 514.44 185.08 359.97 513.97 641.56 394.27 796.06 381.96 750.66 485.80 676.87 578.41 794.85 568.61
00002923 00000075 513.41 188.53 360.95 511.71 640.07 394.02 794.73 381.83 747.89 489.08 673.82 579.50 792.27 569.96
00002924 00000076 513.32 188.45 362.10 514.16 638.64 393.82 793.97 382.93 744.70 490.31 672.03 580.42 791.04 571.82
00002925 00000077 512.71 188.47 362.32 515.06 637.68 394.59 792.72 384.00 742.74 491.76 670.34 581.26 789.29 573.05
00002926 00000078 512.65 188.57 363.71 515.65 637.04 396.45 792.38 385.70 741.19 492.56 668.39 581.73 788.74 573.47
00002927 00000079 513.44 190.76 363.79 515.10 636.72 397.92 791.93 386.63 739.86 494.77 667.61 582.32 789.22 573.67
00002928 00000080 513.82 190.87 363.37 517.43 636.82 401.82 790.83 390.59 739.11 497.51 665.30 583.19 789.01 574.81
00002929 00000081 513.38 193.18 363.82 517.62 636.40 402.84 791.44 392.91 738.46 498.39 663.83 584.70 788.57 577.52
00002930 00000082 513.77 196.91 362.45 515.91 635.99 404.90 790.93 395.79 737.27 500.75 662.35 585.76 787.22 579.39
00002931 00000083 512.88 198.35 362.65 515.31 634.89 406.82 789.60 397.87 735.40 505.91 661.11 587.83 785.33 581.59
00002932 00000084 511.69 201.11 363.37 511.37 631.91 407.35 788.58 398.61 732.05 509.33 659.70 588.63 784.46 582.51
00002933 00000085 510.21 203.77 364.40 504.12 628.86 407.70 787.17 400.23 728.27 509.56 657.30 587.78 782.09 582.79
00002934 00000086 509.16 205.51 364.68 501.63 626.29 408.31 784.37 400.71 724.55 510.96 654.42 586.97 779.27 581.83
00002935 00000087 508.56 205.35 363.78 499.84 624.18 407.16 783.58 400.32 722.67 510.90 651.80 586.41 777.73 581.98
00002936 00000088 507.83 204.46 363.60 499.14 622.42 406.63 782.11 400.24 720.16 509.87 650.13 586.02 776.20 581.84
00002937 00000089 505.79 203.85 364.04 499.06 620.28 406.38 780.66 400.81 717.57 509.58 648.28 585.86 774.19 582.42
00002938 00000090 504.74 202.82 364.61 500.93 619.34 406.05 778.88 401.16 715.83 508.37 647.80 585.43 772.93 582.51
00002939 00000091 503.12 203.80 365.02 500.55 616.91 407.12 777.09 401.57 713.39 509.87 646.96 587.00 772.07 583.41
00002940 00000092 502.67 205.39 364.16 499.61 615.61 408.07 775.58 402.77 711.52 510.51 647.43 588.09 771.69 584.57
00002941 00000093 501.24 203.98 364.82 503.82 615.23 408.19 773.32 402.53 710.45 511.90 648.63 591.14 768.40 587.16
00002942 00000094 499.34 204.13 365.51 506.71 614.48 409.38 772.06 403.60 710.23 512.59 649.74 594.43 767.52 590.17
00002943 00000095 498.58 203.97 366.07 507.37 613.90 409.06 771.51 403.89 709.32 512.96 649.00 594.44 766.64 590.70
00002944 00000096 499.05 204.75 365.65 505.87 613.87 409.65 771.69 404.12 708.94 513.07 649.33 594.05 767.43 590.00
00002945 00000097 498.72 204.46 365.38 506.57 614.00 409.61 771.26 404.84 708.46 513.21 647.84 593.06 766.28 589.68
00002946 00000098 498.38 203.06 365.70 509.09 613.88 408.71 770.53 404.67 708.01 512.11 647.19 592.51 765.29 589.78
00002947 00000099 498.37 203.41 365.42 511.30 613.85 408.25 770.69 404.21 708.24 511.67 645.81 592.71 765.43 590.26
00002948 00000100 497.24 203.23 366.53 514.82 613.46 408.19 770.64 404.47 708.12 511.23 644.90 593.57 766.20 591.44
00002949 00000101 495.80 202.77 367.87 517.04 613.89 407.53 770.34 404.53 708.20 511.72 645.30 594.70 765.08 593.13
00002950 00000102 495.99 202.72 367.66 517.04 612.95 408.61 769.81 405.49 706.93 513.82 645.73 595.37 765.82 593.59
00002951 00000103 496.32 204.24 366.84 512.59 612.80 409.79 769.64 406.84 705.66 516.05 644.49 595.16 763.10 593.46
00002952 00000104 497.44 207.76 365.47 505.43 612.05 412.07 770.53 407.26 705.95 517.40 646.03 595.68 765.30 592.37
CROP_BBOX: 330 0 1133 862
