Video ID: 	U3XDjfYTQGE
H: 	1080
W: 	1920
FPS: 	25.0

FRAME INDEX X0 Y0 W H [Landmarks (5 Points)]

00011124 00000000 1051.62 80.02 458.69 616.32 1134.31 322.03 1332.84 313.49 1213.37 426.43 1161.86 550.87 1315.08 542.83
00011125 00000001 1050.11 79.34 454.07 607.08 1128.54 326.28 1334.81 320.23 1209.55 427.94 1150.03 552.27 1311.79 546.27
00011126 DELETE   1054.02 80.40 450.97 600.84 1134.72 322.17 1338.64 318.74 1214.52 422.70 1152.92 546.44 1311.58 542.70
00011127 DELETE   1062.01 73.07 444.62 603.95 1142.74 317.58 1340.11 314.13 1220.39 420.12 1161.91 542.23 1312.33 538.51
00011128 00000004 1067.40 68.42 441.87 606.52 1150.27 313.80 1344.21 310.36 1227.29 414.87 1170.61 537.64 1317.62 533.91
00011129 00000005 1069.58 69.44 444.69 604.13 1152.14 309.13 1351.09 304.65 1233.76 408.63 1175.03 535.96 1325.68 531.09
00011130 00000006 1071.43 57.93 452.47 610.14 1150.63 308.38 1355.06 299.30 1233.22 412.76 1178.59 537.02 1322.55 530.64
00011131 00000007 1072.45 56.48 450.39 613.69 1151.03 312.12 1355.65 303.61 1234.15 420.06 1178.58 538.91 1324.64 533.00
00011132 00000008 1073.60 58.90 444.19 619.68 1153.28 320.89 1350.64 315.03 1231.31 429.18 1182.81 545.66 1323.38 542.38
00011133 00000009 1071.67 63.57 446.61 627.63 1155.32 328.93 1350.92 323.74 1230.20 436.71 1180.26 554.01 1324.53 550.92
00011134 00000010 1068.50 93.95 449.16 605.60 1151.08 339.00 1348.60 336.71 1227.33 449.21 1178.91 558.02 1338.10 554.68
00011135 00000011 1065.80 95.51 452.75 611.04 1149.47 352.20 1349.58 346.85 1228.42 457.58 1178.30 565.20 1341.76 559.14
00011136 00000012 1065.38 102.45 453.02 605.30 1145.83 348.24 1345.65 341.44 1225.16 458.22 1177.63 567.11 1338.43 560.08
00011137 00000013 1067.72 100.83 443.79 595.15 1144.48 341.40 1342.90 335.27 1220.45 449.82 1174.04 561.05 1331.28 554.74
00011138 DELETE   1068.55 76.53 459.52 603.09 1147.95 332.87 1348.41 317.00 1225.53 433.08 1183.18 554.58 1322.75 541.83
00011139 DELETE   1068.39 59.19 455.14 615.89 1147.50 322.74 1345.50 306.90 1225.95 426.36 1182.76 544.10 1322.88 532.14
00011140 00000016 1071.55 55.15 450.08 618.90 1149.48 315.35 1348.72 298.87 1229.00 418.67 1185.74 541.07 1326.63 528.62
00011141 00000017 1077.76 59.78 435.60 616.37 1157.16 314.30 1347.99 299.88 1234.21 411.59 1193.14 536.24 1328.53 525.82
00011142 00000018 1078.07 59.01 434.16 615.62 1157.52 313.93 1347.58 299.82 1235.22 412.81 1194.19 535.04 1331.55 524.84
00011143 00000019 1073.49 60.16 441.62 613.82 1153.99 318.92 1346.89 304.63 1232.59 419.65 1190.50 537.84 1331.55 527.19
00011144 00000020 1067.74 60.61 446.39 614.64 1148.55 321.15 1343.03 309.52 1227.23 429.85 1186.99 542.00 1327.05 533.49
00011145 00000021 1063.54 61.59 452.61 614.17 1144.25 324.84 1337.63 312.40 1221.03 435.18 1183.95 545.37 1322.04 536.07
00011146 00000022 1059.25 64.18 455.12 614.03 1139.06 326.97 1331.35 313.29 1213.77 438.14 1179.46 548.79 1315.38 538.35
00011147 00000023 1056.04 73.15 448.22 606.71 1135.14 324.44 1329.12 311.08 1216.75 431.61 1171.10 553.45 1315.44 541.19
00011148 00000024 1055.54 72.32 446.05 605.79 1136.47 319.45 1328.85 307.28 1218.29 427.09 1171.80 549.03 1313.36 537.86
00011149 00000025 1059.51 71.39 442.70 601.22 1138.31 315.31 1329.53 304.91 1218.02 418.94 1170.53 541.70 1313.62 532.06
00011150 00000026 1061.77 71.44 438.74 599.39 1138.46 312.19 1328.59 300.44 1217.42 416.67 1172.21 540.49 1313.95 530.05
00011151 00000027 1061.93 73.13 439.74 598.07 1138.27 312.11 1328.50 299.41 1217.47 417.53 1173.43 541.02 1314.29 529.80
00011152 00000028 1059.58 73.33 441.95 604.23 1139.38 313.84 1327.74 300.68 1218.95 422.00 1178.11 545.88 1313.20 534.35
00011153 00000029 1054.60 73.81 445.43 610.71 1134.41 316.82 1325.43 302.88 1214.75 430.16 1176.21 552.29 1313.93 539.89
00011154 00000030 1051.24 76.31 445.32 609.82 1129.69 321.85 1322.39 306.47 1211.59 430.74 1170.24 555.48 1311.16 541.98
00011155 00000031 1045.50 75.41 444.82 609.76 1121.17 325.22 1316.27 309.99 1202.13 430.03 1158.42 555.23 1307.80 541.79
00011156 00000032 1042.78 73.27 443.12 601.78 1117.00 319.86 1312.68 303.33 1200.45 422.84 1154.32 548.47 1301.97 534.46
00011157 00000033 1043.58 63.29 440.89 605.50 1118.03 314.83 1308.79 298.16 1190.19 413.28 1155.19 538.27 1297.95 525.30
00011158 00000034 1043.86 60.53 443.27 602.89 1116.34 308.75 1309.60 292.26 1187.61 406.20 1152.82 533.26 1298.34 520.53
00011159 00000035 1043.73 57.73 445.47 601.21 1115.93 306.15 1311.58 290.72 1186.66 405.88 1151.83 531.32 1298.88 519.37
00011160 00000036 1041.13 56.49 445.69 603.91 1115.29 308.61 1310.52 293.15 1187.04 408.74 1150.65 531.04 1299.74 519.15
00011161 00000037 1040.23 55.83 441.48 607.24 1118.39 315.61 1309.62 304.94 1193.39 416.69 1151.12 533.98 1295.30 526.21
00011162 DELETE   1039.00 67.33 447.87 608.20 1119.49 331.03 1317.12 316.66 1195.48 426.65 1152.56 550.71 1299.24 539.92
00011163 DELETE   1035.69 77.85 452.39 614.65 1117.15 339.02 1317.60 321.71 1202.86 444.64 1159.75 568.65 1305.71 554.21
00011164 DELETE   1034.80 84.72 458.90 624.73 1120.78 343.18 1322.12 324.48 1212.55 461.06 1174.28 578.41 1319.47 563.05
00011165 00000041 1040.21 92.99 460.43 625.18 1129.34 356.37 1325.77 331.52 1222.75 467.96 1188.95 587.71 1336.73 566.64
00011166 00000042 1041.80 105.94 459.14 611.15 1140.10 359.59 1337.45 331.13 1242.63 464.72 1204.03 589.70 1350.71 565.79
00011167 00000043 1044.36 103.84 459.30 600.37 1146.17 351.71 1345.37 320.26 1254.19 450.57 1215.54 578.95 1363.97 551.84
00011168 00000044 1042.67 95.99 458.02 595.81 1148.51 341.40 1345.72 309.89 1260.43 439.14 1219.96 566.30 1368.22 538.91
00011169 DELETE   1040.92 91.16 452.47 598.67 1146.71 336.97 1340.52 304.21 1258.14 428.71 1217.34 558.63 1362.91 530.97
00011170 00000046 1034.10 85.91 454.46 603.83 1140.37 334.55 1335.33 300.21 1252.31 426.06 1210.58 559.25 1354.48 530.53
00011171 00000047 1028.14 80.63 453.90 607.70 1133.76 334.61 1330.39 301.36 1245.35 429.90 1202.81 561.65 1345.86 534.29
00011172 00000048 1025.81 82.57 454.02 604.90 1126.17 336.54 1327.75 303.47 1237.31 434.66 1192.17 565.19 1342.90 537.65
00011173 00000049 1021.19 83.79 454.67 600.88 1120.13 338.92 1324.93 305.14 1232.52 439.02 1186.89 568.72 1338.39 540.86
00011174 00000050 1017.60 84.37 454.26 600.08 1116.06 339.03 1324.29 307.22 1229.67 440.78 1180.46 568.88 1335.10 542.26
00011175 00000051 1015.50 84.47 453.46 601.13 1112.42 339.71 1321.90 308.97 1225.68 442.11 1176.19 569.07 1331.03 543.26
00011176 00000052 1014.08 83.18 456.18 607.14 1115.46 345.24 1316.29 313.01 1222.04 447.74 1180.51 570.12 1324.17 543.65
00011177 00000053 1013.68 84.82 456.47 605.57 1113.68 345.58 1315.01 314.90 1218.47 448.28 1176.99 570.47 1320.90 545.27
00011178 00000054 1010.40 87.32 457.26 602.52 1111.73 345.11 1312.57 315.05 1215.44 447.11 1174.47 569.50 1317.54 544.70
00011179 00000055 1007.89 87.56 456.11 603.12 1110.22 345.36 1309.77 315.86 1212.83 445.72 1171.41 568.35 1313.77 544.17
00011180 00000056 1008.80 88.76 451.24 597.42 1102.51 344.16 1309.78 314.70 1208.88 443.54 1163.11 568.90 1312.96 544.38
00011181 00000057 1003.69 88.05 454.67 605.99 1104.27 345.98 1303.64 316.98 1205.39 443.47 1162.55 568.19 1306.65 544.53
00011182 00000058 999.93 87.77 456.66 604.54 1101.90 345.21 1300.24 316.48 1200.92 441.52 1159.39 566.34 1302.50 542.88
00011183 00000059 998.75 88.89 451.83 593.46 1099.62 345.64 1296.77 315.67 1204.46 437.32 1163.02 566.09 1305.82 539.40
00011184 00000060 998.23 89.58 451.57 593.29 1097.72 345.97 1293.76 315.72 1201.06 436.96 1161.80 566.60 1303.50 539.79
00011185 00000061 997.04 89.37 452.23 595.57 1096.71 345.93 1291.64 316.36 1199.09 437.90 1161.05 567.91 1300.91 541.73
00011186 00000062 996.48 86.69 458.02 609.48 1098.30 347.17 1293.68 318.14 1192.54 443.04 1154.71 569.35 1293.37 545.79
00011187 00000063 996.17 87.22 458.87 612.69 1097.62 349.83 1294.20 321.13 1192.21 448.20 1153.81 573.44 1294.12 549.91
00011188 00000064 996.07 88.57 457.06 612.41 1097.58 351.08 1293.99 323.15 1191.93 450.02 1152.81 575.49 1292.73 552.59
00011189 00000065 995.72 86.91 457.06 615.56 1096.96 351.69 1293.91 322.96 1192.13 451.18 1152.46 576.79 1292.86 553.34
00011190 00000066 995.58 87.61 457.29 614.66 1096.30 351.90 1293.46 322.61 1191.32 451.06 1152.31 577.04 1292.73 553.10
00011191 00000067 995.83 87.31 456.90 614.80 1095.99 351.39 1293.68 322.04 1191.42 451.07 1152.25 577.35 1293.06 553.38
00011192 00000068 995.53 87.54 457.50 613.37 1095.46 351.54 1293.77 321.66 1191.34 451.27 1152.20 577.16 1294.09 552.70
00011193 00000069 995.62 86.43 458.06 614.51 1095.10 351.82 1293.42 321.69 1190.75 451.33 1151.70 576.86 1294.17 552.12
00011194 00000070 995.16 87.35 458.30 614.17 1094.90 351.53 1293.56 321.63 1190.72 451.58 1151.58 577.14 1294.23 552.59
00011195 00000071 995.27 88.49 457.67 610.48 1094.43 351.88 1293.09 321.44 1190.38 451.74 1151.40 576.28 1294.64 551.31
00011196 00000072 994.99 87.82 458.40 611.20 1094.16 351.90 1293.29 321.42 1190.38 452.30 1151.11 576.64 1295.11 551.52
00011197 00000073 995.44 88.81 460.19 609.38 1093.74 352.38 1293.46 322.08 1189.42 452.76 1150.22 577.03 1294.66 552.02
00011198 00000074 994.25 89.31 462.42 619.20 1093.72 353.01 1294.13 323.60 1189.02 453.63 1148.97 579.56 1294.88 555.12
00011199 00000075 996.31 93.71 460.12 615.10 1089.91 353.46 1291.66 323.66 1189.06 455.19 1149.98 578.82 1296.98 554.26
00011200 00000076 989.62 101.56 459.43 608.50 1087.86 356.17 1288.86 329.08 1190.08 457.64 1148.12 580.54 1299.31 556.69
00011201 00000077 986.70 107.02 460.22 603.31 1085.40 363.62 1285.68 334.46 1187.91 462.55 1144.47 581.59 1299.48 556.25
00011202 00000078 983.68 119.43 456.98 600.66 1081.65 374.06 1282.65 342.85 1186.27 476.18 1142.68 592.01 1298.05 565.33
00011203 00000079 990.40 126.50 450.58 602.85 1081.22 382.13 1283.27 349.76 1190.43 487.85 1145.23 607.61 1299.84 579.58
00011204 00000080 990.42 133.81 449.77 599.85 1081.26 385.58 1279.98 352.20 1190.58 494.18 1151.36 614.19 1299.08 585.01
00011205 00000081 990.05 132.45 450.73 600.24 1081.35 385.08 1279.70 350.67 1190.38 491.49 1151.61 614.70 1298.58 584.88
00011206 00000082 990.22 130.60 449.38 598.93 1081.09 382.21 1280.05 347.82 1189.72 484.33 1148.51 612.00 1296.16 582.45
00011207 00000083 987.62 123.82 453.10 598.46 1081.00 377.48 1282.18 344.14 1190.87 476.54 1146.32 604.77 1295.91 575.70
00011208 00000084 980.65 120.95 459.39 596.40 1079.66 374.02 1281.02 341.18 1186.68 474.34 1145.68 595.61 1295.54 567.66
00011209 00000085 978.92 116.95 461.34 597.01 1079.36 370.92 1281.57 338.94 1186.65 470.61 1145.75 593.12 1295.92 565.64
00011210 00000086 977.77 117.28 461.71 596.50 1078.73 370.64 1280.66 339.12 1185.85 470.48 1144.59 592.46 1295.06 565.43
00011211 00000087 977.05 117.86 462.09 596.25 1077.78 371.00 1280.16 339.52 1184.78 469.78 1143.52 593.33 1293.88 566.37
00011212 00000088 976.16 117.16 460.84 597.60 1076.63 372.68 1278.85 340.50 1182.94 470.85 1142.66 594.83 1292.99 567.30
00011213 00000089 975.06 119.51 461.74 595.63 1076.37 376.85 1276.36 343.60 1181.68 472.59 1143.44 595.27 1292.26 567.01
00011214 00000090 974.16 120.15 460.87 597.29 1075.12 376.63 1274.93 344.38 1179.75 473.49 1141.74 595.92 1290.66 568.47
00011215 00000091 974.53 121.57 460.09 598.08 1074.38 376.64 1273.82 345.11 1178.36 474.46 1140.36 596.86 1289.03 569.96
00011216 00000092 983.12 122.00 452.34 600.15 1075.08 378.96 1275.92 344.97 1184.17 471.43 1139.33 604.47 1288.97 574.88
00011217 00000093 983.20 123.22 454.08 603.65 1075.35 379.04 1275.26 344.93 1183.52 471.82 1139.91 606.58 1288.27 576.99
00011218 00000094 983.08 125.27 455.45 606.91 1076.44 379.05 1275.63 343.59 1184.88 470.74 1140.69 606.45 1291.37 575.75
00011219 00000095 982.32 123.58 453.23 610.57 1077.34 377.27 1277.03 341.06 1187.77 468.60 1142.48 606.57 1294.40 575.17
00011220 00000096 982.41 117.30 457.00 616.59 1078.52 375.05 1281.47 337.23 1191.72 465.53 1145.25 606.74 1298.82 573.81
00011221 00000097 981.96 110.90 460.46 618.42 1081.09 371.47 1285.19 333.68 1195.88 458.25 1148.33 602.80 1302.38 569.42
00011222 00000098 979.51 107.23 466.58 612.09 1081.78 367.54 1284.10 333.24 1191.22 459.29 1147.72 589.71 1301.43 560.28
00011223 00000099 981.74 107.44 460.29 602.64 1083.81 364.91 1285.77 333.27 1192.72 457.20 1148.40 585.73 1300.95 558.15
00011224 00000100 981.36 107.62 462.31 598.43 1083.41 363.61 1285.71 333.10 1191.55 455.22 1147.59 583.04 1300.83 556.20
00011225 00000101 991.87 96.35 457.99 608.69 1091.21 363.14 1284.03 333.41 1182.87 452.31 1142.51 579.41 1284.96 554.76
00011226 00000102 985.39 105.39 454.11 596.66 1078.65 361.68 1278.11 335.95 1178.28 450.23 1136.27 578.78 1289.50 556.15
00011227 00000103 986.75 101.56 449.22 599.29 1074.68 358.88 1273.05 335.55 1168.20 446.88 1127.39 576.60 1280.55 556.15
00011228 00000104 986.38 103.23 447.52 596.67 1071.81 353.08 1270.15 333.85 1159.43 442.41 1118.04 572.38 1271.44 555.65
00011229 00000105 986.37 100.79 446.22 598.51 1072.29 347.66 1269.49 331.57 1153.86 439.32 1112.84 568.38 1265.04 554.55
00011230 00000106 988.72 96.18 442.31 604.01 1074.95 345.06 1270.85 330.06 1155.56 435.98 1112.43 565.68 1264.32 552.80
00011231 00000107 995.13 94.18 442.13 604.37 1077.85 345.39 1274.22 330.05 1157.37 436.78 1115.70 566.51 1266.24 553.34
00011232 00000108 1000.86 92.70 442.81 606.08 1082.97 346.91 1280.26 332.10 1161.63 439.72 1121.22 567.91 1271.02 555.22
00011233 00000109 1005.29 93.06 441.73 605.34 1088.21 348.80 1284.21 333.49 1167.84 442.34 1126.94 567.71 1275.22 554.40
00011234 00000110 1013.19 93.45 444.51 603.07 1092.20 347.47 1293.41 330.56 1176.01 445.06 1129.58 566.35 1276.79 552.55
00011235 00000111 1016.07 92.34 449.02 604.34 1096.32 346.85 1296.95 330.94 1180.42 447.01 1133.86 566.59 1281.35 553.68
00011236 00000112 1018.67 90.84 448.34 603.84 1099.80 344.71 1300.13 330.32 1184.33 446.85 1136.88 566.20 1283.25 554.58
00011237 00000113 1023.78 91.60 443.75 602.42 1101.95 343.60 1304.72 329.68 1187.74 446.54 1139.79 567.38 1288.86 556.15
00011238 00000114 1027.13 92.45 439.50 604.36 1104.67 343.34 1306.53 331.27 1190.12 448.63 1141.57 567.48 1292.57 557.67
00011239 00000115 1029.35 96.34 438.59 602.83 1107.65 345.06 1307.68 334.83 1190.58 451.07 1143.06 568.87 1292.65 560.65
00011240 00000116 1030.20 98.75 439.91 603.36 1109.28 346.23 1310.11 337.23 1192.08 453.03 1143.82 570.65 1293.57 563.51
00011241 00000117 1031.80 99.46 438.15 603.37 1109.85 347.95 1310.73 338.47 1192.97 454.89 1145.14 573.33 1293.24 566.04
00011242 00000118 1031.66 99.97 438.76 603.91 1109.43 347.91 1310.61 338.73 1192.99 455.69 1144.83 573.38 1293.72 566.25
00011243 00000119 1031.88 102.74 438.60 601.15 1108.71 348.14 1309.69 338.86 1191.96 455.91 1144.29 573.52 1293.27 566.29
00011244 00000120 1031.95 101.72 437.30 602.04 1108.55 348.36 1308.55 339.37 1191.54 455.76 1143.92 573.54 1292.18 566.52
00011245 00000121 1032.36 102.98 436.71 601.11 1108.51 349.88 1307.64 341.04 1190.76 456.65 1143.65 574.24 1291.96 567.37
00011246 00000122 1032.92 103.21 436.08 602.46 1108.61 351.36 1305.96 341.99 1189.55 457.65 1144.29 575.91 1291.11 568.65
00011247 00000123 1033.57 106.76 436.02 602.32 1108.60 352.50 1307.16 343.33 1189.46 459.65 1143.71 577.03 1292.23 570.10
00011248 00000124 1033.88 108.04 434.53 605.99 1109.18 353.01 1307.14 344.35 1189.76 460.59 1142.76 577.12 1292.28 570.82
00011249 00000125 1034.13 109.48 435.50 606.98 1109.65 354.23 1307.99 345.38 1189.94 461.81 1142.59 579.20 1292.51 572.86
00011250 00000126 1033.82 109.91 436.38 609.08 1109.50 356.99 1309.01 347.38 1189.88 463.49 1142.53 581.91 1294.43 575.03
00011251 00000127 1035.08 109.40 434.59 611.09 1110.71 358.27 1309.07 349.30 1189.43 463.30 1142.15 582.84 1294.32 576.52
00011252 00000128 1035.72 113.66 437.45 607.10 1111.61 360.00 1310.48 351.89 1188.96 463.91 1141.35 584.10 1294.45 578.48
00011253 00000129 1034.21 114.19 436.67 603.60 1112.36 360.32 1311.89 353.22 1190.02 463.56 1141.09 583.29 1295.85 578.28
00011254 00000130 1035.11 118.47 440.45 598.20 1115.11 360.58 1314.00 355.42 1191.09 461.89 1140.84 584.17 1291.29 580.78
00011255 00000131 1036.68 119.09 441.92 599.90 1119.46 360.12 1317.85 356.37 1194.83 459.51 1142.94 586.12 1290.37 584.03
00011256 00000132 1038.37 121.88 446.46 602.87 1124.02 361.13 1322.74 357.68 1199.83 460.52 1147.27 588.51 1295.00 586.83
00011257 00000133 1045.21 133.46 445.75 601.21 1131.49 366.43 1335.57 366.64 1217.23 471.04 1149.76 598.23 1301.58 598.39
00011258 00000134 1047.54 138.62 449.78 601.09 1139.01 372.47 1341.58 376.42 1224.73 478.32 1153.31 600.21 1306.95 603.30
00011259 DELETE   1052.25 139.55 449.40 604.51 1144.27 379.95 1346.69 383.39 1231.65 486.88 1158.06 607.65 1314.62 609.55
00011260 DELETE   1057.78 140.10 452.99 608.51 1151.75 386.15 1360.35 390.30 1241.42 492.32 1166.90 612.07 1338.07 613.52
00011261 DELETE   1065.64 144.11 453.65 604.69 1165.53 390.71 1372.10 394.95 1254.44 498.97 1183.12 615.31 1349.15 616.49
00011262 00000138 1072.61 155.45 460.06 594.00 1173.59 392.56 1377.67 398.70 1259.02 512.34 1192.47 614.35 1342.86 619.81
00011263 DELETE   1080.57 150.66 457.96 597.91 1180.20 392.11 1386.19 400.05 1266.19 509.53 1192.89 613.58 1346.51 620.74
00011264 DELETE   1078.52 148.08 449.75 601.49 1187.79 390.85 1390.63 405.83 1271.98 501.29 1192.41 610.31 1344.20 623.46
00011265 DELETE   1079.93 151.10 455.73 598.33 1191.66 387.94 1395.79 405.12 1276.31 498.83 1194.81 609.92 1346.06 624.81
CROP_BBOX: 747 0 1817 964
