Video ID: 	SXcLqMXfCro
H: 	1080
W: 	1920
FPS: 	25.0

FRAME INDEX X0 Y0 W H [Landmarks (5 Points)]

00009607 00000000 693.85 152.73 411.44 597.77 756.16 414.79 932.51 399.32 831.44 542.78 823.20 629.96 963.51 615.02
00009608 DELETE   692.67 153.91 410.12 592.48 756.03 414.88 932.46 401.15 831.60 543.69 822.70 630.87 960.78 617.35
00009609 DELETE   692.42 156.98 412.75 586.65 755.32 416.99 931.91 402.99 830.12 545.47 821.96 632.40 958.77 618.59
00009610 00000003 692.88 163.44 418.07 576.77 758.16 418.98 935.01 406.98 834.35 548.29 823.16 631.82 960.32 619.81
00009611 00000004 691.86 163.62 423.59 567.82 758.18 422.01 938.84 409.59 838.96 550.58 822.82 635.89 966.57 622.96
00009612 00000005 693.90 169.10 424.40 558.32 762.44 424.73 943.54 410.65 845.65 552.75 829.05 635.28 972.64 621.09
00009613 00000006 696.95 169.29 424.77 578.23 763.37 424.68 945.53 410.04 845.42 554.28 830.28 637.44 976.12 622.78
00009614 00000007 699.16 172.36 424.04 577.22 767.68 425.62 945.93 410.56 847.57 555.11 836.17 638.62 976.42 623.96
00009615 00000008 701.59 173.21 421.46 578.68 771.68 425.86 948.63 411.61 851.55 557.29 839.50 639.06 977.47 625.12
00009616 00000009 702.46 173.16 423.41 579.89 775.30 426.00 954.12 414.00 855.55 559.52 839.84 640.18 978.17 628.15
00009617 00000010 706.36 174.62 425.02 582.92 781.63 426.81 957.96 416.44 858.44 560.17 843.67 640.25 978.15 629.62
00009618 00000011 709.82 175.66 426.87 585.37 786.37 428.66 967.15 418.49 864.52 563.15 845.97 641.41 984.78 631.24
00009619 DELETE   715.89 177.48 425.82 584.36 796.11 430.61 979.22 420.46 876.82 565.89 852.86 641.58 992.44 631.83
00009620 DELETE   721.66 175.57 425.24 587.87 805.44 429.77 986.97 417.63 887.59 565.57 864.91 639.64 1002.97 627.97
00009621 00000014 736.98 171.92 424.23 593.31 814.90 421.79 1010.57 412.75 907.91 563.64 870.43 640.64 1016.79 633.35
00009622 00000015 741.44 173.91 430.44 591.08 827.26 420.86 1028.79 404.37 929.56 559.95 887.38 638.60 1041.60 625.03
00009623 00000016 746.08 167.80 434.41 600.61 839.21 419.10 1035.19 399.82 944.32 554.65 899.53 636.28 1052.10 620.22
00009624 00000017 750.49 164.17 439.63 603.00 847.77 415.31 1040.88 394.64 952.54 548.85 910.92 632.92 1061.47 615.25
00009625 00000018 756.07 161.70 435.96 601.35 855.10 409.35 1045.91 387.61 960.14 543.80 921.23 631.11 1065.12 612.23
00009626 00000019 760.68 154.58 432.51 607.23 857.77 405.89 1047.37 385.06 961.01 541.15 924.67 630.22 1066.39 612.03
00009627 00000020 762.16 155.30 432.60 603.73 858.42 404.18 1048.35 384.69 960.54 539.41 924.18 628.57 1064.20 611.56
00009628 00000021 763.49 154.39 432.99 604.62 858.85 403.59 1048.38 385.74 959.21 540.83 923.64 628.72 1062.16 613.05
00009629 00000022 766.01 152.71 433.18 607.42 862.50 403.28 1050.86 386.70 961.63 541.24 925.39 629.51 1061.89 614.84
00009630 00000023 767.46 153.96 434.25 606.91 865.79 403.06 1052.29 386.90 963.23 539.98 927.66 629.69 1061.74 615.02
00009631 00000024 769.66 148.64 432.46 609.80 868.31 404.35 1053.24 388.76 965.00 539.83 928.96 628.81 1062.50 614.77
00009632 00000025 770.03 148.54 431.78 606.48 868.69 403.08 1053.48 387.75 965.49 539.22 929.31 627.91 1061.70 614.03
00009633 00000026 769.38 149.79 431.80 603.53 866.64 401.78 1051.80 386.56 963.24 538.43 927.30 626.64 1060.30 613.14
00009634 00000027 768.59 150.48 432.40 603.80 864.67 401.01 1050.38 385.88 961.18 538.54 924.77 626.46 1058.86 613.21
00009635 00000028 768.01 151.55 432.42 603.31 863.32 400.16 1049.20 385.11 960.17 539.00 923.98 626.65 1058.13 613.33
00009636 00000029 766.54 152.62 434.04 602.75 862.45 399.76 1050.05 385.31 960.35 539.96 923.78 626.75 1058.47 613.81
00009637 00000030 766.30 154.31 434.18 600.89 862.14 400.25 1049.86 385.78 960.26 541.46 924.80 627.60 1058.69 614.54
00009638 00000031 766.07 156.74 434.42 599.45 860.78 400.90 1049.15 386.33 959.00 542.41 923.63 628.84 1058.87 615.66
00009639 00000032 765.02 162.07 434.33 593.86 859.30 402.26 1048.16 387.67 957.48 544.14 920.86 628.94 1058.23 615.77
00009640 00000033 764.04 161.46 433.58 597.34 857.10 404.57 1046.39 389.93 954.91 546.34 918.47 631.56 1057.48 618.43
00009641 00000034 762.88 164.67 431.79 594.94 854.62 406.47 1044.19 392.42 951.54 547.89 912.85 631.20 1054.79 618.89
00009642 00000035 761.40 164.57 429.76 592.80 852.45 408.17 1041.52 394.77 949.23 549.14 910.00 630.92 1051.86 619.25
00009643 00000036 758.12 163.95 430.36 594.27 848.10 406.53 1037.13 391.81 946.24 547.69 907.29 630.57 1049.93 617.94
00009644 00000037 756.82 158.98 429.20 597.58 845.92 402.71 1034.42 387.07 944.47 544.54 905.15 629.05 1047.39 615.81
00009645 00000038 755.45 146.81 427.77 609.85 842.62 399.02 1028.87 382.50 940.53 537.91 901.27 625.64 1041.41 611.60
00009646 00000039 758.82 133.76 420.77 619.21 837.49 394.09 1025.20 380.49 931.52 530.42 890.58 618.97 1034.46 606.85
00009647 00000040 762.71 130.51 418.19 619.36 837.08 386.42 1022.77 374.94 925.41 520.05 887.33 609.25 1031.03 598.58
00009648 00000041 769.00 116.58 413.23 621.96 841.51 377.31 1018.73 369.81 918.13 507.33 883.89 593.30 1029.57 586.76
00009649 00000042 773.20 116.31 408.70 615.28 843.28 372.04 1016.87 364.67 915.07 498.89 883.60 586.48 1027.28 579.94
00009650 00000043 773.43 109.34 410.91 620.56 845.40 365.37 1017.51 360.59 914.64 494.25 884.87 583.40 1026.01 578.97
00009651 00000044 774.71 104.30 411.24 623.20 846.95 362.05 1019.46 359.47 914.80 492.09 885.34 581.13 1025.39 578.43
00009652 00000045 776.18 102.97 411.59 626.57 848.77 361.49 1020.78 359.16 915.67 491.80 886.75 581.03 1026.46 578.47
00009653 00000046 776.73 106.90 412.14 623.25 849.34 363.17 1022.20 360.51 916.83 493.18 887.81 581.89 1028.25 579.06
00009654 00000047 781.11 111.81 408.30 620.28 848.58 371.70 1024.20 364.47 920.46 499.59 888.70 591.51 1025.31 584.88
00009655 00000048 781.40 113.01 408.98 617.98 847.41 376.53 1023.01 369.37 918.95 503.06 887.20 592.88 1026.07 586.52
00009656 00000049 777.43 117.37 410.28 612.29 843.51 371.59 1016.06 368.05 908.21 497.87 881.12 585.66 1024.11 582.01
00009657 00000050 773.22 119.79 408.79 606.98 837.64 371.43 1009.52 372.19 898.47 498.70 872.05 585.17 1012.27 585.49
00009658 00000051 770.61 116.17 407.66 608.28 832.48 376.33 1002.38 383.34 888.00 503.17 863.84 584.19 1000.09 589.67
00009659 DELETE   760.46 125.18 415.16 604.07 819.37 382.61 986.17 392.60 872.40 514.68 855.60 585.01 977.18 592.84
00009660 00000053 751.66 128.03 420.65 600.34 809.01 386.37 976.90 394.77 860.27 518.23 844.98 591.19 966.45 597.84
00009661 00000054 746.62 131.89 425.88 602.85 804.26 389.61 974.80 397.81 856.00 523.95 841.83 596.40 966.01 602.93
00009662 00000055 747.86 129.77 426.16 604.51 806.65 391.30 976.88 398.34 858.64 523.16 843.22 596.51 968.23 602.23
00009663 00000056 754.01 137.83 415.52 593.94 813.73 393.14 978.73 396.60 865.49 513.72 849.91 595.24 977.91 598.50
00009664 00000057 755.68 137.23 415.86 593.20 817.41 391.57 981.77 396.01 868.69 514.22 853.04 595.29 978.94 599.60
00009665 00000058 759.14 135.72 412.72 595.96 819.93 393.79 983.15 399.75 869.84 516.00 855.40 596.62 980.48 601.89
00009666 00000059 760.84 135.53 410.05 595.10 820.67 395.81 983.26 402.29 870.62 519.01 857.56 600.15 979.99 605.65
00009667 00000060 761.65 139.69 408.98 592.13 821.30 398.41 983.02 405.45 871.47 521.70 857.70 603.77 977.57 609.70
00009668 00000061 761.15 150.67 407.43 579.21 820.23 401.07 980.79 408.08 870.37 525.69 858.52 606.43 974.94 612.30
00009669 00000062 755.70 142.40 416.62 594.59 814.07 399.24 982.84 404.66 869.02 530.07 854.13 609.21 974.46 613.17
00009670 00000063 756.99 149.27 415.07 588.34 814.60 401.97 982.76 409.26 869.26 537.01 856.44 611.63 976.05 617.04
00009671 00000064 759.22 150.61 413.40 589.96 815.09 403.12 984.23 409.28 870.48 538.87 861.09 615.93 979.17 620.28
00009672 00000065 761.04 158.23 410.24 581.17 818.50 405.46 987.54 408.67 878.46 539.36 863.08 623.98 988.05 625.26
00009673 00000066 766.07 165.69 414.93 592.55 827.12 405.47 997.03 408.83 886.32 543.82 874.13 627.29 998.93 629.16
00009674 00000067 767.97 163.84 421.81 604.38 832.09 408.68 1010.60 406.57 902.37 550.50 886.02 637.91 1018.76 635.12
00009675 00000068 772.76 165.43 421.11 603.08 841.52 414.82 1022.90 411.18 917.78 558.28 896.49 643.06 1031.80 638.84
00009676 00000069 778.10 165.78 421.86 609.25 849.87 420.38 1031.02 417.66 926.54 564.44 901.36 645.86 1040.23 641.99
00009677 00000070 782.83 175.90 421.70 603.69 855.98 425.94 1034.93 421.66 930.08 565.36 907.07 649.15 1043.39 644.31
00009678 00000071 787.69 180.51 420.39 602.78 856.29 427.20 1037.02 423.22 928.42 566.42 904.30 649.43 1045.30 644.73
00009679 00000072 791.77 179.69 418.51 601.27 857.55 425.96 1035.09 422.13 925.07 563.58 903.62 643.92 1045.04 639.26
00009680 00000073 792.53 174.68 415.78 599.80 860.55 424.32 1036.72 419.12 928.93 559.46 907.45 639.34 1048.34 633.64
00009681 00000074 794.52 172.47 414.37 596.93 865.00 423.48 1042.28 415.77 936.50 556.68 913.45 635.35 1057.05 627.61
00009682 00000075 794.50 170.66 418.54 598.34 870.20 421.75 1048.43 413.59 943.44 555.09 919.64 632.99 1062.76 624.85
00009683 00000076 794.34 168.86 419.64 602.72 872.00 422.03 1050.18 411.88 946.17 556.18 924.20 635.47 1065.47 625.65
00009684 00000077 797.40 160.65 422.12 615.21 866.60 418.60 1058.84 411.08 952.02 558.90 916.81 636.18 1062.74 629.75
00009685 00000078 798.10 161.20 420.70 615.61 866.41 419.98 1058.50 412.45 951.56 559.83 916.24 637.08 1062.33 630.70
00009686 00000079 799.04 163.47 420.11 611.91 867.36 419.66 1060.70 412.94 952.78 560.91 916.39 636.28 1063.89 630.57
00009687 00000080 794.79 167.25 420.63 600.22 873.85 422.80 1052.11 414.21 948.79 558.57 926.33 634.91 1066.43 626.26
00009688 00000081 794.92 168.47 419.83 596.68 874.44 420.46 1052.98 410.65 950.67 555.38 926.39 631.95 1067.91 622.16
00009689 00000082 793.27 169.25 421.27 592.93 873.01 417.15 1051.95 407.51 949.12 552.36 924.50 629.05 1066.47 619.33
00009690 00000083 792.67 169.51 418.26 593.45 869.45 416.64 1047.59 406.70 944.73 550.65 920.01 629.23 1062.40 619.40
00009691 00000084 792.05 172.48 418.10 591.12 865.32 416.18 1041.71 406.10 937.42 548.98 914.94 628.99 1056.64 618.96
00009692 00000085 789.94 170.93 416.26 592.43 859.81 414.84 1034.10 405.94 930.55 549.08 908.91 628.64 1050.36 619.62
00009693 00000086 785.21 168.28 418.04 593.84 854.24 414.55 1030.11 405.26 925.44 549.33 904.37 629.16 1048.19 619.59
00009694 00000087 783.10 166.22 418.15 595.78 852.56 413.77 1028.33 405.07 923.87 549.30 901.97 628.81 1045.81 619.68
00009695 00000088 780.95 166.18 416.96 595.89 851.23 412.55 1025.62 404.94 923.05 548.48 901.32 628.16 1042.62 619.97
00009696 00000089 779.77 166.58 418.80 595.11 849.42 412.22 1024.88 404.32 921.71 546.98 898.94 628.22 1040.81 619.94
00009697 00000090 779.07 167.38 418.64 591.96 847.93 412.70 1024.69 404.57 920.56 547.58 896.48 628.01 1040.13 619.58
00009698 00000091 776.10 167.47 420.06 593.37 843.93 413.65 1022.13 404.73 916.79 547.16 893.24 630.28 1037.12 621.13
00009699 00000092 773.03 166.88 419.42 591.08 840.36 411.85 1017.37 404.42 910.49 547.00 891.38 630.45 1029.16 622.78
00009700 00000093 768.72 164.64 422.05 592.84 836.77 408.37 1014.89 401.23 906.71 543.23 887.51 629.38 1023.73 622.22
00009701 00000094 766.55 156.79 423.44 597.96 835.30 403.54 1014.40 396.05 908.89 539.22 885.40 626.29 1022.22 619.00
00009702 00000095 767.97 145.01 419.62 605.38 834.54 398.27 1011.48 389.99 907.73 531.98 885.71 621.93 1019.57 614.19
00009703 00000096 767.99 139.26 415.08 609.57 833.00 392.74 1009.53 382.08 907.07 522.82 885.04 616.50 1021.68 606.69
00009704 00000097 766.35 132.86 422.78 608.71 834.53 385.39 1018.06 383.63 907.13 522.06 886.74 601.42 1014.07 600.42
00009705 00000098 764.85 136.47 414.46 608.27 834.13 388.92 1008.22 380.00 905.51 516.21 880.55 607.65 1015.73 600.62
00009706 00000099 759.59 136.33 419.04 614.01 823.43 394.15 999.85 382.31 897.71 526.25 878.00 621.89 1008.94 611.21
00009707 00000100 756.79 148.67 423.11 605.15 822.66 398.50 1000.75 387.95 899.02 533.68 879.17 626.47 1009.55 616.99
00009708 00000101 758.00 157.38 424.95 598.55 823.42 403.44 1004.33 394.68 897.76 540.01 877.35 629.32 1011.81 621.11
00009709 00000102 757.88 163.82 422.40 591.07 823.01 406.23 1001.92 398.31 895.01 543.15 878.52 631.49 1009.54 623.93
00009710 00000103 758.50 166.78 423.08 591.85 824.08 407.49 1000.78 401.56 894.11 544.66 878.77 631.73 1007.17 626.15
00009711 00000104 756.76 165.97 427.42 593.40 824.00 407.11 1001.72 401.22 895.14 544.08 879.96 630.78 1009.20 625.12
00009712 00000105 757.78 159.82 427.20 596.23 824.55 404.24 1005.73 397.90 897.86 541.29 879.16 628.02 1012.63 621.93
00009713 00000106 756.14 155.72 428.43 600.41 824.07 401.09 1004.62 395.27 899.06 537.50 877.79 625.35 1010.32 619.90
00009714 00000107 754.53 154.02 424.83 595.38 821.78 398.85 999.28 393.35 896.37 534.33 875.16 621.78 1003.22 616.79
00009715 00000108 752.27 151.27 422.63 594.57 818.75 398.94 990.84 393.73 889.64 532.30 871.06 619.53 994.19 614.65
00009716 00000109 750.35 149.44 424.17 599.51 816.24 401.26 983.72 394.58 883.34 530.88 868.97 621.53 988.74 615.20
00009717 00000110 750.46 149.95 421.57 603.87 813.42 402.12 979.99 394.87 878.83 531.37 867.49 624.25 990.83 617.41
00009718 00000111 750.58 149.75 421.43 607.91 812.85 403.81 980.45 397.10 877.28 532.34 866.10 624.18 994.31 617.63
00009719 00000112 751.25 151.25 420.84 605.81 812.32 402.13 981.15 396.52 875.94 531.09 863.76 623.13 993.79 617.41
CROP_BBOX: 475 0 1428 919
