Video ID: 	9NW15neA9Jo
H: 	1080
W: 	1920
FPS: 	29.97002997002997

FRAME INDEX X0 Y0 W H [Landmarks (5 Points)]

00089968 00000000 884.39 115.77 402.51 598.08 955.60 358.30 1144.41 428.05 994.14 509.04 925.83 554.60 1090.73 610.88
00089969 00000001 878.05 111.47 409.77 602.82 946.16 352.62 1140.01 424.70 982.84 500.61 916.40 550.34 1084.62 608.28
00089970 00000002 868.99 122.23 420.59 597.12 944.76 352.96 1137.98 417.11 962.27 486.85 913.23 556.04 1072.92 608.54
00089971 00000003 871.56 124.85 410.55 590.20 941.35 346.21 1126.94 410.17 955.52 483.56 911.26 553.59 1061.90 605.82
00089972 DELETE   868.84 114.47 407.75 592.39 939.21 339.81 1117.96 407.56 949.45 480.04 910.83 546.25 1056.68 600.91
00089973 00000005 865.36 112.12 407.12 589.18 937.03 336.74 1113.41 403.06 948.81 473.91 909.00 541.08 1052.58 594.48
00089974 00000006 864.28 101.12 406.12 600.27 935.83 333.81 1113.03 397.43 949.52 468.87 908.63 539.03 1054.23 589.80
00089975 00000007 863.64 108.03 404.23 585.26 933.14 333.29 1110.13 392.51 946.30 465.43 905.23 538.35 1050.29 586.00
00089976 00000008 863.12 106.33 404.46 588.90 932.10 333.22 1109.73 390.99 945.68 463.70 903.92 538.18 1050.32 584.57
00089977 00000009 862.70 104.91 404.16 587.56 931.23 332.30 1108.31 389.67 944.72 462.48 903.01 537.35 1048.51 583.28
00089978 00000010 862.49 103.15 403.04 586.13 930.51 330.70 1107.63 389.17 942.69 460.69 901.09 536.40 1046.15 582.95
00089979 00000011 862.38 101.29 402.00 590.83 929.76 330.10 1106.06 388.19 940.25 460.08 901.26 536.71 1045.22 582.96
00089980 00000012 861.99 96.39 402.27 593.12 928.74 329.94 1104.28 387.03 939.02 459.15 901.79 536.90 1045.04 582.11
00089981 00000013 862.44 94.93 403.03 592.86 928.01 328.99 1104.55 386.26 938.31 457.99 901.24 535.50 1045.72 580.86
00089982 00000014 862.88 95.28 400.44 592.96 928.64 327.72 1104.02 385.08 938.95 457.49 901.63 534.21 1045.29 579.77
00089983 00000015 864.18 92.50 400.07 595.47 928.60 325.57 1106.05 382.67 940.45 457.62 902.40 534.79 1048.19 580.18
00089984 00000016 865.58 89.05 400.70 601.54 928.38 327.76 1107.93 380.45 944.78 457.20 905.92 536.12 1053.93 578.02
00089985 00000017 866.42 90.87 402.81 599.14 931.63 329.70 1113.88 379.94 954.53 458.25 910.84 534.57 1064.46 574.26
00089986 00000018 868.13 90.78 405.73 598.42 936.00 331.44 1124.32 379.19 966.24 459.48 915.81 535.06 1076.16 572.63
00089987 DELETE   868.49 96.84 410.51 593.44 940.80 335.89 1142.35 378.16 983.78 461.12 923.69 538.82 1096.38 572.31
00089988 DELETE   873.32 96.47 410.17 595.33 951.17 342.83 1158.79 377.48 1004.59 465.24 939.55 542.75 1121.91 569.91
00089989 DELETE   878.41 99.21 411.68 612.12 965.30 347.48 1169.27 372.17 1028.75 467.39 956.94 550.29 1138.96 570.02
00089990 00000022 886.27 111.76 409.10 608.04 975.60 349.47 1180.98 365.89 1051.03 467.26 973.03 555.13 1158.83 568.51
00089991 00000023 892.69 110.33 412.27 603.26 988.16 344.84 1198.38 364.07 1075.37 463.11 985.52 551.55 1176.07 566.58
00089992 DELETE   898.24 107.85 409.22 596.78 992.41 345.50 1207.69 359.77 1085.99 461.12 995.54 553.31 1186.57 564.30
00089993 DELETE   901.26 107.60 408.14 593.54 994.75 344.44 1212.48 354.76 1091.98 460.39 1004.22 554.74 1195.84 562.45
00089994 00000026 900.69 104.44 408.25 593.89 997.57 344.18 1214.73 351.89 1098.73 458.47 1011.83 555.04 1201.83 560.30
00089995 00000027 900.16 104.16 408.81 590.32 999.95 343.57 1216.45 349.65 1104.60 456.83 1017.05 555.85 1204.80 559.58
00089996 00000028 899.81 104.32 408.11 589.84 1001.18 342.69 1215.64 348.85 1105.56 455.03 1018.95 554.82 1204.50 558.64
00089997 00000029 899.87 99.19 407.54 591.29 1001.96 340.06 1214.99 346.59 1105.88 451.75 1020.00 551.99 1204.12 555.97
00089998 00000030 898.18 98.21 406.05 590.98 1000.29 338.24 1213.32 343.72 1105.11 449.63 1018.14 549.75 1203.71 552.94
00089999 00000031 897.70 97.68 406.22 591.23 998.89 337.15 1211.30 342.21 1103.51 448.26 1015.83 548.29 1202.33 551.18
00090000 00000032 897.09 98.16 405.93 588.66 997.03 336.70 1211.38 342.11 1101.33 447.30 1013.09 548.95 1200.97 552.05
00090001 00000033 897.42 99.84 406.53 592.59 995.63 337.69 1210.61 342.78 1099.30 449.35 1010.89 550.80 1199.56 553.78
00090002 00000034 898.75 101.41 406.47 596.23 994.45 340.32 1211.08 346.45 1096.48 453.38 1008.82 554.30 1198.98 558.21
00090003 00000035 898.37 106.60 407.24 594.90 993.35 342.65 1210.85 350.16 1094.11 456.43 1004.13 555.06 1196.42 560.53
00090004 00000036 897.78 108.32 408.12 592.42 993.37 342.97 1209.31 351.06 1092.11 457.19 1004.90 555.07 1193.47 561.18
00090005 00000037 899.33 107.23 406.44 585.98 992.63 342.35 1207.66 351.97 1088.69 454.35 1003.46 554.81 1186.28 562.30
00090006 00000038 891.53 101.71 409.47 583.25 987.64 345.07 1197.62 350.21 1078.06 458.13 1002.07 556.13 1175.30 560.66
00090007 00000039 890.46 95.61 411.71 582.07 986.45 340.17 1197.52 348.91 1076.80 454.50 998.38 548.03 1176.25 555.37
00090008 00000040 889.00 95.62 413.39 577.52 985.24 339.15 1196.36 348.86 1074.54 452.22 997.92 545.36 1175.38 553.28
00090009 00000041 887.14 96.61 414.16 580.17 985.22 337.21 1194.65 348.44 1075.05 449.65 994.53 540.59 1174.74 549.95
00090010 00000042 888.15 95.99 412.40 576.65 984.27 338.20 1194.00 348.53 1073.00 449.80 994.54 541.07 1173.09 549.63
00090011 00000043 887.86 95.61 413.84 576.26 982.95 338.36 1193.16 349.86 1069.51 449.91 992.64 541.57 1170.97 551.01
00090012 00000044 887.86 95.07 413.78 576.03 981.98 339.29 1193.56 351.66 1068.44 452.73 991.37 543.07 1170.02 553.27
00090013 00000045 889.24 94.61 413.80 575.63 982.26 339.72 1192.93 351.96 1067.07 453.37 992.17 544.16 1167.66 554.14
00090014 00000046 889.36 94.63 412.68 581.68 982.45 338.19 1191.29 350.87 1065.67 450.61 990.81 543.84 1165.93 554.20
00090015 00000047 896.65 95.62 409.74 596.66 989.93 332.23 1200.01 349.01 1076.87 446.22 986.73 543.82 1169.84 556.89
00090016 00000048 888.19 93.18 415.01 593.70 982.32 336.06 1190.68 350.12 1063.03 450.47 985.55 542.84 1165.03 554.52
00090017 00000049 887.07 92.34 414.90 592.05 980.68 334.42 1189.59 350.10 1060.05 447.93 982.64 539.85 1163.89 552.85
00090018 00000050 886.49 90.60 414.11 589.15 979.37 332.57 1187.11 348.58 1057.12 445.86 980.89 536.84 1161.15 550.15
00090019 00000051 886.87 87.86 413.84 590.20 979.34 332.15 1186.09 347.42 1055.75 444.12 982.05 536.69 1160.05 549.24
00090020 00000052 886.54 86.68 414.55 588.73 979.11 330.11 1186.64 345.78 1054.94 441.50 980.33 534.79 1158.21 547.78
00090021 00000053 887.34 86.97 414.61 586.69 979.29 328.89 1187.32 344.37 1054.96 440.02 979.30 532.48 1159.21 545.42
00090022 00000054 887.52 87.60 413.57 585.31 980.32 326.84 1185.62 342.11 1054.75 438.40 978.43 528.81 1158.65 541.71
00090023 00000055 889.54 86.90 416.34 593.61 980.85 319.53 1186.82 339.47 1063.26 436.53 972.28 530.31 1159.81 546.58
00090024 00000056 887.99 84.41 411.90 588.87 979.12 324.93 1183.98 340.51 1052.57 435.10 976.66 528.01 1156.85 540.97
00090025 00000057 888.92 85.20 414.30 593.38 976.36 315.47 1185.95 334.81 1060.07 434.37 968.58 529.22 1157.09 545.19
00090026 00000058 889.11 84.28 414.58 592.53 975.48 315.06 1183.99 334.47 1057.58 434.23 967.82 528.31 1155.99 544.26
00090027 00000059 888.74 86.06 415.19 593.06 976.03 315.26 1184.55 335.76 1057.62 433.19 966.40 527.49 1155.81 544.37
00090028 00000060 889.11 85.05 415.06 592.41 975.75 315.04 1181.97 337.51 1054.23 433.47 965.66 526.73 1152.64 545.13
00090029 00000061 888.93 87.48 414.93 595.44 976.88 315.89 1181.29 340.72 1052.50 436.63 964.50 527.37 1151.54 547.39
00090030 00000062 888.09 86.57 415.99 602.63 977.15 317.04 1180.44 343.07 1050.54 438.39 962.20 527.05 1151.74 547.59
00090031 00000063 886.93 87.84 416.60 599.55 976.15 316.22 1179.49 343.94 1048.73 437.46 960.09 524.33 1150.23 546.23
00090032 00000064 888.76 86.86 416.35 598.77 977.36 313.64 1180.28 342.90 1047.17 435.11 959.50 522.04 1149.72 545.11
00090033 00000065 888.29 87.34 417.84 597.12 978.82 313.43 1182.26 344.56 1048.99 434.97 958.90 519.38 1151.10 544.02
00090034 00000066 892.01 86.69 420.19 594.58 983.14 313.46 1187.20 346.26 1051.80 434.18 961.02 518.14 1151.87 544.80
00090035 00000067 898.98 88.03 415.21 585.54 994.02 318.35 1192.16 350.19 1056.88 430.49 972.11 513.19 1148.93 540.87
00090036 00000068 893.59 88.38 422.90 591.48 991.54 320.06 1196.67 351.09 1067.30 437.54 969.64 521.18 1157.36 546.69
00090037 00000069 900.91 90.68 415.06 585.80 999.91 325.49 1201.53 353.97 1070.30 435.01 980.81 519.74 1158.33 544.45
00090038 00000070 903.71 94.59 409.89 584.65 1002.49 324.12 1204.39 356.02 1077.31 438.60 988.15 524.63 1168.42 550.01
00090039 00000071 905.80 95.76 407.83 587.70 1003.88 327.55 1206.89 356.76 1080.60 441.63 992.23 528.99 1172.11 552.28
00090040 00000072 905.60 98.61 409.71 582.54 1005.05 328.90 1212.18 356.85 1085.96 441.67 996.42 533.20 1175.21 555.36
00090041 00000073 904.48 96.22 412.26 586.73 1005.58 331.77 1212.65 358.03 1088.90 445.19 999.29 533.96 1180.27 554.50
00090042 00000074 904.36 99.26 412.77 583.25 1007.48 333.86 1213.77 358.36 1093.34 446.26 1003.44 535.02 1183.02 554.29
00090043 00000075 903.85 102.37 413.05 579.27 1007.80 336.80 1214.73 358.58 1096.08 447.69 1009.38 536.88 1186.32 553.97
00090044 00000076 903.53 102.31 412.28 578.72 1008.37 337.51 1216.11 357.69 1099.70 447.36 1012.71 538.85 1189.11 554.49
00090045 00000077 903.43 99.84 413.24 584.98 1009.28 338.30 1217.10 357.13 1102.24 449.40 1015.85 543.05 1189.52 557.76
00090046 00000078 903.08 99.68 412.91 588.55 1009.60 339.50 1217.39 356.39 1104.15 449.47 1019.39 546.35 1191.58 559.50
00090047 00000079 902.90 98.68 412.78 593.88 1010.61 340.46 1218.64 355.95 1107.61 451.29 1021.40 548.11 1195.11 560.19
00090048 00000080 903.66 96.65 412.03 596.49 1011.15 340.69 1219.59 357.08 1107.94 451.78 1021.53 548.84 1194.63 561.53
00090049 00000081 902.32 98.88 412.77 596.07 1010.32 342.84 1218.06 357.43 1108.18 453.54 1020.58 548.55 1196.08 559.83
00090050 00000082 900.98 98.26 414.57 600.74 1009.15 343.41 1218.68 357.67 1108.24 455.62 1018.29 549.73 1198.18 560.67
00090051 00000083 900.17 98.42 413.72 592.92 1007.44 344.14 1218.96 356.71 1109.13 455.24 1020.59 552.58 1199.88 561.71
00090052 00000084 900.37 98.94 412.72 594.39 1006.72 344.12 1218.30 356.47 1107.68 455.50 1018.90 552.19 1199.44 561.30
00090053 00000085 900.68 99.02 412.38 596.60 1006.53 344.00 1218.28 356.97 1106.92 455.48 1017.58 551.90 1199.03 561.62
00090054 00000086 900.76 99.56 411.82 596.66 1006.09 344.51 1218.23 357.65 1106.29 455.70 1016.39 551.85 1199.21 561.70
00090055 00000087 900.91 98.65 411.64 597.22 1006.04 345.90 1218.89 358.84 1106.48 456.10 1016.78 552.34 1199.99 561.94
00090056 00000088 900.89 101.19 411.92 595.63 1005.79 347.01 1219.21 359.94 1105.75 456.92 1016.69 552.97 1200.43 562.54
00090057 00000089 900.40 102.43 412.88 593.84 1005.65 346.40 1219.07 359.46 1105.67 457.11 1016.57 553.42 1200.30 563.12
00090058 00000090 900.59 100.71 413.78 597.68 1006.23 346.73 1219.82 360.26 1106.60 458.25 1016.34 553.73 1200.47 563.82
00090059 00000091 901.76 99.66 412.83 600.60 1007.18 346.98 1220.55 361.45 1107.11 459.36 1016.37 554.17 1200.76 565.00
00090060 00000092 902.19 97.53 412.97 603.20 1007.65 347.08 1221.79 362.45 1106.96 459.27 1016.69 554.60 1201.33 566.06
00090061 00000093 903.15 99.30 412.58 598.76 1008.32 347.81 1222.44 362.62 1107.91 459.10 1018.62 555.55 1201.41 566.59
00090062 00000094 903.06 97.12 412.38 590.40 1009.35 348.48 1222.41 361.88 1110.68 457.40 1021.62 555.10 1202.13 564.67
00090063 00000095 902.01 98.00 413.73 596.32 1011.17 347.79 1222.47 363.80 1111.26 457.52 1018.56 550.16 1199.19 562.46
00090064 00000096 902.60 99.19 414.31 598.90 1013.02 348.38 1222.71 363.79 1113.25 458.14 1020.26 550.70 1199.69 562.67
00090065 00000097 904.47 95.20 412.18 604.44 1013.67 348.03 1225.95 364.50 1114.46 459.88 1021.64 554.08 1202.70 566.60
00090066 00000098 904.40 93.31 412.78 621.83 1012.27 349.19 1225.66 366.55 1112.52 461.37 1015.53 555.33 1205.27 568.56
00090067 00000099 905.34 93.31 412.42 621.37 1013.05 350.10 1225.16 367.75 1112.05 462.42 1016.32 555.53 1204.45 569.13
00090068 00000100 905.26 94.04 412.69 620.81 1013.66 349.91 1225.58 367.60 1112.73 462.83 1016.35 554.76 1205.17 568.36
00090069 00000101 904.72 95.59 413.04 619.56 1014.21 350.01 1225.82 367.64 1113.20 462.93 1016.24 554.28 1205.59 567.85
00090070 00000102 904.47 95.74 413.20 618.49 1014.05 349.59 1225.83 367.41 1113.22 462.43 1015.52 552.62 1206.38 566.19
00090071 00000103 904.32 92.85 413.96 621.31 1014.19 349.80 1226.28 367.83 1113.64 462.74 1015.37 551.85 1207.83 565.47
00090072 00000104 904.90 93.11 412.78 617.36 1013.50 349.66 1227.06 367.12 1113.72 462.81 1015.89 551.75 1208.83 564.82
00090073 00000105 905.01 93.89 412.66 615.98 1013.37 349.69 1227.52 367.16 1113.60 463.42 1015.85 551.88 1209.08 564.96
00090074 00000106 904.61 92.61 412.93 620.33 1013.13 349.71 1226.40 366.96 1113.22 462.95 1014.89 552.29 1208.47 565.13
00090075 00000107 904.38 92.68 413.19 620.41 1012.62 349.86 1225.03 366.83 1112.21 462.70 1014.86 552.47 1207.88 565.02
00090076 00000108 903.14 92.63 413.47 619.81 1010.74 349.40 1223.92 366.23 1110.33 462.27 1013.31 552.79 1206.72 565.23
00090077 00000109 902.59 91.52 413.14 619.33 1009.70 349.15 1222.13 365.76 1108.78 462.14 1012.11 551.79 1205.36 564.02
00090078 00000110 902.66 91.82 412.62 615.48 1008.23 349.47 1221.25 365.98 1106.73 461.73 1011.00 551.24 1204.08 563.43
00090079 00000111 901.50 92.63 412.63 612.20 1006.84 349.06 1221.71 365.13 1106.50 461.56 1010.52 551.04 1204.80 562.82
00090080 00000112 900.85 94.02 412.48 608.61 1006.25 349.58 1222.38 365.14 1106.58 461.40 1010.27 551.30 1205.14 562.79
00090081 00000113 900.56 93.92 412.65 607.71 1005.75 349.05 1222.52 364.98 1106.47 461.51 1009.09 550.76 1204.72 562.56
00090082 00000114 899.50 96.48 412.92 604.93 1005.77 349.06 1222.46 365.56 1106.22 461.33 1008.09 549.48 1204.53 561.88
00090083 00000115 899.54 97.67 412.18 600.73 1004.84 349.10 1221.66 364.67 1106.02 460.68 1008.53 549.76 1203.75 561.33
00090084 00000116 899.19 98.94 412.18 602.09 1004.17 348.96 1222.10 365.02 1105.33 461.99 1006.12 549.29 1203.97 561.52
00090085 00000117 899.68 99.31 411.80 602.68 1003.93 348.22 1220.76 363.83 1104.32 462.20 1005.14 548.61 1203.13 560.57
00090086 00000118 898.56 98.92 411.81 603.65 1004.20 347.51 1219.70 362.62 1104.40 461.01 1005.13 548.94 1201.21 560.58
00090087 00000119 897.98 100.38 411.15 602.61 1003.42 345.79 1218.48 360.86 1103.94 461.01 1004.00 548.69 1200.56 560.33
00090088 00000120 897.85 100.00 410.93 602.45 1003.04 345.65 1217.54 360.79 1102.39 460.53 1003.22 547.63 1199.89 559.42
00090089 00000121 897.82 100.02 410.69 600.90 1003.38 344.90 1217.22 361.48 1101.18 459.34 1002.90 546.27 1198.31 559.15
00090090 00000122 897.48 101.64 411.32 600.55 1003.14 343.88 1217.17 361.01 1100.41 458.58 1001.54 545.24 1198.19 558.58
00090091 00000123 897.56 98.06 411.22 602.60 1003.02 341.68 1216.28 359.57 1099.25 456.50 1000.43 543.52 1196.76 557.28
00090092 00000124 897.66 97.93 410.77 601.76 1003.21 340.24 1214.78 359.45 1097.52 455.34 1000.28 542.18 1194.32 557.08
00090093 00000125 897.64 98.68 410.17 598.80 1003.89 337.85 1213.09 358.53 1096.33 453.69 999.57 538.82 1192.41 554.90
00090094 00000126 898.02 97.31 409.86 599.26 1003.96 336.46 1211.38 358.21 1094.59 451.23 998.27 536.50 1189.77 553.36
00090095 00000127 897.74 99.07 407.99 597.16 1002.76 334.44 1209.66 356.20 1092.74 449.27 994.33 533.98 1187.47 551.10
00090096 00000128 898.33 95.95 407.62 604.40 1001.34 332.47 1206.81 353.68 1089.26 447.55 989.37 532.78 1184.46 549.59
00090097 00000129 897.65 94.43 407.66 606.24 1001.50 330.48 1204.03 352.61 1086.98 444.88 986.58 530.65 1179.98 548.21
00090098 00000130 894.40 93.69 410.27 607.67 997.52 329.35 1199.48 352.49 1080.27 443.55 981.90 528.83 1176.60 546.98
00090099 00000131 885.20 94.04 413.67 598.82 989.47 326.20 1192.51 347.03 1070.24 442.13 978.70 526.36 1170.01 544.16
00090100 00000132 884.06 94.21 412.82 591.99 985.48 322.30 1187.44 346.51 1059.86 437.77 971.16 520.58 1160.84 541.17
00090101 00000133 879.79 92.41 415.58 584.39 979.18 318.50 1181.30 346.34 1049.40 436.66 962.06 513.95 1152.05 537.59
00090102 00000134 876.92 93.67 420.99 588.85 970.66 316.30 1177.63 350.18 1049.00 443.21 951.01 515.86 1147.20 543.25
00090103 00000135 878.03 89.87 421.65 588.68 968.14 314.00 1175.39 351.02 1042.39 442.14 946.18 514.42 1143.53 544.45
00090104 00000136 876.86 91.48 421.56 586.12 965.89 311.96 1172.67 349.86 1038.68 440.89 945.54 514.42 1138.92 545.28
00090105 00000137 876.97 90.06 422.96 592.05 965.21 310.73 1169.70 349.47 1033.74 439.75 944.71 515.09 1133.84 546.12
00090106 00000138 878.16 81.70 417.09 594.70 969.18 310.70 1166.44 347.24 1020.73 428.46 946.05 506.32 1129.83 536.19
00090107 00000139 879.72 84.04 415.20 593.76 969.18 309.77 1164.71 348.05 1017.56 426.03 945.81 505.12 1128.40 536.39
00090108 00000140 880.73 82.46 413.49 595.82 967.91 308.36 1162.85 347.27 1013.95 425.43 945.45 504.67 1127.04 536.24
00090109 00000141 881.42 80.14 412.71 601.19 968.80 307.73 1162.49 347.01 1013.01 425.17 946.00 505.56 1126.62 537.17
00090110 00000142 881.11 76.16 412.88 607.28 969.20 308.29 1163.14 349.06 1013.11 426.93 945.22 506.44 1126.22 539.28
00090111 00000143 880.63 82.40 417.08 594.50 965.55 306.08 1163.56 352.71 1021.25 435.16 943.35 510.05 1127.25 547.02
00090112 00000144 880.83 80.32 414.51 594.75 967.38 303.35 1167.06 356.10 1024.12 435.58 937.55 506.10 1121.72 549.00
00090113 00000145 883.13 82.15 412.65 591.42 967.79 303.17 1166.32 356.82 1023.18 434.22 937.88 505.33 1121.36 548.90
00090114 00000146 882.45 75.77 415.27 600.82 966.03 301.69 1166.01 356.53 1017.05 431.93 935.17 505.71 1120.41 549.74
00090115 00000147 885.47 74.01 416.71 592.51 975.75 294.44 1161.73 350.43 1010.12 414.70 942.60 492.05 1103.07 538.77
00090116 00000148 882.73 72.64 417.00 588.31 974.09 287.69 1158.24 346.12 1006.12 408.20 937.65 485.07 1095.27 533.68
00090117 00000149 880.34 69.32 418.11 585.00 965.42 285.47 1159.39 339.10 992.55 403.53 927.93 481.76 1099.75 524.27
00090118 00000150 881.43 65.66 419.25 597.53 965.09 283.21 1158.96 336.37 989.55 403.33 927.56 486.13 1098.40 528.43
00090119 00000151 882.59 63.67 414.74 595.68 963.59 286.99 1156.01 340.08 987.60 407.43 926.85 490.19 1094.42 532.54
00090120 00000152 886.35 65.74 411.56 600.38 967.38 288.35 1156.79 346.33 985.17 410.14 927.31 491.90 1094.05 537.80
00090121 00000153 886.00 75.72 413.56 592.28 969.15 290.76 1156.04 348.84 984.39 414.66 929.81 494.43 1091.15 540.81
00090122 DELETE   887.63 76.32 412.33 589.59 969.23 293.66 1153.30 354.93 982.27 417.49 927.37 495.98 1082.21 544.99
00090123 00000155 885.56 71.37 417.80 594.12 969.78 291.95 1151.45 359.78 979.01 423.64 923.48 494.73 1074.53 548.48
00090124 00000156 887.58 86.28 408.23 585.49 965.59 290.44 1137.28 363.22 982.92 420.44 919.68 489.78 1066.01 549.44
00090125 00000157 881.23 81.71 415.01 588.75 959.03 285.30 1141.15 362.11 983.92 419.43 920.71 489.64 1081.85 551.69
00090126 00000158 879.55 81.94 414.93 587.22 957.15 284.12 1141.52 359.43 983.79 416.23 920.59 489.09 1084.09 549.91
00090127 00000159 876.96 76.13 427.25 586.84 968.02 284.67 1144.04 355.71 980.48 413.37 922.76 484.68 1069.95 542.79
00090128 00000160 873.32 78.66 430.45 587.03 968.90 285.64 1143.48 356.89 981.53 414.34 922.91 482.90 1070.66 541.37
00090129 00000161 875.05 74.17 427.99 590.76 967.76 288.94 1141.89 357.90 983.07 416.12 924.09 485.10 1069.68 541.65
00090130 00000162 878.55 69.79 422.81 593.93 964.05 292.04 1150.88 356.27 979.43 422.66 921.39 488.53 1086.93 539.30
00090131 00000163 876.38 79.84 426.89 591.07 967.48 294.61 1142.99 366.90 984.01 429.80 925.67 490.92 1074.40 550.30
00090132 00000164 878.15 77.24 425.05 592.80 963.86 299.12 1152.38 360.25 980.29 427.95 922.81 496.70 1088.75 544.84
00090133 00000165 875.58 79.94 429.14 593.05 963.05 300.86 1151.30 361.82 979.28 430.22 921.86 497.89 1087.45 546.43
00090134 00000166 874.32 79.21 427.17 593.74 962.22 298.39 1148.75 360.35 977.69 429.55 920.42 497.05 1085.33 546.14
