Video ID: 	oLfi5mtOeeQ
H: 	1080
W: 	1920
FPS: 	25.0

FRAME INDEX X0 Y0 W H [Landmarks (5 Points)]

00005827 00000000 1059.43 99.77 406.23 619.02 1125.17 358.54 1283.74 384.82 1146.26 477.27 1123.82 573.84 1242.46 594.87
00005828 00000001 1061.65 103.72 409.12 616.78 1127.50 357.20 1284.66 385.12 1145.30 476.85 1123.97 572.74 1240.71 595.59
00005829 00000002 1074.15 113.71 404.11 612.14 1135.72 354.90 1291.68 388.23 1147.17 481.21 1129.20 574.87 1245.06 603.30
00005830 00000003 1092.61 106.54 390.28 621.23 1144.53 346.49 1301.88 388.31 1165.39 485.15 1144.82 569.24 1261.49 603.75
00005831 00000004 1098.25 114.13 406.22 623.66 1157.07 350.86 1327.39 391.64 1176.97 479.73 1152.67 573.89 1272.36 605.89
00005832 00000005 1110.62 111.35 411.21 619.96 1169.77 351.24 1322.47 387.61 1178.77 484.00 1173.14 571.68 1288.44 600.30
00005833 00000006 1120.28 118.86 418.15 628.26 1183.27 362.06 1334.32 397.78 1187.10 497.78 1185.55 582.92 1301.30 612.30
00005834 00000007 1142.13 151.83 403.42 592.03 1185.85 366.24 1343.09 407.51 1198.57 505.74 1184.53 594.08 1291.92 627.58
00005835 00000008 1155.51 167.03 402.97 573.29 1196.08 366.33 1349.33 407.92 1206.80 509.23 1195.39 588.60 1305.78 622.26
00005836 00000009 1166.71 149.37 400.04 585.77 1206.54 367.26 1361.93 407.42 1217.76 511.57 1209.19 586.68 1324.44 619.47
00005837 00000010 1173.57 150.87 405.50 585.89 1216.62 368.22 1372.94 414.82 1224.95 512.68 1218.46 585.66 1330.78 622.86
00005838 00000011 1176.34 138.16 413.73 611.96 1223.30 375.74 1379.91 416.55 1236.34 516.37 1230.64 594.65 1338.35 627.85
00005839 00000012 1183.45 138.49 411.14 617.86 1236.11 380.81 1393.52 424.61 1245.85 517.45 1234.19 592.42 1348.75 628.01
00005840 00000013 1196.94 154.80 404.84 603.59 1256.73 378.60 1408.33 432.82 1257.37 522.59 1241.59 590.02 1358.55 632.31
00005841 00000014 1205.63 159.78 401.82 600.00 1271.95 383.83 1421.47 434.53 1273.15 519.29 1249.92 591.78 1365.98 631.47
00005842 DELETE   1213.58 167.61 410.66 594.71 1284.21 386.95 1437.52 437.83 1283.16 519.57 1261.10 593.63 1380.52 633.60
00005843 DELETE   1226.49 143.49 407.47 616.91 1289.63 370.46 1449.04 436.91 1300.46 521.03 1268.02 589.53 1380.46 644.64
00005844 00000017 1231.84 130.70 408.67 630.04 1299.67 376.56 1476.54 434.12 1317.38 521.51 1278.44 601.28 1407.55 647.70
00005845 00000018 1247.90 134.71 412.21 622.30 1321.51 380.66 1487.80 434.48 1342.60 523.46 1302.15 595.45 1422.92 639.95
00005846 00000019 1249.28 142.59 416.95 618.90 1331.16 380.80 1498.92 438.66 1353.71 524.87 1306.55 591.62 1435.95 638.64
00005847 00000020 1257.63 153.73 411.22 601.04 1339.64 380.87 1506.05 439.45 1358.03 524.30 1314.61 587.10 1441.49 634.32
00005848 00000021 1261.80 154.74 407.37 595.21 1343.57 378.55 1516.31 436.63 1367.09 523.90 1317.06 585.64 1446.62 632.69
00005849 00000022 1264.50 153.89 408.55 595.95 1347.98 377.23 1521.63 433.70 1372.81 521.75 1320.66 584.85 1451.88 630.77
00005850 00000023 1267.66 145.39 408.86 609.64 1351.71 376.28 1526.07 429.33 1377.32 519.21 1327.22 587.02 1458.69 630.16
00005851 00000024 1269.02 145.86 412.31 609.66 1353.20 375.95 1530.50 424.99 1380.79 515.85 1328.77 591.30 1460.45 631.59
00005852 00000025 1275.08 126.61 412.77 630.26 1356.07 374.01 1525.83 422.14 1380.36 510.57 1343.10 593.62 1473.53 634.66
00005853 00000026 1275.65 124.63 409.38 624.35 1356.68 366.07 1525.67 409.58 1379.91 498.29 1344.75 585.21 1474.48 622.33
00005854 00000027 1272.01 116.69 410.11 633.13 1357.32 365.55 1526.65 401.77 1386.66 486.40 1343.66 585.57 1470.55 616.96
00005855 00000028 1265.66 118.84 403.65 631.93 1342.38 358.23 1521.13 387.99 1378.09 480.01 1326.34 585.88 1453.40 612.28
00005856 00000029 1255.42 112.66 406.10 624.35 1342.37 348.71 1514.25 382.52 1376.06 466.95 1327.13 571.14 1450.86 599.73
00005857 00000030 1239.86 105.01 408.50 634.64 1325.26 349.41 1501.92 374.74 1367.65 462.10 1311.89 574.02 1434.00 596.72
00005858 00000031 1227.88 119.88 402.09 621.73 1312.46 354.42 1494.94 382.17 1358.57 467.51 1300.48 578.77 1437.41 602.73
00005859 00000032 1219.10 120.94 396.12 626.93 1302.02 356.42 1478.43 381.92 1346.11 466.05 1292.12 579.80 1427.92 602.27
00005860 00000033 1204.85 121.19 405.13 625.82 1291.54 361.58 1466.96 386.85 1340.72 470.51 1284.27 577.82 1420.24 600.11
00005861 00000034 1198.27 131.37 406.41 609.71 1282.40 361.99 1454.98 382.00 1330.03 469.06 1278.97 572.17 1415.84 589.85
00005862 00000035 1189.34 110.92 412.06 621.72 1272.88 361.90 1449.15 379.27 1320.49 473.84 1273.57 569.91 1414.55 584.51
00005863 00000036 1186.37 106.98 411.12 632.72 1268.14 368.50 1443.44 382.90 1317.26 476.01 1268.37 572.64 1411.16 584.67
00005864 00000037 1185.70 110.17 407.64 630.68 1266.04 370.55 1438.80 386.23 1313.22 481.76 1270.55 577.38 1406.20 590.98
00005865 00000038 1181.34 107.32 408.00 650.93 1260.72 379.59 1429.73 394.58 1307.47 487.62 1264.65 584.33 1401.38 597.29
00005866 00000039 1167.72 139.44 414.11 619.14 1247.24 386.71 1425.41 398.19 1299.10 493.47 1248.70 590.02 1396.01 599.60
00005867 00000040 1160.90 162.35 416.40 593.68 1238.25 387.38 1420.75 406.56 1291.60 506.83 1241.19 586.93 1391.70 602.47
00005868 00000041 1150.03 153.86 416.18 604.88 1237.22 395.88 1420.98 415.87 1292.24 513.03 1232.63 590.12 1399.60 605.94
00005869 00000042 1144.82 153.31 412.68 613.28 1230.06 407.42 1413.52 426.05 1287.21 523.80 1225.28 596.68 1394.98 610.96
00005870 00000043 1134.86 170.59 420.04 610.18 1220.37 415.61 1408.30 431.64 1280.86 533.47 1218.01 601.30 1397.61 613.12
00005871 00000044 1132.27 170.51 423.43 622.55 1218.41 420.90 1403.81 436.34 1277.65 539.23 1217.90 606.45 1399.87 617.75
00005872 00000045 1135.29 172.72 419.63 629.00 1219.04 420.49 1396.75 441.00 1268.82 543.95 1219.99 618.02 1385.28 633.89
00005873 00000046 1148.89 166.89 402.54 623.93 1211.73 414.56 1384.15 444.02 1255.82 551.73 1219.22 630.70 1352.53 655.43
00005874 00000047 1146.55 166.24 399.63 609.08 1214.98 413.86 1381.84 448.68 1243.54 546.38 1210.25 629.05 1339.45 657.16
00005875 00000048 1149.83 161.29 396.28 596.55 1219.72 401.74 1379.70 447.54 1235.40 536.90 1198.60 612.58 1322.36 648.84
00005876 00000049 1155.95 151.36 394.38 616.24 1215.03 386.55 1375.02 444.31 1235.82 531.78 1189.61 606.13 1309.58 655.09
00005877 00000050 1156.22 160.80 394.80 598.22 1214.69 378.91 1368.33 443.50 1225.84 525.24 1189.03 596.19 1301.28 650.00
00005878 00000051 1154.80 168.10 395.29 600.02 1219.08 373.21 1366.15 447.54 1218.03 517.81 1183.84 590.63 1289.37 652.49
00005879 00000052 1147.31 165.11 407.62 600.57 1224.96 384.59 1365.44 446.16 1210.63 517.73 1188.57 594.85 1292.09 644.36
00005880 00000053 1162.02 167.86 403.51 614.83 1223.29 383.14 1358.14 460.93 1198.40 518.22 1187.64 590.72 1292.64 654.37
00005881 00000054 1169.38 177.46 395.67 597.05 1227.03 386.08 1354.50 463.42 1206.72 524.24 1197.37 591.72 1293.22 654.58
00005882 00000055 1170.89 185.83 397.78 586.63 1231.94 387.27 1363.12 467.90 1210.56 526.31 1196.81 597.49 1292.87 663.06
00005883 00000056 1174.05 187.83 394.76 585.92 1234.90 391.72 1364.62 467.96 1216.82 532.80 1207.00 606.50 1298.78 667.89
00005884 00000057 1174.98 182.83 394.68 591.85 1233.58 385.88 1364.33 464.47 1213.63 530.15 1205.49 603.68 1302.86 666.90
00005885 00000058 1164.52 183.49 407.35 596.75 1232.76 380.00 1372.95 462.91 1215.74 522.37 1193.69 592.44 1300.92 660.28
00005886 00000059 1163.23 182.09 407.76 592.95 1230.91 376.12 1367.72 456.61 1209.32 515.72 1190.04 588.40 1293.83 654.21
00005887 00000060 1160.80 177.13 405.88 596.70 1226.02 376.18 1362.53 456.47 1204.48 516.72 1188.76 588.06 1292.99 653.63
00005888 00000061 1164.51 172.36 399.95 607.74 1220.12 380.22 1357.40 460.82 1199.72 524.82 1189.29 594.92 1295.28 660.65
00005889 00000062 1145.56 192.36 413.57 588.94 1227.15 389.26 1356.85 456.10 1195.61 526.55 1188.96 604.39 1289.12 657.62
00005890 00000063 1147.63 181.18 412.44 590.31 1225.04 384.62 1352.90 452.59 1189.48 521.15 1187.35 598.98 1286.42 652.96
00005891 00000064 1150.76 183.02 409.95 583.65 1228.54 383.89 1354.74 452.03 1193.48 519.89 1190.20 592.55 1291.16 646.70
00005892 00000065 1151.01 176.80 410.47 584.75 1230.00 383.91 1356.09 452.83 1195.07 517.78 1189.72 590.53 1290.32 645.16
00005893 00000066 1144.67 186.85 415.38 579.53 1229.03 389.72 1353.41 457.07 1193.52 519.68 1185.91 593.67 1283.24 647.28
00005894 00000067 1139.80 197.98 417.10 577.25 1226.56 394.62 1348.61 463.78 1190.15 525.62 1183.11 600.07 1278.39 654.54
00005895 00000068 1139.37 195.42 416.45 582.34 1222.59 394.89 1347.13 470.39 1186.02 531.94 1180.64 604.09 1275.77 663.46
00005896 00000069 1147.38 203.65 414.54 581.18 1217.10 388.43 1361.07 485.05 1186.81 518.68 1173.85 588.85 1287.03 665.25
00005897 00000070 1162.68 197.99 395.07 585.17 1221.09 399.14 1343.14 498.26 1193.90 542.61 1184.09 601.26 1272.29 680.45
00005898 00000071 1167.70 195.90 390.29 576.78 1227.43 397.91 1346.25 504.28 1200.31 549.62 1193.02 593.11 1283.56 677.71
00005899 00000072 1166.93 195.77 401.56 579.69 1233.76 400.38 1359.44 505.08 1209.67 549.39 1197.20 593.99 1296.75 677.89
00005900 00000073 1164.20 199.06 414.61 580.24 1238.83 405.14 1365.12 503.15 1218.05 552.92 1200.19 603.57 1295.58 682.05
00005901 00000074 1170.84 200.25 416.18 575.96 1240.68 404.59 1366.86 495.23 1215.12 549.11 1205.69 605.79 1302.61 677.77
00005902 00000075 1169.95 204.62 413.96 566.38 1243.60 403.56 1370.53 497.42 1217.07 548.02 1205.26 600.20 1303.23 675.04
00005903 00000076 1174.71 213.24 410.50 559.91 1244.57 407.19 1370.87 495.76 1216.88 550.86 1207.01 607.95 1304.77 678.16
00005904 00000077 1171.25 235.24 413.87 550.62 1244.65 413.90 1378.23 506.39 1218.36 564.45 1208.31 612.89 1317.90 685.87
00005905 00000078 1168.08 220.72 416.66 581.19 1228.99 424.29 1380.67 513.62 1205.66 564.31 1199.61 630.66 1300.20 703.39
00005906 00000079 1168.22 225.30 415.34 574.57 1222.22 439.18 1366.70 523.31 1198.63 574.65 1199.83 634.34 1300.19 702.75
00005907 00000080 1168.65 231.33 414.87 579.56 1218.62 448.39 1359.17 531.58 1190.34 587.45 1198.29 656.40 1287.37 724.12
00005908 00000081 1169.98 243.87 406.77 554.14 1219.51 447.37 1351.50 540.78 1190.02 590.75 1196.38 641.27 1285.33 716.77
00005909 00000082 1165.42 247.78 406.10 551.64 1221.02 448.42 1354.11 549.34 1197.20 594.77 1191.23 635.65 1287.07 717.19
00005910 00000083 1165.43 249.53 407.81 552.97 1218.01 448.42 1354.95 548.86 1194.61 594.31 1187.57 636.76 1288.84 718.01
00005911 00000084 1168.34 244.02 403.99 550.12 1226.86 444.54 1356.53 542.82 1207.37 597.24 1195.83 633.68 1292.50 711.15
00005912 00000085 1172.96 248.86 400.86 543.86 1228.41 441.19 1357.85 540.88 1206.96 595.28 1199.09 632.85 1295.47 711.37
00005913 00000086 1176.58 245.60 399.77 554.00 1230.48 446.02 1355.84 538.61 1208.64 599.49 1207.47 646.14 1291.84 719.18
00005914 00000087 1171.24 253.73 401.25 540.28 1227.26 450.33 1351.21 542.40 1206.11 598.33 1201.36 643.47 1285.85 715.98
00005915 00000088 1169.39 257.47 400.03 544.02 1222.29 454.90 1346.41 545.25 1199.76 602.18 1201.89 646.66 1288.63 716.92
00005916 00000089 1168.08 256.61 398.59 552.07 1222.86 461.72 1340.75 546.39 1199.37 602.11 1203.94 655.33 1281.75 721.16
00005917 00000090 1166.14 253.05 400.73 562.55 1217.37 466.34 1337.43 546.89 1194.06 605.59 1202.00 667.33 1276.31 729.48
00005918 00000091 1166.98 261.43 401.76 555.49 1218.41 465.54 1344.47 541.63 1204.83 606.59 1202.49 674.45 1279.89 733.17
00005919 00000092 1165.98 263.40 401.55 542.25 1221.72 454.42 1347.77 542.85 1205.11 600.34 1201.57 654.56 1284.52 723.04
00005920 00000093 1166.96 232.46 397.47 563.41 1209.94 445.79 1349.39 533.52 1189.27 591.18 1195.45 632.54 1298.32 703.87
00005921 00000094 1164.10 236.83 406.86 563.22 1219.40 436.06 1353.60 525.62 1202.14 591.37 1199.68 636.22 1312.69 705.11
00005922 00000095 1165.44 239.93 407.38 558.25 1227.21 430.12 1355.19 517.72 1209.34 580.69 1206.49 631.16 1299.54 700.67
00005923 00000096 1160.45 242.28 411.56 548.14 1213.40 428.69 1365.66 519.18 1194.52 573.07 1190.06 630.11 1307.54 700.44
00005924 00000097 1165.70 230.20 406.15 569.18 1213.90 439.51 1357.92 521.27 1196.04 576.86 1198.59 630.10 1303.33 696.08
00005925 00000098 1162.62 238.15 404.62 549.93 1221.97 428.43 1354.64 522.21 1203.53 585.04 1203.64 622.73 1315.41 694.81
00005926 00000099 1167.76 227.46 402.38 556.55 1219.67 424.25 1367.64 511.45 1205.38 570.52 1200.92 611.42 1313.65 682.14
00005927 00000100 1173.14 208.38 400.74 563.77 1234.21 408.03 1362.48 500.57 1214.85 560.91 1210.26 602.19 1312.96 674.60
00005928 00000101 1174.91 199.92 410.91 570.96 1236.63 395.87 1370.28 487.75 1213.64 548.53 1210.33 596.87 1315.89 669.64
00005929 00000102 1179.19 204.53 407.89 564.14 1241.88 396.75 1375.13 477.23 1220.73 540.95 1217.75 599.93 1320.03 663.60
00005930 00000103 1177.29 206.26 408.05 567.36 1240.35 397.19 1375.51 478.32 1219.83 543.13 1215.45 602.69 1317.71 667.06
00005931 00000104 1175.38 201.60 410.82 569.28 1241.14 396.94 1375.05 481.66 1220.97 543.40 1214.60 597.84 1315.00 665.35
00005932 00000105 1176.43 193.07 406.04 568.54 1239.20 396.25 1372.94 484.15 1220.97 545.43 1214.13 592.66 1316.27 662.92
00005933 00000106 1175.70 187.40 407.73 581.21 1238.13 396.60 1370.10 485.75 1219.19 548.27 1214.80 596.30 1317.23 667.69
00005934 00000107 1177.84 190.80 403.88 576.95 1239.45 397.57 1370.89 482.21 1219.99 545.61 1216.18 599.03 1316.73 666.63
00005935 00000108 1178.50 193.02 403.44 578.32 1238.60 397.34 1372.19 480.93 1220.09 548.18 1217.97 602.86 1319.47 669.52
00005936 00000109 1179.82 192.63 402.43 574.14 1237.19 396.40 1370.13 483.79 1217.09 549.95 1218.19 599.38 1321.74 668.64
00005937 00000110 1176.00 198.67 408.63 577.04 1237.88 400.39 1374.87 488.88 1219.53 557.03 1218.91 601.78 1328.71 672.06
00005938 00000111 1171.05 210.45 413.25 575.79 1237.42 407.68 1375.93 494.76 1221.21 563.96 1219.03 606.43 1334.30 675.14
00005939 00000112 1175.02 199.80 410.13 583.64 1236.39 406.27 1373.34 492.45 1220.10 565.10 1222.46 606.32 1336.67 674.02
00005940 00000113 1176.72 219.88 406.54 562.23 1237.11 407.03 1377.91 491.60 1219.61 565.30 1219.50 605.84 1336.42 672.28
00005941 00000114 1181.52 215.92 406.34 564.30 1239.54 406.12 1378.76 488.05 1219.20 560.60 1222.34 607.12 1335.06 671.37
00005942 00000115 1183.93 212.00 404.31 563.89 1241.88 403.98 1378.25 484.60 1219.10 556.53 1224.93 607.65 1332.66 670.96
00005943 00000116 1184.21 215.49 406.82 556.72 1243.46 403.23 1378.61 482.26 1218.68 555.19 1226.55 610.37 1330.36 672.24
00005944 00000117 1184.95 203.79 407.80 561.87 1247.81 398.15 1379.77 485.07 1220.87 551.62 1226.44 601.55 1328.55 669.85
00005945 00000118 1185.94 207.13 406.93 560.91 1248.02 397.76 1378.53 481.31 1221.28 549.13 1227.31 600.99 1329.07 666.61
00005946 00000119 1188.43 207.70 405.91 560.28 1248.91 397.71 1378.72 481.60 1220.06 549.39 1229.51 602.10 1329.90 667.87
00005947 00000120 1185.12 213.41 405.32 554.31 1243.21 402.58 1378.99 480.93 1220.62 555.88 1228.43 608.90 1333.26 670.43
00005948 00000121 1181.83 220.65 407.04 547.12 1239.73 406.22 1378.18 484.52 1219.22 561.51 1226.03 610.39 1335.92 671.48
00005949 00000122 1176.59 219.12 408.30 550.15 1236.66 408.06 1375.31 495.57 1219.46 567.97 1219.73 608.89 1332.72 676.72
00005950 00000123 1175.91 219.14 407.97 564.47 1222.50 417.73 1382.82 502.26 1217.48 577.26 1213.01 616.32 1332.59 684.92
00005951 00000124 1171.54 216.72 411.59 574.66 1221.93 431.21 1379.47 510.22 1216.98 579.19 1209.18 622.97 1329.37 687.38
00005952 00000125 1168.31 221.12 411.82 576.84 1217.01 438.00 1370.17 514.24 1206.48 578.85 1207.11 631.68 1318.76 693.19
00005953 00000126 1168.13 222.05 411.35 584.11 1210.67 441.91 1364.64 516.56 1197.61 582.98 1203.05 640.10 1314.44 700.32
00005954 00000127 1170.52 229.25 401.80 567.43 1210.26 444.56 1355.11 523.94 1193.43 584.40 1200.37 633.33 1307.14 697.79
00005955 00000128 1172.60 224.82 392.09 573.08 1210.07 446.34 1352.26 526.02 1190.58 585.60 1200.25 635.89 1303.69 700.65
00005956 00000129 1172.17 226.02 393.23 568.95 1209.58 445.13 1351.93 525.31 1190.82 585.63 1200.17 636.53 1302.26 701.48
00005957 00000130 1170.87 226.29 390.82 565.00 1208.13 441.57 1351.45 526.20 1189.79 586.34 1195.07 632.75 1298.00 701.42
00005958 00000131 1173.22 238.22 390.18 556.24 1224.08 435.62 1348.24 526.17 1203.16 589.24 1203.35 635.76 1293.74 706.38
00005959 00000132 1167.57 238.39 392.41 567.96 1217.93 443.46 1344.64 527.76 1201.60 590.36 1196.68 646.01 1285.17 712.00
00005960 00000133 1164.68 242.36 390.29 559.70 1213.71 445.22 1341.13 530.29 1196.13 589.35 1192.93 642.74 1285.21 709.03
00005961 00000134 1162.93 231.18 391.70 577.90 1210.91 445.38 1335.10 533.11 1186.14 590.27 1193.35 644.89 1283.29 712.83
00005962 00000135 1162.79 235.39 391.88 572.79 1212.07 451.21 1332.75 540.38 1184.19 596.94 1192.14 651.33 1278.54 720.08
00005963 00000136 1159.59 254.35 400.56 563.96 1198.96 463.98 1330.59 539.13 1163.51 601.90 1188.22 671.45 1274.80 726.98
00005964 00000137 1163.02 281.51 397.53 546.25 1197.70 478.46 1331.21 551.66 1160.08 610.25 1192.75 679.49 1283.63 733.61
00005965 00000138 1160.72 277.09 402.33 549.46 1199.16 480.22 1322.26 552.06 1156.09 610.07 1192.76 680.15 1275.34 733.52
00005966 00000139 1159.17 270.25 400.04 555.40 1198.64 474.21 1321.29 542.28 1158.57 602.23 1193.12 676.21 1273.66 726.73
00005967 00000140 1159.33 264.87 399.33 548.07 1193.42 468.64 1314.22 538.74 1151.72 600.44 1190.99 672.07 1266.42 723.28
00005968 00000141 1155.94 252.15 400.61 554.26 1191.03 464.25 1310.45 536.08 1150.36 599.76 1189.64 665.09 1265.15 717.67
00005969 00000142 1156.02 257.32 394.93 555.17 1190.91 463.98 1311.74 533.56 1151.02 599.37 1191.04 666.91 1268.28 717.88
00005970 00000143 1151.87 251.03 396.73 553.80 1189.00 462.67 1308.82 532.35 1152.17 599.80 1192.40 660.71 1270.60 711.87
00005971 00000144 1146.71 246.78 393.11 569.09 1179.81 459.89 1309.20 531.65 1140.70 601.55 1182.80 666.25 1267.36 719.22
00005972 00000145 1146.95 234.90 396.01 581.10 1180.34 458.76 1306.76 525.44 1138.50 595.15 1182.54 667.16 1265.08 716.43
00005973 00000146 1147.88 230.52 398.03 584.95 1177.31 457.54 1308.66 520.29 1138.15 597.17 1183.39 676.15 1264.17 722.61
00005974 00000147 1148.49 234.48 395.33 590.45 1179.96 459.44 1308.17 519.67 1134.96 594.71 1185.91 681.64 1264.01 726.39
00005975 00000148 1143.78 230.57 396.23 596.45 1174.49 457.87 1309.78 517.51 1137.05 596.98 1177.72 683.87 1260.22 729.16
00005976 00000149 1144.03 229.47 396.95 599.03 1174.39 459.17 1308.57 515.03 1136.53 597.01 1180.40 687.66 1259.06 730.14
00005977 00000150 1144.72 233.14 395.73 588.49 1175.91 458.64 1306.28 516.62 1136.66 596.71 1182.70 681.79 1259.47 725.79
00005978 00000151 1146.27 235.12 395.62 583.51 1176.24 457.18 1306.58 518.34 1135.24 596.03 1183.67 677.41 1260.22 723.23
00005979 00000152 1148.18 240.02 391.88 573.11 1179.54 454.95 1306.47 519.03 1138.46 593.76 1184.61 669.83 1262.52 717.76
CROP_BBOX: 863 0 1883 974
