Video ID: 	V65SZNk_ubI
H: 	1080
W: 	1920
FPS: 	30.0

FRAME INDEX X0 Y0 W H [Landmarks (5 Points)]

00011563 00000000 718.90 205.82 352.84 537.57 814.00 422.19 978.90 435.57 889.20 511.44 823.94 599.82 957.97 612.83
00011564 00000001 722.67 209.46 355.69 539.86 813.57 425.92 982.75 436.65 890.55 516.32 825.81 602.45 970.59 612.73
00011565 00000002 734.01 224.55 353.86 536.89 816.54 428.51 982.46 433.00 894.29 516.78 830.82 608.07 974.87 612.50
00011566 DELETE   739.62 226.77 355.73 533.84 822.00 433.32 988.48 436.75 900.97 521.10 835.14 613.49 983.23 616.89
00011567 00000004 743.93 230.33 360.19 536.16 826.15 439.79 993.76 442.43 903.84 524.21 838.63 617.06 995.34 620.30
00011568 00000005 748.85 230.63 359.97 538.04 834.48 441.78 1001.22 445.21 913.01 525.04 845.96 618.40 1002.70 622.10
00011569 00000006 755.69 228.15 359.04 542.23 844.95 439.72 1012.49 445.44 927.44 526.34 856.04 618.89 1013.06 624.10
00011570 00000007 760.18 225.61 358.14 541.44 852.55 435.30 1021.89 447.13 935.93 525.61 858.74 616.89 1016.45 627.02
00011571 00000008 760.07 226.11 360.53 544.27 858.00 431.96 1026.37 447.01 941.86 524.25 861.09 614.31 1018.64 626.90
00011572 00000009 760.72 225.21 357.02 535.21 857.38 427.23 1026.37 443.39 939.59 518.67 859.83 608.88 1014.35 622.54
00011573 00000010 758.29 219.73 356.09 533.60 852.57 425.33 1023.53 439.16 934.40 513.83 856.78 606.17 1010.78 618.20
00011574 00000011 753.02 214.28 357.01 532.92 849.88 414.80 1022.15 430.27 927.40 507.28 852.56 595.53 1007.37 609.69
00011575 DELETE   747.07 208.98 357.48 534.98 842.81 408.18 1014.37 422.16 920.39 494.15 844.98 590.44 997.90 603.82
00011576 DELETE   736.86 201.51 355.61 534.89 833.25 404.65 999.00 417.97 913.13 492.18 836.00 581.87 985.45 594.71
00011577 DELETE   729.18 199.17 355.18 533.21 823.38 400.51 986.80 414.16 900.40 485.58 828.46 576.19 975.77 589.07
00011578 00000015 721.76 197.91 352.88 531.75 813.83 397.81 975.77 410.11 889.27 481.91 820.68 573.71 966.39 585.29
00011579 DELETE   713.30 199.41 355.06 531.62 807.14 399.07 967.89 411.73 882.05 483.00 815.43 575.97 958.35 587.39
00011580 00000017 707.48 197.80 358.01 535.36 803.54 400.04 965.32 413.74 878.25 485.48 810.72 580.50 951.36 592.61
00011581 00000018 703.70 200.15 359.63 537.90 799.84 405.17 965.37 418.87 874.87 490.82 808.39 585.85 951.38 598.02
00011582 00000019 705.44 212.37 349.58 527.53 801.53 419.64 955.20 420.83 873.34 501.67 808.89 597.80 946.82 598.90
00011583 00000020 705.20 218.62 348.62 527.45 798.63 429.37 954.57 429.87 871.77 515.77 806.49 603.21 952.17 603.60
00011584 DELETE   703.46 218.30 362.86 532.54 794.96 428.84 964.80 442.06 872.79 521.70 804.86 601.16 956.16 612.49
00011585 00000022 711.70 234.81 354.64 540.46 795.02 437.83 964.87 444.03 875.90 531.00 803.21 616.46 965.15 622.88
00011586 00000023 711.29 237.66 362.87 544.85 802.78 438.97 966.99 453.01 878.64 532.48 809.32 616.46 963.50 627.73
00011587 00000024 716.45 242.10 363.38 541.63 807.81 446.28 971.83 457.99 884.08 540.26 815.97 623.44 968.70 633.10
00011588 00000025 720.60 245.03 366.18 541.54 813.94 449.00 976.46 460.20 889.27 544.77 820.38 623.87 973.86 633.12
00011589 00000026 727.51 245.52 364.69 547.09 818.87 451.23 980.10 459.88 894.23 546.55 825.32 628.28 979.12 635.80
00011590 00000027 733.33 244.67 365.94 547.63 824.28 449.16 986.16 457.52 899.78 545.45 832.47 631.53 981.16 638.84
00011591 00000028 740.15 240.93 364.66 544.50 829.33 448.89 995.32 456.20 907.30 545.45 838.67 631.47 989.45 637.52
00011592 00000029 744.84 238.56 365.14 545.16 835.84 449.13 1001.61 458.58 914.46 547.34 841.67 631.79 994.89 639.45
00011593 00000030 747.09 237.41 368.19 552.46 844.67 448.73 1010.07 460.65 924.70 548.17 847.38 634.32 999.97 644.15
00011594 00000031 752.66 235.61 367.83 555.09 851.33 447.75 1019.23 460.17 932.04 546.14 852.59 635.57 1007.41 645.85
00011595 00000032 757.01 233.50 368.92 562.07 856.62 445.25 1027.65 458.61 937.00 541.98 857.77 638.12 1014.20 649.09
00011596 00000033 762.54 237.10 368.37 554.76 860.86 441.06 1033.13 455.99 939.99 536.00 860.89 634.62 1017.51 647.04
00011597 00000034 765.19 239.79 367.94 555.09 864.97 436.44 1033.55 451.17 944.06 529.51 863.13 625.08 1023.73 637.55
00011598 00000035 767.10 235.75 366.24 555.87 867.99 430.68 1035.80 447.13 948.08 522.92 863.74 617.23 1025.82 631.61
00011599 00000036 764.93 226.66 365.25 559.88 867.72 424.96 1037.14 440.93 950.20 512.82 864.58 613.13 1025.98 626.92
00011600 DELETE   760.03 220.61 359.90 552.47 859.20 420.70 1034.85 437.58 941.46 505.78 856.25 607.32 1022.05 621.54
00011601 DELETE   751.76 214.95 360.98 546.28 848.87 416.60 1023.96 431.49 929.95 500.40 847.07 597.20 1011.40 609.26
00011602 DELETE   745.57 209.70 364.53 542.94 842.79 409.34 1020.36 426.52 921.60 497.79 839.30 588.58 1008.52 603.78
00011603 00000040 739.22 205.76 365.12 545.98 833.72 409.58 1011.74 425.88 912.65 497.13 832.43 589.92 999.89 604.63
00011604 00000041 735.62 206.56 364.95 544.25 828.86 412.46 1004.97 425.96 907.57 500.48 829.89 591.92 993.46 604.38
00011605 00000042 733.69 208.57 365.35 549.17 826.73 416.27 1004.71 429.56 907.13 505.72 829.57 597.59 994.07 609.77
00011606 00000043 736.99 222.37 364.48 537.51 824.52 423.09 996.03 431.95 902.26 506.67 828.31 602.96 990.01 610.80
00011607 00000044 738.29 222.63 366.60 544.47 824.36 426.48 997.72 434.47 902.08 509.67 830.33 607.46 991.99 614.09
00011608 00000045 739.82 223.09 368.63 552.54 826.45 429.19 1000.43 436.86 903.45 511.27 832.67 612.25 995.55 618.54
00011609 00000046 739.87 224.89 368.84 557.57 830.73 429.64 1004.64 438.46 908.71 512.17 834.95 615.98 996.70 623.05
00011610 00000047 740.09 226.93 368.36 566.55 832.09 430.27 1006.14 438.83 909.66 515.56 835.64 625.12 991.22 632.38
00011611 00000048 737.05 226.83 370.32 575.36 832.04 429.02 1005.43 438.82 912.87 519.15 837.80 634.25 984.00 642.68
00011612 00000049 733.85 228.14 369.45 574.36 830.60 428.54 998.85 438.97 909.66 519.41 839.05 637.45 973.12 646.42
00011613 00000050 728.93 226.73 369.32 577.53 825.69 428.58 993.30 439.14 905.15 523.12 837.11 641.40 964.95 650.00
00011614 00000051 724.64 225.91 368.17 581.49 822.16 430.74 989.45 441.29 902.30 525.53 834.48 645.41 961.79 654.10
00011615 00000052 719.11 223.41 372.44 582.88 817.75 433.02 985.66 444.25 898.87 526.42 832.25 644.19 961.61 653.31
00011616 00000053 714.92 224.09 377.01 581.80 811.41 437.38 982.69 449.91 892.56 527.79 822.79 642.11 964.80 652.05
00011617 00000054 713.42 225.65 378.29 587.85 806.45 440.01 982.66 449.28 888.30 533.84 817.19 645.99 972.22 652.89
00011618 00000055 711.33 227.40 380.62 591.16 804.17 442.02 981.69 450.99 885.10 538.71 811.72 647.68 973.99 654.14
00011619 00000056 708.98 228.72 383.27 591.28 803.06 444.02 980.37 453.28 884.16 540.90 809.26 649.09 973.56 655.78
00011620 00000057 706.58 227.68 383.77 588.11 800.91 445.53 981.16 454.87 885.24 543.90 808.83 651.06 972.69 658.09
00011621 00000058 702.23 228.08 387.80 584.62 797.31 447.87 979.09 457.34 884.63 547.72 806.61 650.17 970.64 657.41
00011622 00000059 699.08 226.18 389.78 592.41 795.64 449.10 978.81 458.85 884.20 550.36 802.70 653.08 969.53 660.59
00011623 00000060 697.23 224.89 390.11 600.73 796.28 450.94 978.32 459.85 885.42 553.79 805.68 658.53 967.36 665.19
00011624 00000061 696.10 225.74 391.47 602.80 796.54 455.69 976.88 462.14 886.60 559.42 810.95 662.14 968.70 666.58
00011625 00000062 696.18 229.91 390.87 599.48 796.49 459.08 975.68 464.06 885.82 563.39 814.79 664.89 969.88 667.83
00011626 00000063 696.60 233.21 391.34 597.54 796.94 465.10 974.95 468.84 886.38 569.12 818.61 671.20 971.48 673.06
00011627 00000064 698.09 235.96 391.68 594.53 800.38 469.86 974.27 474.22 888.58 576.93 823.59 673.87 973.42 676.21
00011628 00000065 698.26 235.33 392.16 596.23 801.75 469.14 976.62 476.68 890.57 576.74 820.48 673.03 972.68 677.83
00011629 00000066 698.91 229.77 390.88 604.57 801.79 463.18 982.51 472.49 892.09 570.31 816.16 671.46 976.19 677.73
00011630 00000067 698.59 226.04 389.95 609.78 800.01 457.33 983.57 466.46 890.29 564.82 811.57 668.69 977.00 674.83
00011631 00000068 700.38 224.61 388.89 609.05 800.97 454.60 982.46 464.22 889.75 563.28 809.75 663.69 977.77 670.10
00011632 00000069 702.63 225.53 387.32 603.09 802.74 452.89 981.74 462.06 890.98 560.38 813.41 659.68 976.26 665.72
00011633 00000070 705.00 227.66 383.94 593.54 803.12 452.55 980.60 461.09 890.92 559.03 816.18 656.72 975.67 662.56
00011634 00000071 708.06 228.71 380.30 583.01 804.85 450.71 980.64 459.77 892.06 556.85 818.42 654.59 972.18 661.23
00011635 00000072 711.09 230.25 377.78 576.27 807.40 449.60 980.90 457.84 895.30 552.32 822.18 649.23 974.68 655.28
00011636 00000073 712.79 232.11 376.93 569.93 809.31 447.22 981.70 454.82 897.27 548.83 825.39 645.56 974.83 651.34
00011637 00000074 715.33 233.16 375.37 564.41 812.17 446.42 981.51 454.08 898.45 545.96 828.10 642.65 973.32 648.75
00011638 00000075 719.18 233.20 374.03 559.84 815.28 445.85 983.99 453.05 899.66 543.30 830.20 640.05 974.99 645.89
00011639 00000076 723.02 233.74 372.35 556.23 819.18 443.48 985.52 451.48 901.59 540.17 832.11 636.83 974.56 643.46
00011640 00000077 724.70 233.05 372.90 556.08 821.23 441.81 987.17 449.57 903.35 535.60 833.59 635.40 975.72 641.91
00011641 00000078 727.71 231.54 371.63 554.49 823.19 440.02 989.48 447.74 905.53 533.39 835.28 633.49 978.18 640.04
00011642 00000079 729.08 230.33 369.85 553.43 824.78 437.38 989.64 445.71 906.10 529.26 836.11 630.29 977.36 637.48
00011643 00000080 731.15 228.37 368.13 551.77 825.21 436.57 990.31 444.73 906.39 527.95 837.13 628.75 978.38 635.70
00011644 00000081 731.91 228.83 367.09 549.39 825.11 435.83 990.70 443.02 906.38 526.75 837.37 627.80 978.57 633.92
00011645 00000082 732.38 227.27 366.50 549.22 825.01 435.15 991.08 441.86 906.52 525.70 836.87 627.21 978.69 632.86
00011646 00000083 732.84 226.25 365.87 547.52 824.71 434.16 991.20 440.25 906.90 524.57 837.21 625.63 980.14 630.70
00011647 00000084 733.45 225.27 364.86 547.19 824.77 432.93 991.97 438.74 907.88 522.90 838.28 624.85 980.69 629.72
00011648 00000085 734.26 224.13 363.04 541.47 824.71 432.10 992.74 437.83 909.14 521.99 838.13 622.89 981.47 627.73
00011649 00000086 734.68 224.51 362.25 539.36 825.86 430.66 993.54 437.39 910.51 520.95 838.11 621.13 981.36 626.91
00011650 00000087 734.90 224.43 362.99 540.57 825.93 429.15 993.76 436.19 910.66 518.55 838.10 619.53 981.38 625.59
00011651 00000088 735.60 224.13 362.11 538.34 826.44 428.51 994.70 435.30 912.01 518.13 839.04 618.50 981.63 624.49
00011652 00000089 736.51 223.57 360.17 536.20 826.56 427.52 995.31 434.79 912.09 516.94 839.67 616.79 981.35 623.35
00011653 00000090 736.92 222.48 359.74 534.45 826.75 425.92 995.80 433.53 912.47 517.12 839.65 614.99 980.93 621.93
00011654 00000091 737.78 221.84 357.74 532.16 826.93 424.85 995.75 432.37 912.54 516.18 840.56 613.71 980.12 620.75
00011655 00000092 737.81 221.27 357.09 531.38 826.95 423.89 995.07 431.41 912.13 515.89 840.49 612.23 979.25 619.33
00011656 00000093 737.40 221.36 356.60 528.02 826.79 422.68 994.50 429.70 912.56 515.33 840.58 611.22 977.74 618.03
00011657 00000094 736.89 221.66 355.86 525.60 826.51 422.08 994.11 428.90 912.98 515.01 840.89 610.02 977.12 616.69
00011658 00000095 736.81 220.98 355.59 524.91 826.59 421.43 993.76 427.93 912.94 514.22 841.05 608.89 976.73 615.31
00011659 00000096 735.93 221.02 356.18 525.02 826.23 421.08 992.48 427.71 911.70 512.63 840.15 607.02 975.51 613.64
00011660 00000097 736.10 220.23 355.49 524.90 826.11 421.37 992.43 427.73 911.23 512.12 839.94 606.82 975.32 613.23
00011661 00000098 735.39 220.12 355.47 526.42 825.28 420.71 990.62 428.08 908.85 512.20 837.50 606.36 973.10 613.77
00011662 00000099 733.71 219.76 355.68 528.90 823.66 420.55 988.39 428.46 906.22 512.48 835.37 606.24 970.19 614.27
00011663 00000100 727.46 210.57 354.90 533.22 817.63 424.24 987.30 437.22 895.51 517.55 829.25 603.45 970.72 616.06
00011664 00000101 726.30 220.23 359.35 537.48 812.89 424.84 978.55 434.29 890.24 514.82 823.40 609.07 962.56 617.90
00011665 00000102 721.33 227.36 359.70 540.72 809.34 431.70 973.12 444.09 882.64 522.58 815.23 612.81 959.08 623.64
00011666 00000103 717.64 233.64 363.08 542.47 805.19 434.90 971.03 450.10 876.77 526.18 811.19 621.34 950.07 634.90
00011667 00000104 718.22 236.91 363.42 550.83 806.70 437.99 973.50 453.53 877.67 534.28 811.71 633.25 948.19 647.22
00011668 00000105 721.65 235.73 361.18 566.01 809.70 442.13 978.27 456.00 881.47 543.40 816.64 646.17 952.97 658.53
00011669 00000106 722.65 236.07 361.83 565.84 810.56 444.38 977.77 456.38 884.70 545.87 822.75 650.04 950.82 660.89
00011670 00000107 721.06 235.82 363.80 564.52 810.52 445.00 977.94 456.92 886.81 548.63 823.38 649.06 954.10 659.70
00011671 00000108 718.25 235.48 364.60 564.09 809.23 445.91 977.70 458.82 887.59 550.63 820.10 647.61 955.61 658.87
00011672 00000109 714.24 235.11 368.13 566.67 807.81 444.07 977.17 460.01 886.21 548.40 813.21 640.91 958.49 654.26
00011673 00000110 710.53 232.84 368.73 568.23 805.01 444.22 977.11 460.29 884.13 548.93 806.60 643.79 959.63 657.21
00011674 00000111 707.72 235.52 370.99 556.28 802.87 444.63 974.25 461.46 883.56 548.16 806.90 637.28 959.29 651.24
00011675 00000112 705.60 236.96 372.82 552.52 800.40 446.23 971.42 461.29 883.19 545.99 807.38 633.98 962.21 646.38
00011676 00000113 706.84 237.50 372.76 552.06 800.45 445.30 970.51 458.77 882.43 543.59 808.24 631.82 964.06 642.89
00011677 00000114 710.41 235.87 371.89 555.18 801.75 441.97 970.61 453.96 881.95 541.58 813.70 632.11 963.78 641.79
00011678 00000115 713.18 236.75 370.65 554.95 804.96 440.87 972.40 451.95 885.02 541.40 819.22 631.78 964.68 640.70
00011679 00000116 714.64 237.94 371.67 553.60 806.51 442.63 973.68 451.27 888.42 544.03 824.53 633.81 968.29 640.55
00011680 00000117 716.77 238.61 372.62 552.67 809.73 445.34 975.74 451.05 893.44 544.18 830.23 634.52 974.11 638.87
00011681 00000118 720.03 238.71 372.15 551.78 812.63 445.77 977.80 448.68 896.39 542.69 833.10 635.61 975.59 637.99
00011682 00000119 722.19 235.78 371.26 558.05 817.26 443.06 983.17 447.93 900.70 538.32 833.09 637.27 977.02 641.48
00011683 00000120 725.09 232.95 369.14 562.18 820.50 439.70 985.23 446.87 902.40 534.31 832.15 636.65 976.93 643.00
00011684 00000121 729.76 231.36 368.54 563.14 823.56 436.76 989.50 445.25 904.20 530.54 833.43 633.76 980.23 641.04
00011685 00000122 734.20 231.13 368.72 560.07 828.45 436.43 994.55 443.27 909.87 526.74 837.57 629.76 986.03 635.55
00011686 00000123 740.06 229.37 365.82 556.10 832.80 437.52 999.80 442.27 914.01 524.36 842.38 625.31 994.78 629.46
00011687 00000124 744.24 223.75 363.40 548.81 835.61 434.85 1005.88 440.97 918.66 523.41 846.05 621.67 998.87 627.15
00011688 00000125 748.80 217.43 361.91 547.10 840.76 430.74 1011.63 439.23 924.09 524.32 850.18 617.33 1001.59 624.80
00011689 00000126 752.92 214.99 361.08 541.82 844.80 427.14 1017.05 435.43 929.87 520.75 856.37 614.68 1005.89 621.78
00011690 00000127 755.99 214.97 359.26 533.16 852.47 423.95 1025.09 435.14 931.66 521.47 861.60 607.62 1009.69 618.16
00011691 00000128 757.91 216.32 358.66 531.03 855.81 421.20 1029.67 435.68 934.80 516.36 862.84 603.45 1014.25 616.49
00011692 00000129 758.71 216.14 358.00 528.26 858.08 419.25 1031.00 436.18 936.92 514.91 863.05 599.64 1014.40 614.76
00011693 00000130 758.71 216.18 358.08 526.17 858.32 418.80 1030.16 435.81 937.52 513.74 863.65 597.93 1013.96 613.10
00011694 00000131 758.72 216.76 357.37 523.93 857.15 419.37 1028.94 435.42 935.43 512.87 863.11 597.99 1012.46 612.44
00011695 00000132 757.00 216.98 357.62 521.88 854.45 419.97 1026.84 435.26 932.83 513.15 861.10 598.02 1010.80 611.75
00011696 00000133 756.35 216.40 356.44 518.45 852.26 420.97 1022.99 434.79 929.67 513.71 859.74 597.48 1007.14 610.13
00011697 00000134 755.57 214.65 355.84 517.12 849.52 419.57 1019.20 432.39 926.04 512.48 857.89 596.13 1003.72 608.16
00011698 00000135 754.11 214.24 355.43 516.69 846.99 419.18 1016.75 431.21 923.37 511.46 855.19 595.85 1000.67 607.27
00011699 00000136 752.58 215.26 354.25 513.89 844.83 418.47 1014.08 430.29 920.81 511.27 852.54 595.42 995.83 606.98
00011700 00000137 750.40 215.04 354.27 514.95 841.77 418.94 1010.82 430.40 918.26 511.63 849.55 594.90 994.04 606.05
00011701 00000138 749.09 213.48 352.93 516.05 838.96 420.13 1007.64 430.72 915.09 511.17 847.99 594.99 992.04 605.45
00011702 00000139 746.91 213.76 352.26 516.74 835.69 421.85 1004.10 431.07 912.05 512.51 846.05 596.02 989.87 605.42
00011703 00000140 745.69 214.93 350.59 515.66 833.69 422.89 1001.52 431.76 910.40 514.58 845.15 596.81 988.03 606.09
00011704 00000141 744.18 214.85 348.95 515.31 832.00 423.22 998.66 432.53 908.17 515.03 843.31 596.62 984.81 606.45
00011705 00000142 741.29 214.31 348.92 514.90 830.25 424.31 996.00 433.09 907.51 515.39 843.39 597.45 981.99 606.94
00011706 00000143 739.13 214.92 348.85 516.85 828.22 424.94 993.09 433.67 905.60 516.33 841.75 597.83 980.08 607.21
00011707 00000144 736.98 215.59 348.10 518.41 826.37 425.83 990.64 435.03 904.59 518.30 840.44 599.21 977.68 609.01
00011708 00000145 734.41 214.85 348.14 520.57 824.31 425.36 987.97 436.09 902.41 518.79 838.10 599.91 974.10 610.97
00011709 00000146 733.43 214.33 347.17 522.57 822.57 425.43 986.02 435.72 899.72 517.87 836.87 600.68 972.20 611.36
00011710 00000147 732.03 214.00 347.24 526.50 821.97 424.88 985.20 435.34 899.18 517.22 835.92 601.14 971.91 611.87
00011711 00000148 731.36 213.87 346.46 527.45 821.49 424.29 985.25 434.97 899.04 516.46 834.88 601.04 971.27 612.02
00011712 00000149 730.39 213.29 346.61 530.02 821.75 425.01 984.05 435.49 899.46 517.08 834.63 602.27 969.79 613.20
CROP_BBOX: 434 0 1374 1001
