Video ID: 	T67dU9E-ppg
H: 	1080
W: 	1920
FPS: 	25.0

FRAME INDEX X0 Y0 W H [Landmarks (5 Points)]

00003773 00000000 655.78 234.40 433.09 592.44 843.82 462.51 998.85 495.71 931.40 606.61 805.55 673.97 918.12 703.41
00003774 00000001 664.85 231.68 431.93 595.33 850.47 453.41 1016.12 488.28 942.34 604.68 809.50 674.13 928.79 705.18
00003775 00000002 660.74 228.43 450.11 597.80 850.13 442.14 1020.86 474.60 943.70 605.03 810.35 674.51 927.50 703.67
00003776 00000003 659.46 237.93 432.00 582.95 853.00 436.46 1008.91 477.68 938.91 604.16 804.55 664.52 912.78 700.97
00003777 00000004 658.19 227.37 451.70 597.47 849.97 428.49 1016.87 477.06 937.22 601.24 793.32 658.36 914.15 702.05
00003778 00000005 659.27 214.29 455.96 613.98 856.96 417.72 1024.86 474.20 945.40 588.31 798.53 652.81 922.58 702.16
00003779 00000006 663.54 221.61 450.41 595.57 862.64 407.63 1027.62 474.29 945.70 569.95 805.19 637.63 924.32 694.95
00003780 00000007 660.04 210.04 461.83 597.37 870.55 396.11 1028.51 464.98 949.81 558.55 805.12 624.03 921.19 683.00
00003781 00000008 662.46 212.75 445.58 585.78 874.52 385.82 1024.19 457.21 954.39 546.04 807.83 612.83 920.63 673.83
00003782 00000009 666.20 194.75 454.59 592.36 880.79 380.19 1031.10 449.27 956.72 533.72 812.50 604.31 922.45 663.49
00003783 00000010 674.17 183.82 441.74 591.12 882.80 375.00 1035.54 443.17 961.68 525.64 817.00 598.96 927.02 657.51
00003784 00000011 675.98 185.34 434.52 582.73 888.10 372.83 1037.95 443.98 967.67 520.80 821.76 595.27 931.48 656.01
00003785 00000012 679.93 187.59 424.01 573.44 893.19 369.36 1039.90 439.78 975.20 520.64 826.61 592.80 935.87 653.14
00003786 00000013 678.92 187.24 421.52 579.51 896.83 368.36 1037.18 436.47 981.37 517.89 831.87 584.17 941.23 642.09
00003787 00000014 682.52 185.85 419.98 572.25 895.14 367.51 1040.95 436.67 977.97 517.27 830.52 589.98 940.18 649.30
00003788 00000015 683.39 188.85 421.65 571.62 895.91 368.65 1039.94 436.53 979.38 520.36 832.04 592.17 939.04 650.50
00003789 00000016 688.26 188.25 417.62 575.26 901.08 371.05 1040.84 439.53 983.72 521.83 838.38 594.45 940.05 653.25
00003790 00000017 689.18 191.21 414.48 573.77 910.04 371.99 1043.43 443.22 992.49 524.78 846.59 593.57 945.54 654.57
00003791 00000018 689.84 191.21 410.19 577.62 916.62 370.36 1044.79 444.00 998.55 526.67 848.90 592.51 946.49 655.76
00003792 00000019 687.47 193.01 413.81 576.92 913.00 369.85 1044.06 442.59 996.90 526.87 846.36 593.34 946.85 655.70
00003793 00000020 686.04 189.42 412.02 574.74 905.81 368.86 1039.40 439.70 991.13 523.73 840.65 591.41 942.70 652.38
00003794 00000021 682.92 193.76 417.02 568.57 899.37 368.45 1037.84 437.34 984.61 520.73 835.23 590.97 941.07 650.14
00003795 00000022 681.13 187.22 418.59 573.66 895.48 367.14 1037.30 434.34 980.98 519.19 832.69 589.54 941.33 647.36
00003796 00000023 681.36 183.21 415.64 574.76 893.59 365.61 1036.30 433.37 979.01 515.74 831.31 586.89 941.55 645.16
00003797 00000024 678.41 176.85 417.86 585.13 899.77 364.99 1034.76 432.04 985.79 512.81 839.89 577.79 944.45 634.28
00003798 00000025 681.62 184.25 409.20 572.47 907.47 366.34 1038.41 432.35 996.61 512.96 853.28 577.95 952.61 633.47
00003799 00000026 686.71 190.52 405.46 564.94 913.52 367.93 1042.76 436.14 1002.25 514.16 859.88 577.98 956.73 635.12
00003800 00000027 686.22 193.84 401.84 564.17 908.93 368.80 1040.74 433.19 999.70 516.50 858.14 582.69 956.93 636.52
00003801 00000028 679.63 191.85 409.18 570.49 901.31 368.35 1036.58 432.52 989.21 518.20 847.21 584.09 948.82 637.83
00003802 00000029 673.76 186.29 410.41 577.32 892.41 367.89 1029.55 429.73 980.65 519.95 838.09 585.90 943.30 638.06
00003803 00000030 669.60 185.33 410.11 577.31 885.00 367.23 1023.13 430.13 971.27 517.76 829.88 584.42 934.65 637.54
00003804 00000031 665.55 184.20 414.65 575.86 877.83 366.49 1018.98 427.82 962.32 515.70 823.13 583.44 930.03 635.45
00003805 00000032 665.81 187.90 416.57 571.44 875.69 368.48 1020.17 428.66 961.49 516.61 823.19 585.23 932.71 636.11
00003806 00000033 668.15 186.87 417.32 572.74 884.99 369.92 1026.12 431.98 970.04 522.06 830.92 585.91 937.36 638.29
00003807 00000034 669.86 195.08 410.99 566.58 886.71 370.91 1029.16 433.22 978.14 524.75 837.75 587.89 946.26 640.36
00003808 00000035 670.74 197.76 407.15 565.13 885.32 372.28 1027.90 432.13 977.48 525.64 837.65 590.47 945.98 641.02
00003809 00000036 668.09 196.45 409.85 566.29 880.08 372.96 1021.57 430.20 968.20 527.69 831.41 591.01 939.03 639.81
00003810 00000037 662.88 186.87 414.84 575.25 873.58 373.43 1016.24 426.96 960.59 527.20 825.56 592.38 933.30 638.23
00003811 00000038 661.39 181.42 412.64 580.56 867.12 374.13 1010.79 424.12 954.43 529.17 820.23 595.14 927.38 638.39
00003812 00000039 657.63 181.02 415.47 582.71 862.03 378.20 1005.16 429.89 948.61 527.23 813.76 593.77 923.35 638.75
00003813 00000040 658.86 180.63 415.59 585.22 865.48 379.48 1006.43 432.34 951.96 528.72 815.56 595.16 923.74 641.00
00003814 00000041 663.08 195.40 413.05 574.61 874.34 382.28 1012.56 437.47 960.56 529.17 825.27 596.72 930.16 644.07
00003815 00000042 671.96 212.42 405.56 552.79 891.19 381.82 1026.50 445.88 983.34 528.87 835.61 601.17 940.50 655.96
00003816 00000043 675.44 209.05 412.22 554.68 891.84 381.68 1029.78 446.48 980.52 529.67 835.42 600.97 940.74 656.14
00003817 00000044 672.03 204.01 420.08 556.49 883.78 382.40 1026.00 442.37 970.51 525.99 829.85 598.18 936.70 649.34
00003818 00000045 671.14 192.20 414.53 566.93 878.97 383.26 1019.07 442.39 964.46 526.53 824.94 596.04 932.62 646.62
00003819 00000046 667.19 185.05 405.76 578.74 869.41 387.19 1010.42 450.58 951.47 527.66 811.59 588.40 924.81 642.71
00003820 00000047 660.72 183.16 412.44 580.03 857.41 388.32 999.11 442.35 940.34 528.46 805.84 593.47 920.36 640.23
00003821 00000048 651.81 176.11 419.41 588.63 844.51 385.85 990.13 434.91 929.53 528.18 799.60 594.92 914.26 637.54
00003822 00000049 638.18 168.70 425.24 597.73 828.13 384.52 980.40 428.34 918.59 524.38 790.79 597.91 907.87 636.07
00003823 00000050 626.41 162.22 432.72 606.25 816.31 382.08 972.68 425.69 909.83 524.69 782.36 598.62 900.69 636.44
00003824 00000051 615.98 156.75 429.22 611.33 809.07 382.62 960.94 425.59 901.06 522.64 773.35 596.91 892.36 632.98
00003825 00000052 608.39 151.58 428.70 616.87 797.93 378.20 953.97 423.22 890.62 524.31 763.81 595.87 888.20 633.31
00003826 00000053 600.52 153.90 426.52 613.60 784.41 377.61 945.16 420.24 877.32 525.57 754.17 597.74 880.31 633.40
00003827 00000054 596.12 154.75 424.09 612.76 770.49 378.28 934.40 418.72 865.18 526.35 744.89 599.52 872.74 633.65
00003828 00000055 590.62 154.50 422.20 615.19 759.97 378.53 926.64 413.55 857.51 530.52 740.63 603.34 868.80 633.42
00003829 00000056 582.14 152.42 423.91 617.99 753.85 372.36 924.63 404.20 855.63 529.10 737.53 605.88 864.86 633.46
00003830 00000057 575.90 149.99 425.50 621.76 748.92 371.94 920.76 402.75 851.62 528.93 734.52 605.85 862.78 632.59
00003831 00000058 570.39 159.16 426.42 612.30 735.26 377.22 918.90 399.14 849.83 526.64 734.63 611.56 870.93 630.16
00003832 00000059 569.59 163.35 427.57 610.60 731.62 378.60 918.79 396.69 849.41 528.31 735.41 615.76 873.13 630.86
00003833 00000060 572.61 161.40 427.96 614.50 732.10 379.60 920.30 395.03 850.93 529.48 737.69 617.69 876.37 630.50
00003834 00000061 582.03 157.62 421.47 618.53 744.32 376.01 921.96 398.36 850.76 532.81 740.35 613.01 875.16 632.35
00003835 00000062 595.50 150.84 417.22 622.21 750.66 374.28 930.22 392.89 859.42 530.15 752.35 614.42 888.08 629.93
00003836 00000063 604.73 146.60 419.97 628.25 762.39 373.94 943.31 391.47 872.86 526.74 766.59 616.49 901.04 630.67
00003837 00000064 613.45 160.65 424.48 608.28 771.85 373.03 965.25 389.77 889.46 529.12 783.61 616.91 914.25 629.12
00003838 00000065 625.06 159.52 423.27 611.75 787.00 377.12 975.24 390.30 907.37 526.63 798.43 619.26 929.33 629.15
00003839 00000066 633.87 158.97 423.79 610.64 794.18 380.53 982.02 392.08 915.20 523.21 806.17 616.35 943.39 625.14
00003840 00000067 641.13 148.74 419.39 621.70 808.17 379.32 985.99 390.83 925.92 521.60 820.70 617.74 956.47 625.10
00003841 00000068 645.54 151.39 417.05 618.13 811.62 379.42 990.28 389.61 930.00 523.45 826.31 618.15 963.32 624.27
00003842 00000069 646.45 152.56 417.19 621.39 813.20 383.67 990.36 393.29 932.39 523.74 825.99 620.41 963.36 626.36
00003843 00000070 645.95 158.04 419.99 615.27 806.00 386.39 991.37 392.94 932.02 526.84 818.77 620.25 959.41 625.78
00003844 00000071 643.25 161.31 421.12 614.40 803.69 388.06 989.05 392.61 931.14 526.96 817.55 621.72 959.05 625.38
00003845 00000072 641.35 160.78 420.61 613.76 801.90 388.49 987.63 391.86 930.21 527.45 818.56 622.64 958.54 625.04
00003846 00000073 638.50 158.72 421.14 614.70 801.01 388.10 985.76 392.26 928.15 528.29 816.50 621.95 954.87 624.97
00003847 00000074 635.39 157.51 421.38 618.25 798.12 390.62 983.19 395.14 925.57 531.30 812.84 623.18 950.57 626.48
00003848 00000075 630.75 160.73 422.55 615.66 792.81 392.26 978.46 396.18 919.20 533.50 811.21 628.09 944.33 630.49
00003849 00000076 625.37 162.16 421.81 617.90 788.54 391.01 974.83 396.18 913.97 535.34 807.91 630.89 938.61 634.00
00003850 00000077 620.18 164.36 421.68 617.91 783.19 390.12 970.95 396.82 907.82 537.16 800.63 631.43 931.86 635.70
00003851 00000078 613.71 166.07 422.28 614.97 777.45 389.47 964.58 397.72 899.70 538.48 793.87 631.94 924.19 637.32
00003852 00000079 606.54 154.83 420.42 638.89 774.98 396.10 947.14 397.10 895.31 544.01 788.02 637.85 923.25 638.96
00003853 00000080 601.03 153.31 419.81 641.65 761.94 399.77 935.46 399.69 882.84 546.43 775.47 638.55 915.45 639.43
00003854 00000081 596.08 165.12 413.49 630.05 742.74 409.70 919.01 407.16 862.93 545.93 757.98 636.21 908.21 635.82
00003855 00000082 585.78 171.87 416.73 627.49 731.25 413.82 910.69 414.29 848.03 550.26 745.00 636.32 898.72 638.82
00003856 00000083 583.74 173.66 416.87 626.86 729.81 415.96 909.75 417.09 846.52 552.65 742.09 636.17 897.07 639.30
00003857 00000084 588.26 169.96 414.50 628.49 734.25 414.94 911.51 412.53 852.65 548.47 749.51 634.91 904.30 634.83
00003858 00000085 593.18 162.77 411.97 632.36 740.79 413.10 915.18 408.42 859.63 545.62 756.08 632.48 910.35 630.01
00003859 00000086 594.08 156.93 407.96 633.75 738.60 416.75 914.66 412.90 855.88 542.18 751.98 628.42 907.89 626.30
00003860 00000087 588.40 157.58 411.82 633.12 730.41 417.19 908.24 412.92 846.38 543.17 743.40 627.70 900.78 625.35
00003861 00000088 583.21 160.61 413.66 632.93 725.07 415.48 904.27 414.85 840.57 545.76 738.68 629.48 895.84 630.42
00003862 00000089 583.42 166.47 411.76 630.40 723.63 420.43 904.37 417.54 842.95 551.78 742.99 635.64 900.14 634.92
00003863 00000090 583.75 171.44 412.33 627.18 724.78 427.59 906.63 421.10 846.30 557.13 747.61 641.10 905.57 637.53
00003864 00000091 581.93 179.79 415.86 622.24 727.52 433.21 909.27 423.96 849.73 561.88 752.02 645.23 908.17 639.78
00003865 00000092 581.90 181.02 416.73 623.09 727.32 436.45 911.07 426.09 850.30 566.93 750.92 647.07 908.75 640.67
00003866 00000093 580.46 182.36 418.25 623.40 725.97 438.83 911.20 427.34 849.63 569.46 750.29 648.36 909.02 640.91
00003867 00000094 580.06 185.86 417.64 620.66 726.60 441.74 911.20 428.92 850.26 572.40 752.09 650.13 908.86 641.71
00003868 00000095 580.81 185.09 417.40 622.46 725.81 443.74 911.02 431.13 848.42 573.85 750.56 651.34 907.64 643.08
00003869 00000096 579.74 185.79 417.01 625.42 724.60 446.39 909.99 434.34 846.81 578.60 746.07 653.83 903.33 646.23
00003870 00000097 577.78 191.82 417.15 623.65 723.81 447.13 909.05 436.79 845.51 582.09 744.75 656.66 900.18 650.71
00003871 00000098 576.80 192.59 417.32 625.65 721.65 447.95 908.08 438.85 843.84 583.03 742.91 659.49 897.51 654.62
00003872 00000099 575.52 193.82 418.11 629.00 719.93 450.01 907.56 442.43 842.29 586.61 740.26 662.08 895.83 658.46
00003873 00000100 573.31 197.74 420.79 626.36 716.34 451.80 906.26 445.62 838.82 590.47 737.68 664.53 892.99 662.17
00003874 00000101 571.28 199.17 421.72 625.81 712.30 455.08 903.73 449.80 834.22 592.39 737.02 669.29 888.43 667.65
00003875 00000102 561.94 203.80 423.77 616.12 711.56 454.63 890.74 445.59 830.62 595.15 741.22 681.34 879.32 672.50
00003876 00000103 560.97 202.01 424.96 624.27 708.47 455.23 892.38 443.29 827.29 595.05 737.17 682.88 879.26 672.32
00003877 00000104 570.93 198.22 421.81 627.09 704.28 454.56 900.64 449.38 826.99 593.78 732.05 674.39 885.13 672.47
00003878 00000105 562.80 199.65 425.12 621.23 706.35 453.67 889.23 445.40 825.86 594.50 736.81 682.51 879.39 674.41
00003879 00000106 562.74 198.17 425.14 623.39 711.22 452.18 888.08 444.22 826.87 592.42 739.11 678.94 875.53 670.60
00003880 00000107 565.54 198.14 423.24 621.58 710.72 453.67 890.07 446.14 827.76 592.21 736.93 675.69 880.20 668.31
00003881 00000108 573.17 194.72 420.30 628.14 711.49 451.14 903.15 446.65 830.85 588.17 731.67 662.67 889.96 661.44
00003882 00000109 573.35 193.02 419.94 627.30 714.95 449.03 903.98 444.19 833.80 586.07 734.66 660.51 889.61 659.22
00003883 00000110 573.14 191.93 419.47 625.52 715.28 446.16 903.95 440.96 835.68 581.65 737.77 658.89 891.76 657.26
00003884 00000111 567.19 187.97 420.98 621.22 716.39 443.11 891.48 432.57 836.76 580.96 744.73 665.33 881.73 655.47
00003885 00000112 572.93 180.21 417.99 631.56 714.23 440.63 901.50 435.99 834.51 574.72 737.77 655.53 890.44 654.07
00003886 00000113 571.62 176.19 419.22 634.63 712.38 439.52 901.51 434.34 833.00 573.43 734.57 653.30 892.21 651.26
00003887 00000114 572.57 176.48 418.22 633.91 711.71 438.77 901.35 433.52 832.43 572.79 733.47 651.01 894.49 648.81
00003888 00000115 573.49 178.37 417.92 634.83 713.65 439.52 902.25 434.26 834.02 573.82 733.04 650.68 895.16 648.50
00003889 00000116 573.44 179.17 418.48 637.03 715.37 439.60 902.23 435.54 835.18 575.88 733.47 652.72 892.31 651.73
00003890 00000117 574.18 184.38 417.91 635.11 716.73 444.32 901.79 439.92 835.79 577.26 738.10 656.47 892.01 655.29
00003891 00000118 575.18 190.91 417.48 630.29 716.49 447.64 903.45 442.63 836.51 582.20 738.49 659.86 892.56 658.28
00003892 00000119 576.04 195.31 416.87 627.39 716.44 451.22 903.58 446.00 836.11 586.59 739.05 662.39 891.99 660.75
00003893 00000120 577.37 200.01 415.45 624.35 716.29 453.77 903.69 447.68 836.58 590.80 738.20 664.29 891.71 662.08
00003894 00000121 578.90 201.81 415.54 623.31 716.37 456.37 905.01 449.79 836.48 593.38 738.45 666.95 892.00 664.38
00003895 00000122 580.48 202.00 415.07 623.03 716.63 458.22 905.03 451.81 835.78 594.10 738.99 668.53 891.11 666.10
00003896 00000123 581.77 203.33 415.23 620.94 716.66 460.20 906.36 453.78 835.31 595.21 742.32 672.48 891.03 670.05
00003897 00000124 583.71 203.39 415.94 621.44 717.48 461.89 906.54 455.93 834.53 596.11 743.83 674.72 890.73 672.54
00003898 00000125 585.48 205.47 416.07 619.15 719.37 463.44 907.97 456.52 836.10 597.92 747.22 677.39 891.94 674.39
00003899 00000126 587.27 206.15 416.40 618.83 720.69 464.29 908.43 457.26 835.84 599.19 747.53 676.54 892.57 673.41
00003900 00000127 588.07 207.35 416.88 618.64 722.10 465.79 909.14 458.12 836.62 600.78 748.06 676.66 893.21 672.99
00003901 00000128 588.29 207.75 418.41 617.81 724.13 466.29 911.30 458.19 838.44 602.15 748.91 675.30 896.20 671.15
00003902 00000129 590.16 208.46 417.20 615.41 726.15 466.49 913.04 457.37 840.08 601.39 749.12 671.94 899.63 666.89
00003903 00000130 591.31 209.87 418.29 613.26 728.34 465.96 914.81 456.44 842.30 600.54 749.66 668.78 903.23 663.25
00003904 00000131 593.08 210.99 416.98 612.05 730.38 466.33 914.80 457.29 842.63 600.55 752.29 669.18 902.82 664.08
00003905 00000132 596.32 205.30 413.21 617.87 732.45 460.12 908.27 456.81 842.54 600.14 753.71 677.70 895.27 675.31
00003906 00000133 596.07 206.57 412.51 615.05 731.29 462.70 908.37 459.34 841.15 600.24 752.98 677.66 895.26 675.25
00003907 00000134 597.56 209.82 411.66 610.82 731.80 465.87 908.74 461.76 841.45 599.56 753.65 677.08 898.17 673.89
00003908 00000135 597.60 209.54 410.84 609.72 732.57 463.26 908.03 458.55 843.03 598.65 754.65 675.97 898.19 672.33
00003909 00000136 597.91 208.55 410.43 610.13 733.71 461.34 907.66 456.10 844.13 595.95 754.84 674.15 898.08 669.97
00003910 00000137 598.35 207.96 410.49 612.25 735.05 457.39 908.79 453.02 845.59 593.83 754.57 672.65 898.73 668.90
00003911 00000138 597.32 207.23 411.01 614.39 735.73 454.08 909.58 449.97 847.12 592.70 754.80 673.69 896.95 670.10
00003912 00000139 596.38 204.83 410.86 613.98 732.22 452.46 909.98 448.16 844.79 593.37 755.99 675.64 896.21 671.88
00003913 00000140 591.11 204.07 414.94 616.29 729.19 459.51 914.33 448.23 846.14 593.40 758.33 668.34 905.65 661.58
00003914 00000141 587.97 201.72 416.84 618.97 725.83 457.90 913.05 447.97 843.52 591.72 753.52 668.02 903.91 662.27
00003915 00000142 586.36 201.01 414.86 618.89 723.70 456.76 910.57 448.20 840.86 591.39 749.14 665.47 900.25 661.01
00003916 00000143 584.36 202.97 413.41 617.04 720.73 456.39 907.97 447.95 838.75 591.48 745.71 664.82 897.68 660.70
00003917 00000144 580.64 202.89 414.14 620.07 717.36 455.18 904.22 446.93 837.40 590.86 743.05 665.38 894.78 661.38
00003918 00000145 578.07 197.98 413.29 623.94 713.02 453.26 901.73 446.32 833.59 587.55 739.68 664.98 892.80 661.86
00003919 00000146 574.64 196.10 417.06 623.48 708.41 452.20 900.05 444.19 829.10 584.32 735.53 662.66 894.10 658.30
00003920 00000147 562.78 195.36 420.15 624.63 705.65 452.91 884.44 438.97 821.86 583.21 734.56 670.45 880.28 657.99
00003921 00000148 560.22 193.26 419.54 624.57 704.76 449.40 881.35 437.17 818.82 580.00 731.86 667.46 875.76 656.78
00003922 00000149 558.55 189.02 417.55 627.12 701.35 446.42 877.60 435.82 814.36 578.43 728.40 667.59 870.40 658.39
00003923 00000150 558.67 184.09 417.13 628.34 696.26 437.78 875.11 428.86 814.98 575.95 729.73 669.08 864.39 660.19
00003924 00000151 553.33 180.64 416.98 631.82 696.25 440.36 872.58 430.91 808.97 576.76 724.33 666.09 864.01 657.99
00003925 00000152 549.67 176.24 419.83 633.15 690.33 437.92 871.86 427.93 805.35 575.71 720.18 663.89 864.35 655.35
00003926 00000153 549.20 173.71 418.24 635.51 688.00 435.97 868.67 425.80 801.83 574.55 718.34 662.79 862.45 654.13
00003927 00000154 547.92 173.53 417.08 635.98 686.66 434.91 864.65 425.50 799.29 571.23 716.20 660.90 858.46 653.21
00003928 00000155 546.10 176.32 416.71 632.45 684.72 435.21 862.41 425.95 797.77 570.04 714.17 660.25 856.35 653.00
00003929 00000156 546.58 173.93 415.48 632.86 683.62 435.83 861.53 425.56 797.44 569.77 713.57 659.91 856.54 651.80
00003930 00000157 545.83 175.90 416.69 631.75 684.59 436.42 862.84 425.97 799.49 570.05 714.09 659.69 857.97 651.35
00003931 00000158 545.56 175.37 418.36 633.54 686.16 436.75 864.52 425.38 801.77 571.49 716.16 660.90 859.48 651.76
00003932 00000159 545.85 174.65 420.66 637.68 688.70 437.17 867.09 425.60 804.41 572.60 719.23 662.76 862.68 653.16
00003933 00000160 546.78 174.29 421.19 638.87 691.21 437.60 868.86 426.23 805.90 573.46 722.26 664.35 863.43 654.77
00003934 00000161 548.65 173.60 420.23 638.55 691.59 438.94 871.52 427.11 807.55 574.89 723.80 666.48 865.55 656.50
00003935 00000162 548.84 174.30 419.65 634.18 691.05 440.28 873.18 426.63 809.34 576.56 723.72 666.43 868.06 654.94
00003936 00000163 549.14 172.67 419.16 635.06 692.64 441.03 873.70 427.56 810.28 576.35 724.51 666.10 868.28 654.69
00003937 00000164 548.40 173.87 420.86 635.68 693.73 439.92 874.38 427.21 810.85 575.61 724.79 665.89 868.04 655.18
00003938 00000165 546.39 173.06 422.34 637.35 695.51 440.63 872.80 428.32 808.78 574.00 724.19 664.78 865.67 654.44
00003939 00000166 545.80 174.36 420.54 636.77 696.10 444.21 872.80 431.12 809.81 573.47 722.29 663.83 864.50 653.15
00003940 00000167 545.50 174.90 420.20 637.17 690.90 444.02 870.31 430.57 806.93 575.06 717.49 663.92 863.52 653.06
00003941 00000168 545.32 177.74 419.42 636.44 688.69 443.19 867.61 431.90 804.67 576.90 714.71 663.50 861.83 654.25
00003942 00000169 544.07 179.33 418.92 635.80 686.77 443.56 866.02 432.75 802.31 578.25 714.10 664.27 860.77 655.48
00003943 00000170 542.53 180.98 418.91 631.25 681.91 444.33 864.63 431.87 800.29 577.90 713.38 665.00 861.33 655.06
00003944 00000171 542.36 182.47 416.94 628.12 679.05 442.66 862.33 430.72 797.86 575.88 710.78 663.47 859.20 654.23
00003945 00000172 541.52 181.28 416.55 629.95 678.09 440.15 859.40 430.11 794.60 573.68 707.36 660.79 855.24 653.22
00003946 00000173 540.63 179.25 416.95 631.48 678.31 438.37 858.70 428.45 794.40 572.26 706.03 658.86 854.23 651.43
00003947 00000174 541.16 178.58 416.42 629.08 680.64 435.99 858.61 425.46 795.91 570.35 708.31 656.43 855.31 648.43
00003948 00000175 542.85 174.18 414.76 628.09 681.86 434.35 859.40 423.55 796.31 568.20 710.53 655.93 854.95 647.62
00003949 00000176 542.92 172.18 414.94 625.98 683.65 431.61 860.26 418.48 799.25 564.31 714.95 653.94 857.69 643.65
00003950 00000177 544.59 168.76 412.86 624.54 687.71 425.46 862.80 411.35 802.71 562.91 719.53 652.65 858.81 641.23
00003951 00000178 543.62 166.74 411.75 625.44 687.60 421.10 864.55 405.23 805.29 560.34 721.84 651.99 860.81 638.81
00003952 00000179 544.09 167.90 408.91 623.37 688.34 418.29 864.60 402.60 806.35 557.80 724.05 651.39 861.37 638.06
00003953 00000180 544.14 169.96 408.58 619.49 688.24 415.95 864.74 401.99 804.96 556.79 723.72 650.92 858.77 639.16
00003954 00000181 544.34 168.29 408.36 618.92 688.72 413.79 865.06 400.74 804.57 555.88 724.94 650.32 858.09 639.15
00003955 00000182 545.29 168.88 409.12 618.15 688.98 408.49 868.10 395.57 805.98 554.33 727.53 649.94 860.65 638.41
00003956 00000183 546.50 164.69 411.02 620.53 693.29 405.31 873.67 394.80 808.82 551.60 731.07 647.59 863.29 637.67
00003957 00000184 552.06 173.37 413.69 609.90 692.80 403.60 881.94 393.12 815.30 544.72 732.40 645.96 860.56 634.99
00003958 00000185 552.25 175.89 413.96 608.91 696.40 403.19 883.61 391.18 820.09 541.75 736.20 646.05 861.45 633.94
00003959 00000186 554.20 176.42 412.15 611.82 701.46 402.75 887.25 392.85 826.17 542.03 736.96 646.45 862.80 636.48
00003960 00000187 556.54 180.08 409.17 609.63 707.80 406.74 889.67 397.14 833.11 542.50 739.76 648.87 865.17 639.57
00003961 00000188 556.23 187.76 407.34 603.68 712.74 408.68 890.67 400.33 839.12 545.80 742.77 650.80 865.30 642.80
00003962 00000189 555.30 193.86 403.51 599.51 715.56 412.54 888.74 404.54 842.54 547.20 743.13 651.20 864.55 643.78
00003963 00000190 552.35 193.61 400.19 598.15 714.84 410.29 882.82 402.73 838.49 544.85 742.08 648.28 857.39 641.31
00003964 00000191 547.98 194.06 399.32 596.09 710.20 409.20 877.51 401.78 831.91 541.95 738.86 645.40 851.92 638.35
00003965 00000192 541.97 195.02 399.02 591.87 702.03 405.86 871.76 400.94 823.83 538.77 732.67 640.07 848.14 634.72
00003966 00000193 539.23 194.20 393.97 586.34 698.71 400.78 867.00 398.81 818.63 537.60 727.72 634.56 840.92 631.69
00003967 00000194 532.84 179.98 387.32 593.48 697.30 400.90 858.35 395.81 816.13 538.63 724.17 631.89 844.96 628.08
00003968 00000195 529.05 170.11 391.67 597.11 689.41 405.08 856.10 399.14 809.24 533.25 715.02 628.86 842.06 624.52
00003969 00000196 527.18 165.34 393.22 600.53 686.36 398.95 853.86 392.77 808.19 528.29 713.46 625.87 841.80 621.21
00003970 00000197 527.08 163.75 395.44 602.70 686.13 392.36 853.97 386.86 811.01 526.11 715.99 625.11 845.11 620.54
00003971 00000198 530.64 164.55 396.65 607.85 689.55 390.57 859.19 386.84 814.19 528.88 718.24 629.62 846.68 626.25
00003972 00000199 533.95 163.65 399.62 615.22 698.73 390.27 863.07 389.34 818.98 530.64 722.25 629.93 846.81 628.84
00003973 00000200 537.99 176.24 408.13 602.81 699.97 391.96 877.89 390.74 823.56 530.63 729.42 630.70 848.07 628.29
00003974 00000201 543.72 176.76 409.81 605.73 706.11 394.61 883.74 392.14 829.90 532.15 734.19 633.22 855.13 629.93
00003975 00000202 546.70 177.03 408.86 606.65 710.08 401.47 886.01 398.38 834.47 535.85 735.58 634.01 861.45 630.37
00003976 00000203 551.08 174.67 406.15 608.19 712.59 409.00 886.56 405.66 835.94 539.18 734.82 633.58 865.06 629.78
00003977 00000204 550.00 177.52 410.30 609.99 709.50 411.13 885.96 407.37 832.71 543.88 730.22 635.82 863.89 631.57
00003978 00000205 550.05 179.57 411.59 610.55 706.59 412.76 883.20 408.61 827.49 547.79 727.35 640.86 858.42 636.15
00003979 00000206 549.56 181.96 413.42 612.06 704.46 412.06 879.83 409.47 822.05 550.44 726.20 644.14 851.12 640.17
00003980 00000207 551.36 181.31 412.69 612.42 702.91 413.00 878.96 409.18 819.75 551.98 725.59 645.65 850.67 640.64
00003981 00000208 552.23 178.62 411.84 613.06 701.39 412.00 878.51 407.53 818.00 550.99 725.88 644.40 850.89 638.80
00003982 00000209 552.96 173.61 412.49 613.55 700.96 410.93 878.02 406.39 816.20 548.47 726.34 640.06 852.15 634.37
00003983 00000210 548.49 164.56 408.48 622.61 701.68 411.15 871.67 406.63 811.31 548.61 723.28 638.59 856.66 634.27
00003984 00000211 547.93 166.47 408.38 620.63 699.44 411.79 870.16 406.99 808.43 549.48 721.34 639.49 854.66 635.14
00003985 00000212 546.62 167.80 409.17 619.59 698.32 414.50 868.18 408.37 806.42 552.59 721.17 641.88 852.58 636.72
00003986 00000213 544.90 172.19 409.98 616.02 696.64 415.85 866.81 409.73 804.15 554.73 719.56 643.10 850.49 638.27
00003987 00000214 544.11 174.84 410.81 615.11 694.30 415.79 866.30 410.61 802.61 556.59 716.15 643.58 849.45 639.72
00003988 00000215 546.93 184.52 413.01 607.22 689.33 415.24 869.30 410.74 801.94 556.97 715.16 646.35 839.64 640.95
00003989 00000216 543.18 177.05 411.20 613.85 692.91 417.49 866.38 414.75 801.03 559.59 712.20 645.12 845.56 643.64
00003990 00000217 542.76 177.11 411.53 615.54 690.38 418.95 864.84 417.10 799.15 559.74 709.42 646.83 844.13 646.32
00003991 00000218 545.54 186.19 411.83 614.27 686.46 416.83 865.10 417.09 798.21 559.13 707.34 649.40 834.47 647.96
00003992 00000219 545.68 186.65 411.11 616.07 687.49 418.91 866.45 421.06 799.44 561.59 705.45 650.84 834.93 651.05
00003993 00000220 546.97 187.51 411.65 616.40 688.98 420.52 867.43 422.58 800.92 563.11 706.21 651.18 836.99 651.27
00003994 00000221 549.07 184.98 412.22 616.02 691.69 419.19 868.20 419.93 802.58 561.13 710.54 648.96 840.10 647.75
00003995 00000222 551.35 181.92 416.85 620.10 694.50 416.65 871.51 414.40 805.71 557.96 715.87 648.02 846.78 643.78
00003996 00000223 556.73 176.88 418.04 625.23 700.10 416.55 875.45 413.07 812.29 558.11 721.44 646.47 854.25 641.28
00003997 00000224 561.75 173.62 420.10 626.90 703.42 418.35 880.30 414.14 817.01 558.04 723.96 646.07 861.21 640.58
00003998 00000225 564.82 170.43 422.51 630.59 707.54 419.24 885.56 414.62 822.34 558.61 728.80 646.81 865.93 641.04
00003999 00000226 569.38 167.45 421.08 632.98 710.85 419.88 891.07 415.12 827.39 559.00 732.21 648.13 870.85 642.49
00004000 00000227 581.39 163.44 414.20 643.58 717.36 416.13 897.87 423.55 824.52 553.47 727.77 639.54 877.05 647.90
00004001 00000228 585.60 162.42 414.74 641.34 717.23 415.75 897.85 421.74 823.73 553.11 730.25 638.96 878.16 646.06
00004002 00000229 588.61 160.46 415.52 640.02 716.60 413.51 896.73 418.65 821.57 551.82 730.45 637.38 878.52 643.56
00004003 00000230 594.63 159.80 412.75 638.39 717.15 411.74 897.01 417.27 820.96 549.24 729.47 634.57 879.94 640.84
00004004 00000231 600.01 160.12 413.66 638.03 718.25 412.73 900.26 417.88 820.75 550.58 730.93 635.61 884.28 641.29
00004005 00000232 605.85 165.02 414.34 633.97 721.11 415.53 905.51 419.87 822.81 552.80 734.99 637.76 890.09 642.60
00004006 00000233 611.67 166.12 412.69 633.18 725.65 419.96 910.18 425.96 825.81 555.78 736.57 637.96 895.28 643.89
00004007 00000234 616.23 166.88 415.05 633.82 731.39 421.22 917.96 429.38 831.34 557.37 741.25 639.62 901.50 647.09
00004008 00000235 618.92 168.24 419.03 634.56 740.29 422.56 925.68 430.98 837.32 562.35 750.59 642.60 906.14 649.86
00004009 00000236 622.84 175.60 419.41 628.65 750.28 426.39 935.24 436.27 847.72 564.28 757.29 645.15 910.34 653.60
00004010 00000237 626.03 178.54 420.98 628.57 756.30 428.74 938.54 436.89 854.44 569.16 764.18 649.17 914.24 656.11
00004011 00000238 625.63 184.66 425.77 625.38 759.39 432.31 941.80 443.51 856.83 575.44 764.68 651.00 913.16 660.59
00004012 00000239 635.28 182.39 426.25 627.51 766.25 434.38 956.14 451.10 861.68 582.75 765.01 647.81 913.46 664.17
00004013 00000240 637.28 185.18 423.96 630.36 767.09 439.14 958.46 456.99 864.33 589.68 763.79 654.46 912.87 671.77
00004014 00000241 628.92 192.66 432.43 627.32 767.02 441.04 948.00 454.81 865.30 596.61 770.28 668.47 909.87 678.28
00004015 00000242 627.67 202.06 433.96 619.03 767.33 446.18 948.27 459.49 865.56 602.77 770.21 673.03 910.12 682.92
00004016 00000243 626.46 203.76 434.01 619.37 764.58 452.04 946.55 463.92 864.46 608.07 768.56 675.72 912.88 684.88
00004017 00000244 624.96 211.23 430.74 612.54 762.00 458.05 944.07 467.44 863.76 610.53 768.57 678.48 915.08 685.80
00004018 00000245 622.61 217.61 432.55 611.38 764.99 460.90 945.63 469.48 866.52 613.58 770.70 683.26 913.10 689.99
00004019 00000246 622.39 226.01 434.06 606.90 767.82 467.19 950.00 474.98 869.99 619.77 773.19 687.92 916.48 694.41
00004020 00000247 625.08 226.15 433.60 606.44 769.35 469.47 954.50 476.37 873.12 625.97 774.98 690.37 921.59 696.39
00004021 00000248 626.41 227.33 434.62 607.24 773.11 470.95 958.61 478.02 876.81 630.02 775.68 691.25 923.77 697.77
00004022 00000249 625.80 231.12 433.81 610.26 777.91 473.69 958.55 481.71 879.31 631.82 775.70 692.16 921.89 699.89
00004023 00000250 624.50 236.70 431.58 606.31 780.01 479.71 956.39 487.99 877.29 637.87 776.64 694.69 918.38 703.05
00004024 00000251 621.39 242.83 431.80 604.72 778.74 485.26 952.45 493.34 874.23 644.47 773.10 695.65 916.09 704.23
00004025 00000252 616.07 249.08 434.43 602.96 773.64 487.50 949.66 496.37 869.95 648.63 767.73 696.94 913.69 706.45
00004026 00000253 612.49 257.15 436.27 598.24 769.68 491.11 947.37 500.68 865.64 651.47 763.69 699.12 910.85 709.21
00004027 00000254 609.35 262.13 436.40 596.42 764.10 495.24 944.68 504.03 861.28 653.74 758.49 701.40 909.82 710.97
00004028 00000255 605.95 270.64 435.69 588.13 758.30 499.68 943.74 508.34 857.24 661.12 751.37 703.91 905.98 714.03
00004029 00000256 606.46 277.83 431.83 580.80 756.65 502.46 940.23 511.83 854.45 666.69 749.56 704.91 901.01 716.13
00004030 00000257 606.60 275.11 428.85 581.87 753.55 503.50 938.52 511.14 852.99 665.16 748.60 705.54 900.39 715.42
00004031 00000258 604.29 270.67 428.04 584.91 749.62 502.95 935.10 507.99 850.67 659.87 747.21 705.40 900.69 713.13
00004032 00000259 601.59 269.51 428.74 584.88 746.27 500.23 933.63 505.91 848.65 655.92 742.99 703.71 899.12 712.17
00004033 00000260 601.01 266.27 428.09 587.90 745.15 498.37 931.30 504.77 847.10 652.37 742.19 703.85 897.02 712.72
00004034 00000261 599.59 265.02 429.12 591.20 744.39 499.21 931.40 505.46 846.69 653.90 742.48 707.06 895.55 715.79
00004035 00000262 599.86 265.07 427.63 588.30 742.31 500.94 932.52 505.32 845.98 655.88 742.94 711.79 894.46 718.81
00004036 00000263 599.73 266.47 428.39 586.62 741.79 503.13 932.98 506.55 846.62 657.96 742.58 712.39 895.36 718.62
00004037 00000264 597.98 266.25 429.77 589.17 740.65 503.69 932.02 506.72 845.98 658.35 741.00 711.97 895.90 717.87
00004038 00000265 594.89 265.68 431.82 593.41 740.42 502.91 930.32 507.77 843.74 656.86 735.74 708.31 893.18 716.19
00004039 00000266 594.36 264.17 432.52 596.72 740.64 502.17 929.53 507.42 843.37 656.94 735.48 707.01 893.84 715.31
00004040 00000267 596.33 263.63 432.20 594.08 742.13 500.73 931.34 505.28 845.38 655.31 739.14 707.44 896.20 715.03
00004041 00000268 597.90 256.99 432.66 596.84 744.16 497.93 933.84 500.51 849.05 652.03 744.08 707.73 900.16 713.38
00004042 00000269 598.30 251.85 435.86 599.15 745.47 494.66 938.30 497.13 852.59 650.43 747.22 708.57 903.31 713.77
00004043 00000270 599.52 247.77 438.64 604.89 748.96 491.21 940.77 495.38 854.91 648.62 748.17 706.06 905.13 712.41
00004044 00000271 601.60 238.99 440.24 616.71 756.69 489.16 941.57 493.79 859.61 645.61 754.43 703.35 907.17 709.48
00004045 00000272 603.80 237.38 440.90 617.02 763.08 486.10 947.40 488.50 869.81 642.54 760.17 700.08 914.31 704.03
00004046 DELETE   605.45 232.24 444.74 615.41 775.86 478.84 958.25 473.34 887.50 638.82 778.31 700.30 923.48 697.26
00004047 DELETE   610.54 222.99 446.08 622.35 796.41 470.49 977.95 460.39 918.10 626.43 799.22 697.92 942.73 690.36
00004048 00000275 623.36 211.51 442.58 625.92 810.64 458.23 996.03 456.55 934.45 614.50 807.37 684.12 943.82 686.96
00004049 00000276 625.07 200.97 441.97 628.89 820.89 449.66 1003.56 444.01 952.22 603.08 819.00 679.03 955.60 679.01
00004050 00000277 626.60 197.62 440.91 625.17 827.67 441.04 1006.85 434.62 961.31 592.86 831.56 674.33 964.04 673.32
00004051 00000278 629.47 194.54 437.49 627.59 832.47 433.95 1008.79 428.41 966.72 586.29 834.27 669.65 966.09 669.20
00004052 00000279 630.01 192.79 437.40 626.50 832.66 429.05 1008.73 425.18 965.52 582.24 833.36 664.88 967.43 665.36
00004053 00000280 631.79 185.01 433.74 632.89 830.59 424.80 1007.81 423.43 962.29 575.84 829.98 662.46 966.28 664.70
00004054 00000281 633.84 179.75 432.76 638.00 829.16 422.67 1005.74 422.06 960.80 572.93 825.96 659.96 964.75 663.01
00004055 00000282 632.53 176.38 435.12 641.09 828.35 418.25 1005.28 418.31 962.36 569.05 823.38 656.99 963.46 660.89
00004056 00000283 631.71 175.54 436.27 642.69 828.82 413.87 1001.76 415.83 961.67 566.32 821.76 652.12 961.77 657.63
00004057 00000284 632.13 172.65 436.83 647.66 830.07 411.28 1001.38 413.36 963.14 563.39 821.43 650.47 962.28 655.94
00004058 00000285 634.19 172.79 437.38 648.82 831.57 408.81 1001.98 410.94 965.20 562.21 825.11 650.29 965.25 655.66
00004059 00000286 635.24 172.47 438.97 648.25 833.04 408.36 1003.65 409.13 968.05 562.22 826.69 649.62 968.28 653.78
00004060 00000287 637.99 170.49 436.91 648.95 833.45 405.64 1003.17 407.95 965.89 561.57 829.15 650.53 967.98 655.77
00004061 00000288 640.81 169.19 433.35 645.33 830.39 403.64 1004.50 406.34 962.04 560.32 830.46 650.43 970.26 655.48
00004062 00000289 642.81 168.41 431.40 640.93 827.81 401.39 1005.97 403.81 961.16 557.00 832.60 649.98 974.22 654.44
00004063 00000290 644.59 170.43 430.72 636.72 827.93 400.52 1007.15 402.61 961.13 555.79 832.04 649.01 974.31 653.27
00004064 00000291 644.96 164.88 431.62 644.00 831.34 397.28 1005.59 403.60 959.49 553.34 830.87 644.02 970.36 651.51
00004065 00000292 645.51 163.34 431.60 644.48 832.63 395.28 1004.45 402.00 959.11 550.38 830.14 640.76 968.48 648.46
00004066 00000293 642.61 162.90 432.10 645.60 829.89 395.60 1002.52 402.05 956.34 549.09 828.35 639.96 968.66 647.35
00004067 00000294 643.21 165.20 428.12 643.07 827.40 395.22 999.46 400.24 955.03 549.79 826.24 640.08 966.96 646.45
00004068 00000295 641.93 162.60 426.15 645.07 823.40 396.02 995.30 401.74 950.04 549.13 819.41 637.38 964.20 644.55
00004069 00000296 634.74 163.01 430.74 641.38 804.73 400.12 991.37 397.80 942.05 548.70 812.60 640.21 961.02 638.75
00004070 00000297 624.47 163.89 436.25 643.96 797.33 399.78 985.56 401.10 930.71 550.69 805.49 639.07 954.18 639.72
00004071 00000298 616.16 166.43 438.21 642.31 790.50 409.22 976.34 409.66 918.91 555.47 797.95 643.03 946.17 642.30
00004072 00000299 609.61 158.48 430.67 652.97 783.61 422.35 961.27 419.31 902.77 560.25 788.20 647.35 937.91 645.12
00004073 DELETE   598.97 168.91 430.22 644.73 761.73 427.95 944.01 424.25 879.69 567.86 769.68 649.58 925.06 647.67
00004074 DELETE   589.28 170.49 430.89 645.95 747.58 435.08 929.58 430.15 864.22 571.53 757.92 651.35 914.67 649.02
00004075 00000302 583.64 183.49 430.36 637.95 736.60 442.74 920.42 437.50 851.97 580.03 747.44 655.18 904.65 653.45
00004076 00000303 582.31 186.32 428.28 640.04 731.37 449.73 917.70 442.77 848.10 588.96 741.75 659.32 901.48 656.20
00004077 00000304 578.00 193.48 429.03 636.40 726.02 453.56 916.13 447.31 844.91 596.20 738.16 664.36 897.79 662.10
00004078 00000305 574.42 194.18 429.78 639.05 720.86 457.29 912.91 450.27 840.62 598.66 734.99 667.98 896.11 664.84
00004079 00000306 570.28 196.29 431.40 639.58 715.79 458.90 909.74 452.97 836.47 603.10 730.55 670.39 892.17 668.10
00004080 00000307 564.92 196.11 432.71 642.98 710.37 462.81 905.69 455.82 831.71 607.73 725.98 673.81 889.35 670.30
00004081 00000308 552.31 202.93 435.12 640.12 709.71 468.01 889.08 453.51 830.98 610.40 730.10 689.21 882.80 675.78
00004082 00000309 549.12 206.17 438.29 642.27 705.19 471.88 886.33 455.07 825.64 615.03 728.14 693.44 881.67 678.09
00004083 00000310 548.80 211.42 440.57 644.20 705.58 476.94 885.91 458.31 822.98 624.25 728.70 698.19 882.39 681.66
00004084 00000311 550.37 216.29 441.83 646.69 704.29 480.53 884.58 463.30 819.03 629.74 726.97 701.97 883.82 686.53
00004085 00000312 552.40 217.72 441.42 647.10 704.02 484.72 883.94 467.30 817.73 633.05 727.08 704.88 883.78 689.39
00004086 00000313 553.75 221.29 441.78 645.03 704.22 486.71 885.46 469.74 816.98 634.95 727.98 708.58 884.10 693.50
00004087 00000314 554.22 222.53 441.24 644.78 704.09 489.05 884.85 472.54 815.52 636.84 726.76 708.54 883.26 694.05
00004088 00000315 553.49 223.68 440.60 643.12 702.57 488.60 883.34 471.95 813.66 636.66 726.07 709.40 881.94 694.70
00004089 00000316 549.04 223.03 442.51 642.64 698.86 487.89 879.40 471.77 810.28 636.58 723.29 709.22 877.66 695.01
00004090 00000317 547.94 225.39 441.60 641.64 694.35 488.52 876.45 473.17 805.87 638.73 718.34 710.46 874.17 697.22
00004091 00000318 544.88 226.30 443.02 640.48 689.31 490.05 873.69 474.35 801.32 640.13 712.89 709.78 872.00 696.81
00004092 00000319 541.39 228.73 444.56 638.41 683.56 494.25 867.83 477.44 794.62 642.18 707.40 710.16 867.33 696.91
00004093 00000320 537.91 227.48 447.11 642.07 678.51 495.14 864.52 479.52 789.23 643.89 702.53 710.46 865.17 698.21
00004094 00000321 535.69 225.62 448.12 646.19 673.34 496.15 861.02 481.67 783.87 644.14 698.35 711.65 861.79 700.34
00004095 00000322 533.59 227.07 448.77 646.11 666.85 495.41 858.40 481.85 778.23 645.54 692.52 711.97 860.13 701.50
00004096 00000323 531.76 227.00 446.42 645.11 662.96 495.12 854.38 481.69 775.68 643.29 688.46 712.55 855.73 702.35
00004097 00000324 528.39 223.99 446.57 646.78 659.99 494.96 850.48 481.12 774.47 640.15 685.88 712.31 852.69 701.76
00004098 00000325 526.49 222.97 447.02 648.73 657.60 494.30 848.64 480.70 773.41 640.24 684.05 713.53 850.92 703.16
00004099 00000326 524.09 223.59 448.47 648.24 656.45 494.10 848.07 480.52 772.85 640.77 683.18 714.63 849.57 704.34
00004100 00000327 522.34 221.31 448.99 650.39 655.32 494.95 847.34 481.13 772.31 641.81 682.72 716.51 847.95 705.97
00004101 00000328 522.05 225.75 448.05 645.23 653.75 495.39 848.13 482.04 770.85 643.94 681.89 718.23 847.52 708.20
00004102 00000329 522.92 226.86 447.47 643.26 653.87 497.55 848.94 483.71 771.35 645.19 682.73 718.69 848.67 708.34
00004103 00000330 523.45 226.29 446.98 641.69 654.94 497.98 850.50 484.26 772.38 646.34 684.78 719.00 849.33 708.81
00004104 00000331 524.62 225.58 446.92 641.14 656.56 498.17 853.15 484.32 774.50 647.56 686.28 718.51 851.78 708.25
00004105 00000332 527.60 224.66 445.91 638.53 658.10 497.79 856.37 484.07 776.53 647.54 688.71 718.94 852.78 708.83
00004106 00000333 530.56 226.05 444.29 636.48 661.72 499.44 858.77 484.08 779.09 647.77 691.99 718.37 856.43 706.91
00004107 00000334 531.93 225.37 444.61 635.66 663.67 499.71 859.24 482.58 781.83 646.99 695.82 717.55 858.70 704.51
00004108 00000335 532.45 228.41 444.47 634.02 666.47 501.89 860.99 483.28 784.64 647.59 699.52 718.60 861.57 704.25
00004109 00000336 533.87 232.48 443.26 630.53 668.02 503.52 861.67 483.68 786.27 650.59 703.03 719.99 862.89 704.72
00004110 00000337 534.50 235.38 442.80 625.91 668.05 505.26 860.83 484.34 786.11 653.18 705.89 720.99 863.81 704.81
00004111 00000338 531.47 234.69 443.74 623.76 666.59 504.90 857.65 481.02 785.78 651.15 709.57 719.99 865.50 701.34
00004112 00000339 527.18 236.36 442.31 622.03 661.43 500.39 849.96 475.91 780.53 646.70 709.06 719.21 862.10 700.00
00004113 00000340 522.49 234.54 443.09 621.96 653.64 496.87 842.93 469.35 775.89 640.52 706.93 717.85 861.82 695.96
00004114 00000341 520.77 230.16 441.46 622.97 649.92 493.23 836.09 466.00 771.04 632.31 702.96 713.19 857.08 691.67
00004115 00000342 519.65 227.34 441.27 622.90 648.64 486.09 833.27 460.13 769.66 625.61 701.20 708.11 853.34 687.79
00004116 00000343 518.96 217.37 439.72 630.82 648.04 480.41 833.80 455.98 769.77 623.15 698.39 704.38 849.56 685.30
00004117 00000344 520.58 212.22 436.21 632.53 647.11 476.04 833.35 453.30 769.07 618.13 697.45 702.12 847.08 684.14
00004118 00000345 520.60 209.88 434.67 630.94 647.57 474.52 834.97 452.09 770.23 615.79 697.78 701.01 845.61 683.38
00004119 00000346 519.47 208.37 435.48 629.04 651.97 473.87 836.37 453.97 771.38 614.79 696.38 698.39 841.38 683.01
00004120 00000347 519.70 209.43 433.79 627.45 650.72 478.86 837.42 458.39 770.82 613.89 693.64 697.02 842.69 681.88
00004121 00000348 520.19 208.07 433.86 627.26 651.61 476.03 838.41 454.42 772.71 613.90 694.75 696.00 844.31 679.71
00004122 00000349 522.40 208.29 432.77 627.28 654.21 474.71 838.62 454.27 774.08 614.97 696.19 695.35 845.05 679.83
00004123 00000350 525.59 209.84 430.67 625.89 657.03 475.11 840.22 453.30 777.84 615.79 700.86 697.50 846.65 680.69
00004124 00000351 528.62 216.66 430.46 619.96 659.67 474.11 844.09 452.34 781.33 615.53 704.35 698.62 850.28 681.55
00004125 00000352 531.13 216.47 431.05 622.29 663.90 474.02 849.45 453.35 785.22 616.94 706.03 698.78 854.86 682.15
00004126 00000353 534.28 213.73 433.68 626.41 670.19 473.39 856.63 452.54 791.85 617.10 709.94 699.59 858.58 682.44
00004127 00000354 539.98 212.63 431.04 626.80 677.78 472.41 862.64 451.62 798.12 615.48 716.53 699.77 862.09 682.05
00004128 00000355 540.67 209.98 434.03 630.16 682.52 472.66 866.63 450.83 802.39 616.19 720.29 700.04 865.28 681.29
00004129 00000356 544.10 206.82 433.13 632.95 687.06 472.81 869.95 452.07 806.58 616.95 723.53 698.63 868.60 680.68
00004130 00000357 546.09 208.23 433.42 631.39 690.67 471.96 872.72 452.89 808.08 616.27 724.72 696.49 870.84 679.80
00004131 00000358 548.15 205.56 432.54 632.93 694.70 470.79 874.46 452.13 811.05 615.13 727.93 695.58 871.66 678.84
00004132 00000359 549.02 206.96 432.56 630.45 698.35 469.65 876.41 451.34 815.00 613.35 730.94 694.77 871.96 678.08
00004133 00000360 549.49 205.23 432.48 630.84 699.76 469.28 878.03 450.98 817.49 611.80 731.86 693.59 873.66 676.77
CROP_BBOX: 287 0 1336 1022
