Video ID: 	WFP6pJstfZM
H: 	1080
W: 	1920
FPS: 	23.976023976023978

FRAME INDEX X0 Y0 W H [Landmarks (5 Points)]

00000285 00000000 1317.57 86.18 369.69 564.72 1387.00 295.32 1557.47 298.78 1443.44 384.64 1385.13 473.70 1553.93 478.05
00000286 00000001 1317.60 85.78 369.89 564.68 1386.87 294.45 1557.93 299.04 1442.87 384.48 1384.07 473.82 1553.05 479.26
00000287 00000002 1317.12 86.85 370.72 563.65 1386.46 294.26 1557.07 299.28 1442.33 384.76 1383.60 473.24 1552.37 479.05
00000288 00000003 1315.72 86.24 370.90 564.95 1385.15 294.64 1554.71 299.13 1441.64 385.07 1383.86 473.27 1551.42 478.47
00000289 00000004 1315.79 86.58 370.23 564.96 1384.66 293.88 1554.57 299.32 1440.62 386.20 1381.98 473.38 1549.65 479.26
00000290 00000005 1315.69 87.60 369.19 564.49 1384.72 294.55 1553.81 299.92 1440.20 387.17 1381.78 473.69 1549.40 479.57
00000291 00000006 1315.26 88.16 369.13 564.57 1384.79 294.57 1553.58 300.05 1440.22 387.07 1381.88 473.70 1549.22 479.60
00000292 00000007 1314.97 88.40 369.51 563.91 1384.53 294.61 1553.89 300.16 1440.22 387.31 1381.39 473.97 1549.24 479.91
00000293 00000008 1314.95 88.36 369.43 564.04 1384.73 294.69 1554.32 300.09 1441.36 387.26 1381.41 473.89 1550.19 479.75
00000294 00000009 1314.63 87.07 369.90 565.46 1384.79 295.33 1554.60 300.31 1442.77 387.34 1382.71 474.69 1551.34 480.26
00000295 00000010 1315.26 85.38 369.75 566.98 1384.97 295.91 1555.00 300.28 1443.36 387.05 1383.48 474.92 1552.39 480.00
00000296 00000011 1316.54 84.24 368.78 568.71 1384.71 296.82 1555.08 298.70 1441.14 387.07 1385.06 480.50 1549.78 483.88
00000297 00000012 1319.06 80.30 368.74 569.56 1384.95 294.76 1554.50 294.85 1441.23 387.77 1389.22 484.68 1543.70 486.49
00000298 00000013 1319.62 80.60 369.06 569.59 1387.69 297.87 1555.07 299.07 1443.52 389.06 1392.50 486.58 1543.37 489.30
00000299 00000014 1320.41 81.46 368.93 564.78 1392.03 299.86 1558.74 303.25 1450.55 391.22 1397.82 487.40 1544.31 491.71
00000300 DELETE   1327.68 88.71 372.33 560.04 1415.97 308.32 1588.76 310.02 1492.73 387.48 1423.69 489.48 1586.31 492.09
00000301 DELETE   1330.35 87.64 372.51 556.09 1430.63 307.10 1602.62 305.81 1521.97 382.50 1446.14 492.88 1598.32 492.78
00000302 DELETE   1335.74 93.81 368.43 542.03 1443.76 303.60 1610.18 300.30 1539.37 377.63 1462.03 490.47 1603.84 488.43
00000303 00000018 1335.50 92.65 373.01 558.28 1447.52 303.34 1614.17 303.08 1542.60 381.75 1463.23 496.68 1605.59 497.21
00000304 00000019 1331.02 95.20 377.73 569.68 1445.39 307.57 1616.96 307.17 1541.67 391.11 1459.73 505.66 1608.40 505.81
00000305 00000020 1332.52 96.55 377.21 561.11 1447.06 310.96 1619.66 312.28 1544.98 393.80 1460.71 503.93 1610.98 505.85
00000306 00000021 1335.10 95.41 372.56 554.77 1450.23 314.59 1625.72 315.41 1551.68 400.81 1466.77 508.72 1614.44 510.53
00000307 00000022 1335.71 95.69 371.95 556.15 1450.70 316.06 1627.30 316.69 1553.35 403.92 1468.57 511.25 1616.21 512.82
00000308 00000023 1324.28 98.35 377.01 561.26 1440.93 316.10 1615.33 320.80 1541.74 406.24 1456.07 509.05 1607.44 513.81
00000309 00000024 1319.66 99.43 381.74 561.92 1436.88 315.83 1608.69 320.08 1536.75 408.03 1452.75 508.41 1602.74 512.53
00000310 00000025 1319.01 96.56 380.72 565.87 1434.81 316.86 1608.81 319.85 1536.58 410.12 1453.01 511.94 1604.06 514.79
00000311 00000026 1319.41 95.40 379.17 568.91 1435.03 319.07 1609.28 320.76 1538.85 411.82 1455.19 514.23 1606.62 516.22
00000312 00000027 1317.28 89.27 380.01 579.97 1431.68 321.65 1607.99 321.07 1536.25 412.73 1452.92 517.69 1605.95 517.80
00000313 00000028 1313.84 90.96 381.09 581.08 1425.07 325.20 1603.98 326.47 1525.68 417.03 1442.99 519.62 1601.00 520.95
00000314 00000029 1310.92 94.55 381.65 580.15 1419.49 329.35 1599.36 331.03 1518.28 419.01 1435.41 521.31 1597.13 523.19
00000315 00000030 1311.83 97.16 379.74 577.00 1417.98 331.02 1599.92 331.80 1516.95 420.20 1434.12 521.33 1599.16 522.38
00000316 00000031 1314.03 101.08 377.54 574.32 1422.71 334.74 1603.64 337.27 1522.55 425.25 1436.97 521.33 1603.91 523.93
00000317 00000032 1314.32 103.93 376.14 575.01 1421.78 337.65 1602.44 339.15 1520.52 431.77 1434.02 522.10 1604.69 523.93
00000318 00000033 1312.19 104.82 377.82 573.66 1418.42 339.30 1599.03 339.82 1516.92 433.93 1430.49 523.97 1600.39 525.09
00000319 00000034 1310.45 106.85 378.21 573.11 1415.93 340.95 1598.84 340.79 1514.52 434.58 1428.40 525.77 1599.78 526.12
00000320 00000035 1312.14 109.08 379.02 572.28 1419.41 341.86 1600.71 341.87 1517.91 437.56 1430.95 526.69 1601.19 527.43
00000321 00000036 1312.83 109.18 378.65 572.63 1420.43 342.87 1601.90 342.45 1519.35 438.99 1432.30 527.40 1602.79 527.73
00000322 00000037 1312.51 111.50 378.03 570.91 1419.19 343.21 1601.45 342.73 1517.47 441.39 1429.49 527.68 1601.84 528.03
00000323 00000038 1310.49 112.51 379.93 572.25 1416.35 344.96 1599.06 342.81 1514.31 443.08 1427.61 530.23 1599.28 529.08
00000324 00000039 1310.20 114.61 379.85 569.15 1415.16 345.88 1599.40 344.53 1513.22 445.18 1426.23 529.99 1599.56 529.65
00000325 00000040 1310.39 115.00 379.60 568.46 1415.79 345.85 1599.40 344.21 1514.00 444.57 1427.31 529.66 1600.13 529.13
00000326 00000041 1310.65 114.99 378.50 568.44 1415.39 345.63 1599.14 344.87 1512.76 445.15 1426.15 529.61 1599.21 529.74
00000327 00000042 1308.87 116.61 379.13 568.26 1413.34 346.37 1597.60 345.31 1511.06 445.69 1422.98 529.19 1598.43 529.02
00000328 00000043 1308.48 118.58 378.44 568.68 1413.01 347.23 1597.42 346.21 1511.04 446.73 1421.74 529.50 1598.80 529.41
00000329 00000044 1308.49 117.77 379.13 568.71 1413.93 347.01 1598.22 345.79 1512.59 447.23 1423.62 530.32 1599.23 530.05
00000330 00000045 1308.49 118.56 379.19 567.99 1413.77 347.33 1597.92 346.02 1512.56 447.61 1424.00 530.86 1599.02 530.47
00000331 00000046 1307.61 118.35 379.57 568.84 1412.80 348.16 1596.77 346.42 1511.47 448.70 1422.52 530.63 1598.46 529.90
00000332 00000047 1306.74 117.83 380.35 570.97 1411.63 348.89 1595.73 347.03 1510.04 450.20 1420.66 531.04 1598.10 530.17
00000333 00000048 1307.61 117.88 379.79 569.88 1412.37 348.62 1597.13 346.68 1511.38 449.35 1422.24 531.13 1599.31 530.18
00000334 00000049 1307.89 117.83 379.85 569.86 1413.43 348.07 1597.86 346.73 1512.11 449.11 1423.21 531.37 1598.85 530.94
00000335 00000050 1306.89 117.51 380.09 570.56 1412.48 348.61 1596.95 346.71 1511.67 449.30 1421.80 530.72 1599.10 529.83
00000336 00000051 1305.83 116.80 380.93 573.63 1411.42 348.38 1596.11 346.48 1510.39 449.02 1419.93 530.63 1598.61 529.66
00000337 00000052 1306.38 114.40 380.37 573.84 1411.98 347.35 1597.68 345.24 1512.30 446.87 1421.85 530.52 1599.73 529.35
00000338 00000053 1306.85 112.77 381.06 570.16 1412.78 346.75 1598.61 342.86 1514.96 444.29 1426.04 530.06 1600.88 527.39
00000339 00000054 1304.93 110.14 382.81 573.18 1411.68 345.11 1597.11 340.73 1514.85 441.20 1426.37 529.88 1600.03 526.69
00000340 00000055 1300.94 112.37 378.28 576.47 1399.37 353.66 1578.16 346.93 1495.64 452.81 1421.08 539.48 1585.85 533.63
00000341 00000056 1297.38 119.27 382.00 580.82 1395.88 358.72 1574.76 353.31 1490.94 459.57 1417.82 544.86 1582.90 540.09
00000342 00000057 1297.86 125.98 379.21 580.93 1398.24 365.47 1577.17 357.72 1497.07 465.13 1420.51 551.01 1586.10 544.32
00000343 00000058 1297.20 127.13 379.71 581.30 1401.12 371.52 1577.67 358.20 1501.74 468.82 1424.90 554.51 1590.11 542.94
00000344 00000059 1288.30 122.89 382.63 581.20 1390.36 374.36 1567.88 361.69 1491.96 472.54 1419.08 556.72 1579.78 545.97
00000345 00000060 1286.02 122.73 382.41 583.52 1386.36 375.87 1562.93 363.70 1486.18 476.06 1414.01 555.92 1576.35 545.61
00000346 00000061 1284.62 125.91 383.92 578.75 1386.89 376.27 1564.04 363.73 1487.81 476.38 1412.99 555.00 1576.97 544.48
00000347 00000062 1285.02 123.07 384.79 579.06 1388.58 376.91 1564.89 363.51 1488.51 473.99 1414.85 553.59 1578.57 542.13
00000348 00000063 1285.09 121.60 383.59 579.24 1387.99 371.01 1563.89 360.11 1486.89 469.36 1412.45 548.41 1577.24 538.85
00000349 00000064 1283.95 121.79 384.69 581.64 1385.74 368.50 1562.33 359.67 1484.04 470.50 1408.01 546.55 1576.05 538.70
00000350 00000065 1283.25 122.10 385.31 582.04 1384.64 367.45 1561.54 359.25 1482.43 470.74 1406.33 546.82 1573.99 539.57
00000351 00000066 1283.45 121.30 385.11 584.97 1385.18 367.22 1562.29 359.53 1482.99 469.42 1406.57 546.67 1575.38 539.74
00000352 00000067 1284.01 122.04 383.86 581.63 1386.81 368.71 1563.27 359.92 1485.37 470.00 1408.94 546.58 1576.82 538.71
00000353 00000068 1283.63 121.55 383.39 581.55 1386.30 369.66 1563.36 360.60 1485.10 471.62 1407.70 545.84 1578.23 537.74
00000354 00000069 1282.25 122.43 383.97 581.31 1385.16 371.13 1562.24 361.48 1484.44 472.84 1406.63 546.98 1576.50 538.37
00000355 00000070 1280.79 124.23 384.24 579.43 1383.23 372.92 1561.11 361.78 1484.09 474.29 1406.14 548.34 1576.21 538.49
00000356 00000071 1279.87 125.76 384.32 577.59 1381.63 373.09 1559.76 362.98 1482.03 474.20 1404.40 548.26 1574.51 539.24
00000357 00000072 1278.76 126.98 385.79 576.08 1381.12 372.98 1559.28 362.03 1482.04 474.39 1405.17 548.69 1574.35 539.09
00000358 00000073 1278.50 127.59 385.98 575.53 1381.15 372.88 1558.92 361.85 1481.95 474.46 1405.75 548.69 1574.17 538.99
00000359 00000074 1278.66 126.21 385.76 576.81 1380.81 372.78 1558.37 362.07 1481.06 474.32 1406.23 549.42 1573.02 539.96
00000360 00000075 1279.33 122.38 382.02 578.91 1382.61 377.78 1558.44 367.38 1481.47 475.04 1409.47 552.86 1571.57 543.82
00000361 00000076 1279.11 121.98 380.53 579.72 1383.91 381.59 1556.58 371.59 1480.68 474.57 1409.86 553.21 1569.79 544.38
00000362 00000077 1278.17 121.23 381.08 580.81 1383.32 381.40 1556.99 371.64 1481.01 474.74 1410.56 554.56 1569.34 545.91
00000363 00000078 1276.10 122.70 382.59 581.02 1379.91 378.63 1557.59 367.27 1482.30 475.72 1408.26 556.44 1569.90 546.72
00000364 00000079 1272.77 124.54 386.93 581.74 1377.20 373.58 1557.27 362.22 1480.81 476.98 1408.39 557.66 1570.19 547.89
00000365 00000080 1272.39 124.33 387.90 583.02 1376.87 372.59 1556.43 362.20 1480.09 477.51 1407.31 557.11 1568.93 548.14
00000366 00000081 1272.39 125.26 387.58 581.67 1376.22 372.37 1556.18 362.53 1479.06 478.03 1406.62 556.83 1568.44 548.33
00000367 00000082 1271.82 125.55 388.66 581.75 1375.81 371.88 1555.81 361.81 1478.56 477.58 1406.52 556.67 1568.39 547.96
00000368 00000083 1271.54 126.29 388.61 581.31 1375.35 371.78 1556.14 361.59 1478.37 478.44 1406.25 557.02 1568.37 548.22
00000369 00000084 1271.79 126.37 388.37 580.67 1375.16 371.72 1555.41 361.49 1478.03 478.46 1406.56 556.76 1568.14 547.88
00000370 00000085 1271.85 126.29 387.89 579.54 1374.88 371.45 1554.80 361.65 1476.71 478.55 1406.58 556.89 1567.18 548.37
00000371 00000086 1272.01 125.49 387.78 579.70 1374.81 371.40 1554.57 362.12 1475.96 478.26 1405.38 556.41 1566.29 548.32
00000372 00000087 1271.53 126.78 388.53 578.25 1374.45 370.94 1553.84 361.60 1475.30 478.04 1405.33 556.39 1565.30 548.26
00000373 00000088 1271.33 126.67 388.67 578.55 1374.49 370.83 1554.23 361.26 1476.06 477.79 1405.84 556.58 1565.82 548.25
00000374 00000089 1271.54 127.60 388.73 575.90 1374.70 371.48 1554.71 362.09 1476.06 478.98 1406.24 556.65 1565.65 548.55
00000375 00000090 1271.39 127.11 389.28 576.97 1374.24 371.54 1554.63 362.19 1475.67 478.80 1405.74 556.93 1565.74 548.78
00000376 00000091 1271.68 126.19 389.12 577.01 1374.10 371.50 1555.31 363.08 1475.05 478.80 1405.38 557.12 1565.28 549.70
00000377 00000092 1271.66 128.22 389.74 576.14 1374.29 371.74 1555.89 362.68 1475.47 479.91 1405.43 557.66 1565.88 549.81
00000378 00000093 1271.61 128.04 389.34 575.74 1374.08 372.26 1556.50 363.23 1475.70 480.89 1404.77 557.76 1566.20 549.90
00000379 00000094 1270.56 127.37 390.09 576.15 1373.87 373.01 1556.48 363.57 1475.88 480.21 1405.01 558.17 1566.20 549.97
00000380 00000095 1270.55 127.46 389.29 576.18 1373.26 373.94 1556.28 364.18 1475.85 480.89 1404.38 558.77 1566.23 550.31
00000381 00000096 1270.04 127.69 389.86 575.46 1373.24 374.65 1556.21 364.39 1476.28 481.17 1404.97 559.43 1566.50 550.60
00000382 00000097 1270.66 128.75 388.84 574.94 1373.31 375.42 1556.08 364.76 1476.62 481.62 1405.20 559.56 1567.09 550.41
00000383 00000098 1270.66 129.46 389.21 574.91 1373.26 375.28 1556.17 364.14 1476.67 481.69 1405.46 559.91 1567.38 550.38
00000384 00000099 1271.10 127.56 389.97 576.62 1373.93 373.41 1556.63 362.64 1476.82 481.06 1406.59 559.12 1567.96 549.85
00000385 00000100 1272.20 127.61 389.38 576.19 1374.26 372.28 1556.38 362.54 1475.99 480.91 1406.18 558.58 1566.75 550.18
00000386 00000101 1272.82 127.77 389.03 574.98 1374.21 372.18 1555.87 361.72 1475.69 480.26 1407.11 559.08 1566.34 550.11
00000387 00000102 1273.46 127.54 387.82 575.32 1374.62 371.67 1555.13 362.09 1475.02 479.05 1407.14 558.83 1565.06 550.67
00000388 00000103 1273.33 125.41 387.97 576.70 1374.73 370.81 1554.54 360.98 1474.94 477.55 1411.45 559.91 1565.71 551.38
00000389 00000104 1273.87 126.89 387.69 575.08 1374.63 370.44 1553.23 360.14 1473.80 475.28 1411.92 559.61 1565.10 550.70
00000390 00000105 1274.30 124.60 388.29 579.19 1375.07 369.11 1552.40 359.07 1473.61 474.30 1413.05 559.29 1565.01 550.58
00000391 00000106 1273.31 123.96 388.29 580.58 1374.42 368.78 1552.15 358.08 1474.53 473.42 1412.34 559.55 1564.71 550.37
00000392 00000107 1270.69 123.10 389.56 569.99 1372.61 367.46 1552.11 353.28 1474.83 468.68 1416.95 558.89 1566.86 546.56
00000393 00000108 1269.36 125.71 390.82 566.39 1371.41 366.28 1549.99 351.94 1473.00 467.43 1415.71 558.15 1564.73 545.76
00000394 00000109 1269.93 125.83 389.82 566.65 1370.90 365.30 1548.69 350.56 1472.00 466.21 1415.31 556.27 1565.27 543.48
00000395 00000110 1267.80 126.69 390.88 564.90 1369.89 363.79 1547.88 349.95 1471.07 466.61 1412.43 554.57 1563.19 542.65
00000396 00000111 1267.36 121.29 389.76 572.22 1367.17 360.53 1543.93 348.32 1466.35 465.42 1407.40 552.63 1559.83 542.17
00000397 00000112 1266.82 120.50 389.22 569.89 1365.62 359.83 1542.04 346.95 1464.88 463.73 1407.09 551.10 1559.35 539.94
00000398 00000113 1265.40 119.62 389.80 567.41 1363.52 357.82 1539.51 344.34 1463.40 462.57 1406.45 550.74 1557.75 538.88
00000399 00000114 1262.20 118.52 392.29 567.17 1361.04 356.95 1537.13 341.91 1461.51 459.56 1405.91 550.65 1556.58 537.59
00000400 00000115 1259.47 111.82 388.41 561.80 1357.12 355.40 1533.46 333.78 1457.51 455.24 1406.88 546.72 1554.40 528.35
00000401 00000116 1258.50 114.09 387.57 558.34 1354.46 353.94 1531.63 329.91 1455.35 452.39 1408.07 546.90 1555.32 526.47
00000402 00000117 1257.66 113.44 387.60 559.51 1352.65 352.84 1530.24 327.70 1453.76 449.38 1408.23 548.00 1554.14 526.58
00000403 00000118 1257.04 112.60 388.77 562.73 1353.23 352.17 1529.99 326.17 1455.03 449.27 1408.99 547.67 1555.06 525.48
00000404 00000119 1260.26 113.11 390.70 558.53 1357.62 353.89 1531.99 327.51 1459.15 447.10 1415.67 547.68 1557.05 525.49
00000405 00000120 1262.79 113.59 390.50 559.04 1360.07 354.51 1534.21 328.13 1462.64 448.07 1418.28 546.80 1560.93 524.31
00000406 00000121 1263.59 111.75 391.65 561.53 1360.79 353.97 1534.98 328.04 1463.63 447.57 1417.75 545.29 1563.20 522.86
00000407 00000122 1263.68 111.26 391.48 562.53 1360.72 352.50 1536.25 326.79 1463.95 446.74 1417.11 545.33 1563.41 523.02
00000408 00000123 1262.66 109.17 391.55 567.19 1361.68 350.74 1533.61 326.26 1462.52 441.93 1419.00 548.35 1555.77 528.01
00000409 00000124 1261.62 109.68 392.79 568.41 1362.36 350.86 1532.70 326.86 1463.08 442.32 1418.55 549.42 1552.86 529.64
00000410 00000125 1261.24 112.12 392.27 565.80 1362.54 351.56 1531.76 327.71 1462.90 442.97 1418.04 549.08 1551.15 529.59
00000411 00000126 1259.51 111.39 392.69 567.21 1360.54 351.38 1530.71 328.08 1460.59 442.02 1414.63 548.57 1549.88 529.47
00000412 00000127 1254.18 113.53 392.99 572.68 1350.89 352.95 1525.61 323.87 1454.50 445.12 1408.01 550.69 1554.02 526.24
00000413 00000128 1249.58 127.62 390.50 562.29 1344.84 358.86 1523.31 320.85 1454.42 447.86 1398.12 555.71 1551.07 522.08
00000414 00000129 1245.19 124.84 391.13 566.24 1339.74 360.08 1518.77 322.23 1448.99 448.13 1392.65 555.51 1547.18 521.60
CROP_BBOX: 932 0 1918 925
