Video ID: 	H24b8ypFAtA
H: 	1080
W: 	1920
FPS: 	25.0

FRAME INDEX X0 Y0 W H [Landmarks (5 Points)]

00026428 00000000 436.42 156.38 449.03 632.69 577.08 405.22 785.34 389.09 709.28 538.33 619.52 640.13 790.33 627.28
00026429 DELETE   443.97 163.13 447.95 631.09 585.53 412.46 793.90 398.47 718.53 542.45 624.11 644.90 796.20 633.97
00026430 00000002 450.18 161.57 445.44 637.80 595.35 417.58 801.32 405.18 727.60 548.63 628.39 649.06 800.08 639.52
00026431 00000003 453.76 169.04 447.67 635.90 598.70 423.54 807.04 413.36 729.53 557.10 629.76 653.53 803.68 645.85
00026432 00000004 456.42 181.75 447.07 627.38 600.04 432.92 812.63 425.21 730.80 575.62 632.42 664.95 801.03 659.27
00026433 00000005 459.95 189.73 445.77 634.96 599.14 442.51 808.45 435.34 725.87 585.72 632.36 675.34 798.49 670.19
00026434 00000006 464.27 193.86 440.02 635.10 598.13 441.70 809.52 436.09 729.41 582.31 639.86 686.46 794.46 679.98
00026435 00000007 463.21 197.38 439.50 630.62 597.06 435.00 809.86 430.75 729.41 579.26 638.29 681.96 792.33 676.75
00026436 00000008 456.73 182.38 446.31 634.44 599.15 430.52 808.97 424.75 727.58 576.14 633.32 666.68 796.74 662.67
00026437 00000009 453.55 177.96 447.07 635.92 595.86 427.07 804.58 420.50 723.92 567.70 630.40 661.62 794.77 657.19
00026438 00000010 446.89 176.88 447.18 641.17 590.70 424.85 800.52 418.76 720.37 564.83 625.86 661.99 789.16 658.15
00026439 00000011 445.86 177.82 444.74 640.18 587.35 422.95 795.76 417.57 714.61 562.33 624.59 666.06 779.22 663.25
00026440 00000012 442.91 173.02 444.19 639.11 583.34 422.76 794.25 414.77 711.22 561.32 621.27 664.14 779.10 658.93
00026441 00000013 440.61 166.69 444.48 639.64 580.25 418.55 791.66 407.46 710.15 556.24 621.20 660.52 779.29 652.42
00026442 00000014 436.40 164.02 446.01 640.85 575.96 415.90 786.40 402.37 706.86 553.77 618.29 654.91 780.44 644.82
00026443 00000015 431.80 159.34 448.62 641.77 571.88 415.15 782.87 400.13 705.23 551.46 614.67 651.66 782.25 640.13
00026444 00000016 428.95 160.71 449.29 641.46 567.11 415.51 779.61 399.00 701.38 550.53 610.44 651.00 781.36 638.33
00026445 00000017 428.73 158.66 447.89 639.87 564.96 415.00 777.60 398.20 698.22 548.57 607.63 648.35 779.16 635.35
00026446 00000018 429.04 157.15 445.65 638.31 564.22 411.86 778.12 395.46 697.77 547.52 609.20 649.74 774.85 637.01
00026447 00000019 428.89 155.60 446.76 642.59 563.16 410.45 776.82 393.82 696.46 545.42 608.86 649.32 774.66 636.46
00026448 00000020 428.06 155.78 447.19 645.27 562.16 410.26 775.83 394.30 695.34 545.47 606.82 650.23 773.91 637.98
00026449 00000021 428.64 155.72 447.58 641.76 563.10 409.89 776.90 393.75 696.62 545.99 608.26 648.80 774.82 636.37
00026450 00000022 428.82 154.41 448.51 642.19 563.90 410.02 776.73 393.52 696.98 544.81 609.14 648.41 774.72 635.65
00026451 00000023 429.15 154.01 448.21 640.76 564.68 409.61 777.40 393.73 697.35 544.97 609.79 648.67 774.00 636.44
00026452 00000024 429.79 155.40 446.00 631.61 565.16 409.73 779.70 392.43 699.12 544.60 612.28 649.42 775.48 635.81
00026453 00000025 429.78 155.07 448.27 635.07 565.08 408.24 779.39 391.42 698.17 543.66 612.29 648.39 775.64 635.26
00026454 00000026 429.51 154.76 451.59 638.16 566.01 408.03 780.29 391.64 699.44 544.77 612.51 647.14 779.15 634.24
00026455 00000027 429.89 155.80 450.45 635.35 566.65 407.79 782.71 391.70 700.85 546.01 611.96 648.75 778.55 636.14
00026456 00000028 429.84 157.67 450.23 634.22 566.88 409.47 783.47 393.54 701.71 547.89 611.37 649.94 778.00 637.49
00026457 00000029 430.75 158.62 451.53 635.01 568.77 411.69 780.61 395.22 701.47 549.16 614.20 647.51 780.47 634.69
00026458 00000030 430.18 160.61 452.92 638.09 569.87 414.39 780.27 398.80 702.83 550.97 613.05 647.52 782.66 635.55
00026459 00000031 433.78 161.52 450.48 635.44 574.33 416.08 783.89 400.52 706.54 552.22 613.61 645.91 785.52 633.98
00026460 00000032 439.75 164.51 447.95 623.20 581.00 416.20 793.20 402.74 712.71 550.89 622.12 648.08 786.46 637.71
00026461 00000033 442.13 166.36 446.28 620.92 584.46 415.34 794.75 401.92 714.93 550.34 627.41 650.25 786.07 639.87
00026462 00000034 440.36 164.83 446.52 636.91 580.16 416.82 791.00 404.99 708.73 553.56 621.49 655.61 781.19 646.70
00026463 00000035 439.01 169.16 446.50 637.77 577.50 417.66 787.70 406.22 704.93 555.62 620.10 660.80 775.73 652.52
00026464 00000036 437.44 169.78 445.26 640.08 576.28 419.32 784.51 408.49 702.29 557.04 616.50 660.18 771.79 652.84
00026465 00000037 436.53 173.46 447.93 636.16 576.60 421.06 785.66 410.82 702.49 558.69 615.44 658.78 773.19 651.89
00026466 00000038 437.99 175.20 447.65 634.50 578.28 424.31 787.66 413.67 705.09 560.30 616.45 658.90 777.04 651.79
00026467 00000039 439.30 177.67 448.05 635.77 581.13 424.90 790.69 415.76 709.11 560.65 619.00 659.97 781.04 654.01
00026468 00000040 443.35 178.34 446.54 628.57 584.65 424.62 800.22 417.44 713.94 564.23 617.96 659.11 787.67 654.35
00026469 00000041 449.12 177.87 446.85 622.25 591.76 424.69 805.82 415.67 722.30 564.05 627.17 658.67 795.91 651.83
00026470 00000042 455.27 173.90 447.88 632.94 599.04 424.37 808.82 415.55 727.13 563.52 632.41 658.05 800.58 651.43
00026471 00000043 459.31 173.88 449.30 640.60 603.78 424.69 812.13 416.79 731.17 564.84 636.44 661.49 803.04 655.40
00026472 00000044 459.94 176.49 453.44 643.80 605.21 426.62 814.94 420.90 731.09 570.35 634.77 663.78 804.28 659.39
00026473 00000045 461.94 180.02 453.13 641.52 606.63 430.33 817.39 425.81 732.02 574.85 634.79 666.53 804.19 663.08
00026474 00000046 463.27 180.76 453.69 642.81 609.43 430.88 819.78 426.37 734.18 575.12 637.48 667.56 806.72 663.86
00026475 00000047 464.55 178.32 454.09 643.39 613.40 427.49 822.71 422.62 738.14 572.13 639.52 665.27 809.62 661.29
00026476 00000048 466.82 171.35 451.80 646.12 613.53 424.81 822.25 417.48 738.70 564.00 639.74 661.94 813.12 655.96
00026477 00000049 467.14 163.46 450.04 646.39 610.94 419.35 820.42 412.17 735.73 559.03 637.35 655.99 812.75 649.94
00026478 00000050 463.68 160.07 451.50 650.45 610.05 415.12 816.67 406.49 735.76 555.29 634.85 652.76 810.09 645.59
00026479 00000051 463.95 158.36 450.91 658.15 609.01 412.42 816.77 403.26 736.78 553.45 633.35 654.00 811.82 646.26
00026480 00000052 465.69 155.85 452.74 659.91 611.46 409.69 820.12 399.41 739.61 550.54 636.43 651.78 816.96 642.68
00026481 00000053 469.91 152.46 450.57 655.40 616.35 404.00 823.92 393.58 742.89 544.21 640.54 644.07 822.60 634.47
00026482 00000054 470.63 147.65 449.77 649.58 619.48 400.65 829.26 391.45 749.52 540.71 643.66 637.40 825.54 629.06
00026483 00000055 471.87 145.81 450.08 644.30 620.88 398.49 832.46 390.16 751.45 538.90 646.66 636.96 824.82 629.29
00026484 00000056 471.43 145.67 450.77 647.47 620.63 397.81 831.46 390.12 751.15 538.38 643.69 635.43 824.16 628.36
00026485 00000057 470.71 146.58 449.45 659.27 619.70 397.17 826.55 391.37 744.62 538.36 641.06 638.85 821.13 632.85
00026486 00000058 469.24 147.70 449.00 658.12 615.91 397.66 822.01 391.67 740.63 538.83 636.70 640.10 816.47 634.24
00026487 00000059 468.65 148.99 449.15 650.47 615.16 398.60 821.38 391.49 740.66 539.23 636.05 636.92 816.01 630.40
00026488 00000060 470.66 146.18 449.90 649.07 617.87 397.44 827.72 389.33 745.24 537.57 640.14 633.76 823.18 626.46
00026489 00000061 472.43 142.03 450.71 656.00 627.65 395.04 833.15 388.23 753.37 532.50 648.18 632.13 827.17 625.22
00026490 00000062 470.81 152.93 461.65 651.28 629.85 390.68 843.63 386.49 763.25 533.67 650.44 626.08 827.30 620.32
00026491 00000063 473.39 152.81 462.96 649.64 631.88 389.67 847.23 387.10 765.45 533.59 652.09 626.55 828.48 622.21
00026492 00000064 476.02 156.34 458.82 637.19 632.79 392.33 848.04 388.64 767.03 536.10 653.06 626.14 829.24 621.27
00026493 00000065 479.05 151.14 450.71 643.67 637.20 394.83 845.35 388.92 765.34 536.98 656.27 632.56 836.02 626.50
00026494 00000066 477.85 159.33 457.76 634.84 634.01 393.17 850.05 390.44 767.80 539.78 655.09 629.99 829.88 626.10
00026495 00000067 477.94 158.16 457.84 636.93 634.26 393.80 850.16 390.97 768.16 540.40 655.35 630.17 830.41 626.10
00026496 00000068 478.31 159.90 457.20 637.56 634.68 394.34 850.12 391.30 768.43 541.37 655.25 630.90 830.86 626.63
00026497 00000069 478.03 161.29 457.79 638.93 634.61 395.12 849.69 391.70 768.42 542.57 656.09 632.94 830.63 628.34
00026498 00000070 477.20 162.55 457.24 635.62 634.01 396.87 849.98 393.03 768.80 544.28 656.60 635.17 830.62 630.25
00026499 00000071 479.06 156.81 450.28 639.08 636.77 402.09 843.98 393.18 766.10 546.04 661.47 644.10 833.28 635.71
00026500 00000072 479.44 155.21 450.38 637.95 638.22 403.46 845.20 392.17 769.74 547.34 666.68 647.38 835.17 637.00
00026501 00000073 480.14 156.17 451.10 639.80 640.23 404.83 845.33 392.75 770.58 547.20 668.97 648.54 835.91 637.38
00026502 00000074 480.96 156.01 450.27 642.15 642.33 405.85 846.04 394.12 772.07 547.21 673.33 651.32 836.89 640.25
00026503 00000075 481.18 154.46 448.82 649.18 642.51 406.54 845.22 395.40 770.79 547.50 675.21 654.99 836.77 644.17
00026504 00000076 481.61 153.92 448.35 649.68 642.34 406.39 844.80 395.37 770.09 548.04 674.97 655.77 835.73 645.01
00026505 00000077 480.96 153.72 448.89 646.90 641.63 406.29 844.78 394.71 770.32 546.42 675.90 654.89 836.77 643.70
00026506 00000078 481.54 154.58 449.62 644.82 641.94 404.39 846.20 393.37 771.70 544.85 675.74 652.52 837.72 641.80
00026507 00000079 482.97 153.75 449.22 643.65 643.32 402.91 848.32 391.90 774.01 543.27 675.96 650.42 839.60 639.73
00026508 00000080 480.12 161.99 455.22 635.16 639.64 396.52 853.22 390.15 777.57 541.65 670.24 640.97 835.00 633.71
00026509 00000081 485.27 149.99 449.00 648.84 644.45 395.83 851.92 386.11 777.17 537.50 677.55 646.68 843.13 636.74
00026510 00000082 484.39 148.57 449.07 650.54 643.02 393.22 852.39 383.33 777.12 535.79 676.44 644.92 844.08 634.70
00026511 00000083 482.77 146.68 450.51 651.29 642.21 390.93 850.78 382.40 775.69 531.67 675.68 641.56 841.95 632.35
00026512 00000084 480.63 144.60 450.55 652.15 641.39 389.13 848.14 381.41 774.91 526.58 673.89 638.19 839.38 629.77
00026513 00000085 475.77 151.24 455.57 643.98 638.81 388.17 847.00 381.72 774.20 526.15 668.38 628.32 830.48 620.88
00026514 00000086 477.22 139.84 448.53 653.22 638.28 385.02 844.12 377.15 772.52 519.59 669.67 631.47 836.36 623.00
00026515 00000087 476.72 137.55 446.58 653.24 637.19 383.49 842.62 375.54 771.93 516.62 668.42 628.24 836.34 619.69
00026516 00000088 477.02 136.29 445.56 649.57 636.30 381.45 843.14 373.73 771.99 513.54 668.73 625.98 836.57 617.52
00026517 00000089 476.80 136.94 445.14 640.70 634.28 378.60 842.37 370.63 772.11 508.26 668.85 621.43 835.23 612.82
00026518 00000090 478.12 137.58 443.32 636.20 635.15 375.33 844.09 367.41 773.92 506.89 670.33 619.50 834.71 610.95
00026519 00000091 477.32 137.84 445.79 634.53 635.36 372.82 844.80 365.07 774.70 504.76 669.37 616.77 834.58 608.34
00026520 00000092 477.33 138.19 445.90 633.70 635.32 370.78 844.48 363.22 774.37 502.12 669.45 614.85 834.20 606.38
00026521 00000093 477.05 135.06 446.34 637.12 635.34 369.70 843.07 361.96 773.98 500.99 669.38 613.89 833.18 605.25
00026522 00000094 476.60 136.36 446.30 634.95 635.15 369.57 842.70 361.45 774.04 500.95 669.24 613.31 833.16 604.37
00026523 00000095 476.02 135.64 446.61 633.55 634.13 369.64 843.01 361.25 774.73 501.45 668.02 613.24 832.50 604.19
00026524 00000096 474.96 134.70 447.24 634.05 632.25 369.00 843.17 361.67 773.69 501.92 662.26 611.01 831.23 603.23
00026525 00000097 475.09 131.91 447.54 637.95 632.10 370.42 841.51 361.35 772.58 501.70 663.45 612.20 831.88 602.91
00026526 00000098 472.85 131.21 448.21 642.56 631.56 369.97 838.20 361.17 770.36 500.57 663.07 612.79 829.35 603.60
00026527 00000099 471.42 130.49 447.83 643.87 629.47 372.55 835.12 362.68 767.60 501.45 663.40 613.94 827.58 603.85
00026528 00000100 471.35 132.16 445.51 642.09 627.38 374.56 831.16 364.30 764.27 501.02 664.44 616.42 824.60 605.82
00026529 00000101 470.02 132.27 445.38 641.97 623.14 376.46 829.38 365.43 761.69 500.84 661.32 617.26 824.60 606.25
00026530 00000102 469.71 131.21 446.21 641.71 623.08 375.11 829.05 364.83 760.62 500.57 661.06 616.18 823.11 605.77
00026531 00000103 469.10 132.52 446.51 639.69 622.49 375.09 827.39 364.36 759.02 500.57 660.30 615.00 821.89 604.28
00026532 00000104 468.25 132.33 446.60 640.22 621.97 374.56 826.79 363.42 758.50 500.51 659.32 613.92 820.85 602.85
00026533 00000105 468.90 132.19 445.14 638.92 621.54 373.88 827.12 362.93 758.27 500.82 659.25 614.29 820.19 603.36
00026534 00000106 468.13 131.69 446.12 641.99 620.46 373.64 830.24 364.38 760.09 502.16 654.87 615.71 821.45 606.41
00026535 00000107 468.65 130.71 446.17 642.56 620.59 372.90 830.37 364.10 759.39 501.52 656.09 616.29 820.33 607.27
00026536 00000108 467.80 131.28 447.70 644.61 621.57 373.44 828.95 362.99 759.13 500.70 658.59 615.59 822.09 605.05
00026537 00000109 467.81 132.12 447.49 642.16 622.15 372.49 827.89 362.18 758.51 500.82 659.30 614.88 820.52 604.45
00026538 00000110 468.86 131.52 445.45 638.30 620.42 372.28 830.83 363.65 759.62 502.05 655.44 615.20 820.09 606.41
00026539 00000111 468.35 132.08 446.63 637.03 619.62 373.13 831.53 363.27 759.80 502.57 652.37 612.40 823.11 602.68
00026540 00000112 468.45 132.02 446.21 637.74 620.08 372.45 828.88 361.93 758.39 501.14 655.40 612.84 821.15 602.45
00026541 00000113 468.51 131.90 444.63 643.23 621.74 372.35 825.36 361.93 755.60 501.04 658.79 614.87 817.92 604.18
00026542 00000114 468.11 132.12 444.39 644.74 620.85 372.68 822.52 362.28 753.19 500.94 658.79 615.77 815.66 604.95
00026543 00000115 469.42 131.92 442.55 640.31 620.16 372.33 822.92 361.93 752.77 501.28 657.92 614.14 815.22 603.38
00026544 00000116 470.23 132.44 440.93 637.02 620.25 371.10 822.73 359.93 752.54 500.32 660.38 613.62 815.20 602.10
00026545 00000117 469.10 132.76 443.28 637.71 619.88 369.33 823.26 357.73 752.51 498.71 659.94 612.29 816.68 600.29
00026546 00000118 469.06 130.98 444.16 639.12 621.75 367.35 825.07 356.54 755.36 496.26 659.80 610.49 817.79 599.31
00026547 00000119 469.61 131.83 443.93 638.59 623.44 364.66 827.89 355.40 757.20 494.84 659.51 610.13 818.71 600.33
00026548 00000120 472.53 124.56 441.71 634.45 622.67 363.44 834.08 357.98 760.28 494.41 654.49 607.18 818.82 600.85
00026549 00000121 472.45 112.37 440.20 628.07 625.19 363.41 836.14 354.66 760.47 493.65 660.81 601.47 824.07 593.55
00026550 00000122 473.52 110.97 440.48 626.66 627.71 360.94 836.32 350.98 761.79 488.75 663.34 598.06 826.14 589.05
00026551 00000123 473.03 109.16 442.94 643.48 630.28 359.34 834.27 349.58 762.50 487.63 664.70 600.05 827.63 590.93
00026552 00000124 473.25 108.26 441.54 640.34 630.77 358.38 834.96 350.05 762.94 488.32 666.13 600.58 825.92 592.67
00026553 00000125 472.80 108.43 442.94 642.97 630.05 358.25 835.21 350.20 762.52 488.90 665.54 601.44 826.65 593.75
00026554 00000126 472.45 117.43 445.21 648.76 629.39 356.80 836.48 347.82 765.36 485.68 661.01 603.77 823.97 594.10
00026555 00000127 470.04 119.72 446.96 653.60 631.06 356.76 832.99 348.44 765.20 486.59 658.93 604.61 819.70 595.42
00026556 00000128 469.95 120.02 446.67 653.21 630.01 357.36 832.66 349.34 763.90 486.11 656.89 604.50 818.74 595.71
00026557 00000129 469.72 121.66 447.72 644.18 627.17 359.51 833.07 350.39 762.92 486.62 653.99 600.91 821.82 591.48
00026558 00000130 469.23 121.44 450.31 639.69 625.39 360.04 833.31 350.24 762.02 486.73 652.97 597.94 823.96 588.03
00026559 00000131 468.88 120.50 450.86 640.77 625.37 359.78 832.46 349.89 761.64 486.34 653.07 597.28 823.50 587.22
00026560 00000132 467.15 120.95 451.91 649.27 627.30 359.16 831.17 349.67 762.20 486.77 651.80 597.90 821.88 588.06
00026561 00000133 469.09 120.12 448.92 642.89 623.18 361.79 832.18 352.40 760.49 488.10 652.13 599.93 823.37 590.25
00026562 00000134 467.93 112.81 446.68 637.31 619.98 364.68 832.37 355.54 756.89 492.77 653.50 600.00 823.73 591.89
00026563 00000135 467.00 112.44 448.56 641.33 620.31 365.91 831.53 356.67 756.92 494.72 653.16 600.84 823.21 592.77
00026564 00000136 468.60 125.66 445.18 643.92 621.18 364.46 829.47 358.09 758.95 495.03 652.81 607.15 817.52 600.20
00026565 00000137 468.34 128.54 442.97 638.45 617.44 365.12 826.91 357.77 755.91 496.28 654.77 610.15 815.34 602.22
00026566 00000138 466.87 126.53 443.20 647.29 618.00 364.01 825.55 357.72 755.38 496.80 652.50 611.25 813.29 604.21
00026567 00000139 466.09 124.86 446.78 655.27 623.87 363.46 827.70 355.51 760.03 495.45 656.54 610.89 816.82 602.17
00026568 00000140 468.57 121.16 444.48 654.12 633.04 362.30 832.92 350.96 770.31 490.02 667.79 607.94 824.13 595.80
00026569 00000141 476.77 118.18 438.87 632.72 636.48 357.67 845.92 348.90 778.41 485.85 669.58 600.04 831.64 590.78
00026570 00000142 479.07 104.13 438.89 628.49 638.27 352.89 844.70 344.64 775.01 482.75 676.23 593.61 834.77 585.15
00026571 00000143 479.49 100.59 439.87 633.52 637.77 345.60 842.55 339.19 772.31 475.24 675.82 588.50 834.83 581.39
00026572 00000144 479.05 97.76 439.44 634.33 636.71 344.19 840.70 337.46 771.29 474.80 673.98 587.29 832.51 579.79
00026573 00000145 478.17 93.17 439.01 635.10 636.83 342.62 838.15 335.41 769.70 472.02 673.53 584.00 830.82 576.29
00026574 00000146 475.65 92.25 440.85 646.28 636.33 339.54 833.41 333.95 765.36 466.25 671.32 582.23 829.47 575.92
00026575 00000147 472.38 103.18 444.78 651.02 630.63 340.35 838.41 332.14 769.03 469.85 660.27 583.91 826.37 574.89
CROP_BBOX: 67 0 1188 1021
