Video ID: 	m32B665LxeQ
H: 	1080
W: 	1920
FPS: 	23.976023976023978

FRAME INDEX X0 Y0 W H [Landmarks (5 Points)]

00015170 00000000 530.70 215.47 396.37 558.05 722.81 422.68 883.70 405.89 867.57 523.10 768.09 634.17 885.83 618.56
00015171 DELETE   536.01 214.52 396.57 550.78 724.18 422.43 888.21 401.83 871.54 519.73 772.43 631.40 894.54 612.50
00015172 DELETE   536.01 219.68 398.97 538.59 725.30 421.14 890.83 400.59 874.28 518.98 772.71 627.11 896.89 608.66
00015173 00000003 532.32 218.93 402.88 540.72 723.89 421.24 890.62 400.35 873.86 519.34 768.23 626.09 895.50 607.78
00015174 00000004 529.67 220.77 407.16 554.62 722.10 422.33 888.52 402.15 870.57 521.52 765.06 628.42 896.17 609.66
00015175 00000005 525.87 221.77 413.29 567.52 721.26 421.10 887.36 402.00 871.97 523.86 758.74 632.25 896.56 614.74
00015176 00000006 523.81 223.18 415.29 572.02 721.41 419.76 886.36 402.65 874.99 524.42 754.35 633.77 893.43 618.28
00015177 00000007 524.76 224.77 413.12 567.90 726.53 419.79 889.21 403.15 880.29 527.01 756.38 632.88 893.07 618.16
00015178 00000008 527.17 224.49 410.88 563.01 729.67 422.05 892.45 405.24 881.64 528.77 757.32 631.28 893.31 616.65
00015179 00000009 528.50 216.96 406.23 565.55 733.46 427.06 895.36 409.95 884.18 531.11 758.97 631.12 892.67 616.67
00015180 00000010 530.47 217.85 403.27 556.62 731.64 429.48 893.57 411.50 879.75 532.22 760.57 630.22 890.60 615.03
00015181 00000011 528.86 224.62 403.74 548.56 729.48 431.45 891.15 413.10 875.20 533.51 759.04 630.02 888.16 614.82
00015182 00000012 525.94 230.00 405.24 545.18 727.34 432.94 888.98 412.96 873.32 535.46 757.05 631.50 885.41 615.33
00015183 00000013 522.81 225.96 405.42 549.79 726.23 434.92 887.61 413.45 872.12 537.07 756.28 633.19 882.54 615.90
00015184 00000014 522.34 228.81 402.59 547.62 725.04 438.09 886.38 416.61 870.61 539.06 753.86 633.69 881.62 616.53
00015185 00000015 518.97 228.14 404.11 546.46 722.14 441.43 884.94 419.34 867.97 540.59 749.82 632.21 881.25 615.09
00015186 00000016 516.65 225.72 404.52 549.90 717.56 441.61 883.07 420.56 863.05 541.53 745.11 632.95 879.93 616.82
00015187 00000017 514.33 229.59 404.60 545.24 714.22 440.88 882.01 420.35 860.64 542.94 743.56 633.54 879.23 617.83
00015188 00000018 523.46 231.30 397.10 547.16 719.00 443.93 882.62 424.88 865.14 544.48 737.06 639.57 877.11 623.59
00015189 00000019 522.70 232.95 396.22 546.31 718.07 447.25 881.03 427.65 863.66 544.56 736.52 641.84 875.10 625.67
00015190 00000020 522.21 231.55 395.42 550.21 718.54 448.39 881.12 428.95 864.40 546.34 736.72 644.40 874.35 628.46
00015191 00000021 522.15 232.32 393.64 551.31 718.78 447.79 880.34 429.49 863.73 546.22 737.32 646.29 872.49 631.28
00015192 00000022 522.21 231.70 390.86 554.53 719.21 449.94 880.40 432.09 864.45 548.71 736.28 647.92 871.90 633.56
00015193 00000023 521.15 235.80 390.71 551.00 718.20 451.34 879.75 433.63 864.51 550.23 735.95 648.35 871.52 634.18
00015194 00000024 520.97 235.31 389.58 550.74 717.22 450.61 878.25 432.54 863.58 549.04 735.37 647.98 870.66 633.56
00015195 00000025 519.23 236.94 390.89 548.97 716.03 449.25 877.33 431.71 863.10 547.56 734.58 647.50 869.90 633.49
00015196 00000026 519.35 235.45 390.04 547.04 715.27 449.57 876.23 430.31 862.50 545.63 735.21 645.99 869.93 630.41
00015197 00000027 518.62 236.04 390.24 543.27 713.86 449.78 875.63 429.24 861.03 545.64 734.59 644.63 869.33 627.98
00015198 00000028 520.06 234.80 389.20 543.38 715.04 448.52 877.85 428.14 861.91 545.80 734.50 643.96 870.39 627.62
00015199 00000029 519.37 232.14 389.84 546.47 715.37 449.07 875.24 428.34 862.21 543.56 736.06 644.10 869.72 627.31
00015200 00000030 519.56 229.62 391.38 548.30 714.73 450.14 876.12 426.67 863.09 543.43 736.48 644.09 872.54 625.12
00015201 00000031 519.94 227.58 393.06 548.30 716.67 449.01 878.56 424.52 865.12 543.64 739.60 643.42 875.50 623.30
00015202 00000032 522.24 224.36 394.44 548.32 717.62 446.78 879.94 422.74 864.88 541.58 741.89 641.65 877.29 621.51
00015203 00000033 524.43 224.70 393.89 546.51 720.50 447.06 881.14 423.51 866.67 540.30 746.63 642.19 878.54 622.12
00015204 00000034 519.70 225.55 393.93 545.47 721.09 439.70 880.33 418.01 864.36 535.85 764.23 638.50 878.34 620.00
00015205 00000035 522.64 222.73 387.69 552.09 724.99 439.35 878.49 421.03 865.61 533.75 772.88 641.99 877.57 625.76
00015206 00000036 523.64 223.77 387.29 551.20 725.67 440.00 878.36 421.61 868.36 533.20 777.34 643.19 881.07 626.75
00015207 00000037 526.61 224.83 384.94 550.12 728.25 437.21 878.98 420.63 869.96 532.99 779.97 642.14 881.44 627.07
00015208 00000038 529.03 222.78 385.62 552.27 729.99 430.49 881.43 416.12 869.29 531.88 776.00 640.31 879.08 626.84
00015209 00000039 526.33 225.91 394.45 568.01 726.11 427.08 880.19 417.08 864.92 535.14 766.13 644.45 876.03 634.97
00015210 00000040 522.67 220.50 401.65 579.76 718.88 426.88 879.22 417.72 863.15 537.34 749.79 643.30 875.10 634.90
00015211 00000041 518.52 225.49 407.54 573.88 712.31 422.16 876.34 414.31 857.44 535.68 742.12 638.63 875.41 631.65
00015212 00000042 513.04 225.92 412.50 570.84 707.42 419.74 873.40 414.36 850.11 534.88 736.34 634.26 873.12 629.30
00015213 DELETE   508.73 231.76 415.18 555.80 703.38 420.88 873.82 412.49 845.14 536.59 732.76 630.12 874.77 623.11
00015214 DELETE   517.25 236.53 407.15 538.42 704.22 429.02 874.03 415.04 850.55 533.44 729.90 632.55 872.65 619.81
00015215 00000045 513.21 234.73 409.59 538.54 693.32 430.40 868.64 411.77 841.51 534.26 724.38 631.84 873.74 614.80
00015216 00000046 508.39 236.11 408.59 535.12 682.51 431.89 859.12 409.36 829.83 534.47 720.74 634.84 867.80 614.38
00015217 00000047 506.75 238.59 403.38 531.48 680.61 433.43 855.33 412.43 825.02 535.47 719.40 637.34 861.05 617.90
00015218 00000048 505.42 240.45 399.11 531.68 678.15 436.32 852.87 414.77 821.42 538.27 718.83 642.17 855.92 621.98
00015219 00000049 504.42 243.41 396.72 528.80 677.33 440.15 851.69 420.56 819.04 541.68 717.34 645.70 849.95 627.24
00015220 00000050 500.49 244.12 396.09 533.37 673.23 444.23 846.98 425.05 814.58 542.15 712.60 648.36 843.83 630.11
00015221 DELETE   493.72 246.19 399.71 541.32 665.63 447.64 843.29 429.10 807.82 547.74 704.53 652.50 840.23 634.97
00015222 DELETE   489.64 239.66 402.77 557.88 658.05 449.15 836.50 430.96 796.93 551.95 694.73 654.67 836.53 637.36
00015223 00000053 484.02 239.99 406.14 555.52 652.40 452.11 833.34 432.25 791.90 555.74 687.81 653.21 832.50 634.80
00015224 00000054 480.64 241.16 408.72 551.50 649.63 450.50 829.44 432.68 786.81 555.36 684.11 649.27 828.85 632.76
00015225 00000055 478.36 237.21 410.23 557.12 647.22 453.33 825.68 434.83 783.28 555.61 682.31 649.05 828.72 631.86
00015226 00000056 477.82 231.83 408.96 563.52 645.04 454.87 824.41 435.94 781.48 556.35 681.66 650.01 829.44 632.13
00015227 00000057 476.26 231.19 410.40 565.09 643.06 455.50 823.14 435.77 780.33 556.27 681.09 650.80 829.82 632.11
00015228 00000058 476.61 230.89 409.86 565.88 643.72 455.44 823.74 435.77 781.19 556.60 683.16 652.30 830.22 633.51
00015229 00000059 476.46 236.25 409.59 561.17 645.08 454.64 824.23 437.38 781.41 557.32 684.22 653.55 827.22 636.86
00015230 00000060 476.15 242.45 411.23 551.38 646.06 454.28 824.92 436.64 781.84 557.99 684.93 651.89 826.77 635.16
00015231 00000061 475.65 241.36 410.61 554.50 646.46 454.67 824.35 437.93 781.46 558.29 684.64 652.44 825.26 636.38
00015232 00000062 475.59 240.95 408.90 558.90 646.81 455.54 822.10 439.38 779.96 558.95 685.12 654.85 823.19 639.12
00015233 00000063 475.28 235.61 408.79 560.86 646.81 454.86 821.86 436.91 781.60 556.34 686.99 652.69 825.26 635.21
00015234 00000064 475.60 229.47 406.71 564.70 646.80 454.95 823.04 435.83 783.63 555.81 687.21 652.18 827.10 633.71
00015235 00000065 474.87 226.06 405.93 566.66 647.48 454.60 822.37 432.72 785.23 554.63 688.62 651.63 827.34 630.92
00015236 00000066 476.06 224.01 403.71 577.24 648.39 453.59 820.16 432.77 784.16 554.57 688.48 655.80 824.67 635.71
00015237 00000067 475.06 230.37 411.06 583.13 648.70 452.21 820.26 428.33 788.16 553.30 685.51 656.16 832.59 634.18
00015238 DELETE   477.20 225.98 417.59 577.98 648.47 447.96 827.44 415.95 795.64 546.35 690.78 651.73 844.72 622.74
00015239 DELETE   483.76 225.98 418.92 554.14 656.11 446.02 834.60 406.02 806.66 538.48 701.29 641.26 852.71 605.97
00015240 DELETE   489.46 224.56 414.50 543.64 663.07 442.03 841.76 399.75 817.91 530.29 710.78 636.54 861.68 599.91
00015241 00000071 493.31 207.77 406.61 552.75 669.68 441.03 844.33 391.58 827.35 526.43 722.63 638.90 864.56 596.43
00015242 DELETE   495.66 201.66 399.74 550.67 675.55 442.62 839.75 389.84 831.91 520.56 731.30 636.71 863.16 591.85
00015243 00000073 496.35 207.74 402.24 544.38 675.12 438.19 839.97 386.65 829.98 519.89 731.22 634.84 863.20 590.94
00015244 00000074 491.46 206.37 410.42 558.99 667.61 434.49 836.18 385.71 821.32 518.76 724.06 636.64 861.65 594.05
00015245 DELETE   488.38 208.64 415.04 567.20 660.70 434.47 830.87 388.61 812.80 519.80 714.94 637.24 859.21 596.92
00015246 00000076 489.80 207.63 415.36 574.55 656.09 434.48 830.40 389.96 806.82 525.60 710.53 640.91 859.69 601.32
00015247 00000077 492.12 213.31 411.91 567.51 653.81 435.09 829.10 394.49 801.35 529.14 708.90 642.80 855.90 606.32
00015248 00000078 493.81 216.51 407.55 556.54 654.85 436.41 832.09 396.83 803.09 531.47 709.96 641.21 855.53 605.83
00015249 00000079 495.12 220.53 406.88 545.35 656.94 436.67 835.21 398.07 804.79 532.61 710.72 639.75 854.56 605.44
00015250 00000080 494.69 220.26 408.19 547.39 656.45 436.48 835.40 398.50 803.47 533.36 710.80 640.93 853.87 606.77
00015251 00000081 495.60 220.92 407.10 549.88 656.01 438.27 834.91 400.21 802.86 535.50 709.39 641.75 854.16 607.54
00015252 00000082 495.78 226.12 408.18 546.74 655.92 438.91 834.76 401.70 802.34 536.41 708.95 642.67 854.88 609.06
00015253 00000083 496.38 227.24 407.75 547.15 656.96 439.84 835.39 400.89 803.95 535.93 710.38 644.19 855.47 609.03
00015254 00000084 497.43 226.00 401.56 551.32 662.83 440.69 836.81 401.95 810.65 536.27 715.96 648.44 853.22 613.46
00015255 00000085 498.22 216.28 396.57 563.52 665.45 445.76 837.90 407.80 812.77 538.80 719.01 653.06 852.23 618.55
00015256 00000086 496.73 227.28 395.40 558.99 668.05 455.33 837.17 424.90 809.97 543.11 716.78 656.64 847.64 628.43
00015257 00000087 494.93 227.33 396.61 569.16 668.55 458.99 836.35 432.06 810.05 546.66 714.32 660.47 846.89 635.52
00015258 00000088 490.30 235.48 400.49 580.52 663.69 468.16 832.00 441.19 804.80 558.11 702.99 669.90 842.02 645.58
00015259 00000089 489.13 237.48 401.60 587.06 663.05 469.54 830.37 442.52 804.22 561.90 697.51 670.85 841.71 646.78
00015260 00000090 488.49 235.50 403.57 589.08 660.56 468.94 830.49 442.60 801.97 562.99 694.49 670.31 841.88 646.75
00015261 00000091 484.70 237.79 407.97 587.15 656.73 467.87 829.09 442.42 798.87 564.50 690.17 668.68 840.97 645.95
00015262 00000092 483.09 239.62 409.75 584.80 655.45 467.75 829.24 442.37 797.78 566.04 688.38 667.37 840.82 644.74
00015263 00000093 483.04 236.36 409.87 582.48 653.43 467.46 828.72 440.50 795.47 565.66 689.20 666.67 840.28 642.61
00015264 00000094 484.28 232.53 408.56 581.33 653.08 467.38 829.56 438.96 796.10 563.17 690.68 664.96 841.79 639.64
00015265 00000095 483.73 233.16 410.05 577.93 652.25 466.33 828.68 436.32 795.61 560.40 692.05 663.47 842.96 636.51
00015266 00000096 483.66 226.21 411.04 580.47 651.10 461.74 830.35 429.70 796.89 554.34 694.66 660.31 847.63 631.15
00015267 00000097 482.41 230.86 415.01 571.60 645.53 456.14 827.12 420.37 792.18 551.49 693.80 656.71 849.19 624.33
00015268 00000098 483.41 226.75 416.32 569.66 646.03 453.71 828.68 415.81 793.13 548.28 696.60 655.04 849.85 620.57
00015269 00000099 482.36 224.20 415.88 568.76 646.38 454.91 827.13 414.15 793.69 546.06 698.06 653.23 849.90 616.35
00015270 00000100 482.08 221.09 415.05 569.50 646.70 455.68 826.14 414.23 793.39 546.13 698.28 652.46 849.12 614.99
00015271 00000101 481.21 218.71 413.14 571.47 647.01 457.80 824.38 414.36 794.35 546.02 699.12 652.56 848.23 613.49
00015272 00000102 479.00 220.63 416.22 566.54 646.54 456.26 823.59 412.33 793.75 544.69 700.49 651.10 847.58 611.53
00015273 00000103 479.80 220.42 416.53 561.80 646.10 455.99 822.39 410.01 793.46 540.05 701.03 647.05 848.21 605.99
00015274 00000104 481.73 212.35 412.84 566.59 645.41 457.58 820.56 409.65 792.44 536.67 701.65 645.28 849.03 602.50
00015275 00000105 479.60 212.09 415.59 567.55 644.77 456.91 822.25 409.67 794.07 534.32 699.82 642.91 850.35 600.58
00015276 00000106 475.60 212.82 416.05 569.10 643.03 453.30 815.57 405.26 790.88 531.98 701.51 644.53 844.69 601.31
00015277 00000107 475.87 215.57 413.50 570.21 641.65 442.80 815.22 403.97 784.56 532.56 698.35 644.77 838.27 609.08
00015278 00000108 477.00 216.36 409.82 575.22 640.45 444.34 811.05 407.59 780.51 533.27 699.60 648.62 836.57 614.22
00015279 00000109 479.11 220.57 409.44 569.19 641.98 443.16 814.35 407.41 782.49 534.15 699.13 647.39 838.50 614.05
00015280 00000110 481.07 220.86 407.65 561.56 644.18 440.97 817.97 403.69 787.33 533.16 700.79 643.05 841.92 608.98
00015281 00000111 480.98 215.76 406.24 564.93 646.18 439.50 817.05 402.90 788.89 531.00 699.82 639.19 841.48 606.13
00015282 00000112 476.50 209.27 408.24 578.44 644.42 434.92 813.02 403.08 785.06 530.48 695.28 638.46 836.79 608.99
00015283 00000113 471.67 218.21 418.16 583.21 636.00 430.19 809.73 400.41 777.32 532.32 684.17 638.24 838.16 610.40
00015284 00000114 468.41 220.36 415.70 582.15 632.77 430.26 805.98 403.33 771.88 537.57 673.69 633.65 832.69 608.67
00015285 00000115 466.08 222.45 415.73 582.42 630.50 432.51 803.18 405.97 769.14 540.52 669.23 634.03 828.42 609.71
00015286 00000116 463.21 221.17 418.50 592.48 625.46 436.06 799.59 406.94 765.42 543.33 666.71 638.38 829.15 611.46
00015287 00000117 461.02 226.38 421.01 588.95 624.56 437.39 798.00 407.79 764.49 546.81 667.02 642.96 826.96 615.62
00015288 00000118 462.02 225.69 421.73 588.52 623.35 437.65 797.83 405.83 763.71 545.53 667.08 641.36 829.25 612.14
00015289 00000119 463.10 223.39 422.79 583.12 622.50 438.06 798.93 402.80 764.71 541.63 667.97 636.27 832.93 604.20
00015290 00000120 464.06 226.62 423.79 568.76 622.58 438.67 801.12 399.57 767.40 539.72 668.69 630.77 835.42 595.90
00015291 00000121 465.41 226.97 422.37 563.18 623.45 440.06 802.64 400.04 768.99 538.66 671.23 629.81 836.47 594.31
00015292 00000122 467.18 224.07 421.76 564.64 624.88 443.01 804.86 401.50 770.76 539.56 674.59 631.89 837.88 594.91
00015293 00000123 469.28 226.06 421.99 559.77 625.44 447.48 805.20 403.37 771.89 539.12 677.50 632.93 840.03 593.83
00015294 00000124 471.58 224.64 421.03 560.34 628.49 450.14 805.45 405.17 773.95 539.88 680.88 632.59 841.09 592.56
00015295 00000125 471.49 230.56 422.33 554.81 631.10 452.38 807.69 405.75 777.25 543.44 684.59 638.48 840.66 597.01
CROP_BBOX: 262 0 1137 951
