Video ID: 	5eQGnwcy2-Y
H: 	1080
W: 	1920
FPS: 	23.976076598115622

FRAME INDEX X0 Y0 W H [Landmarks (5 Points)]

00001750 00000000 640.97 204.07 374.22 522.98 687.96 427.13 820.40 400.04 726.37 526.24 751.77 608.27 871.57 583.85
00001751 00000001 647.25 206.92 376.17 515.22 697.56 423.27 831.66 396.65 740.91 522.89 756.94 601.84 879.44 578.15
00001752 00000002 660.76 198.40 372.63 518.11 712.97 413.65 852.59 388.80 761.81 507.15 764.46 591.06 894.59 568.74
00001753 00000003 666.65 179.41 377.14 527.85 717.93 402.30 862.88 375.23 768.21 493.91 765.99 579.17 904.88 555.11
00001754 00000004 672.26 171.36 369.26 520.28 718.43 392.81 867.15 362.62 767.73 477.88 759.30 566.53 903.00 540.44
00001755 00000005 672.70 163.70 366.72 519.10 715.93 385.00 864.66 355.19 762.46 467.18 751.38 556.32 894.03 530.84
00001756 00000006 673.46 164.78 366.33 518.75 715.74 385.89 863.18 355.31 761.01 468.65 752.28 557.42 893.56 531.28
00001757 00000007 679.10 163.85 364.67 519.12 720.99 385.72 865.63 354.39 763.72 467.06 759.49 557.11 899.16 530.37
00001758 00000008 685.74 156.48 373.46 516.15 726.71 367.77 880.39 342.36 777.27 461.12 773.87 551.74 910.73 531.21
00001759 DELETE   707.83 126.07 376.46 538.02 751.68 357.67 910.84 337.26 798.01 446.40 787.98 541.79 922.30 524.72
00001760 DELETE   741.13 121.41 365.77 534.42 797.96 339.05 954.44 328.04 851.76 432.83 826.71 526.55 958.79 518.40
00001761 DELETE   771.06 114.13 357.63 543.63 838.49 322.16 1002.02 315.44 893.57 408.97 863.85 526.87 983.92 521.61
00001762 00000012 804.00 101.10 350.25 550.76 872.99 307.77 1036.82 316.84 928.09 402.05 876.97 507.94 1007.89 518.40
00001763 00000013 818.60 96.63 346.71 542.48 882.49 297.34 1041.08 313.08 925.73 395.26 872.45 491.31 1003.29 507.81
00001764 00000014 821.48 94.47 344.68 533.45 880.31 291.31 1036.72 316.68 914.47 393.81 863.02 476.70 999.80 500.48
00001765 00000015 820.83 87.57 342.15 542.73 872.48 289.50 1021.23 320.25 894.15 396.48 855.50 479.92 981.48 507.38
00001766 00000016 812.55 87.43 339.52 554.96 861.80 287.51 1006.29 321.00 877.61 398.24 844.62 488.41 961.76 517.19
00001767 00000017 796.79 98.85 343.03 545.69 844.76 296.16 985.76 325.20 855.82 406.26 825.55 494.12 943.41 519.11
00001768 00000018 788.24 104.68 342.39 537.17 828.80 287.84 968.69 329.19 824.92 402.17 806.64 484.44 933.99 519.93
00001769 00000019 775.13 108.68 342.73 532.98 810.46 295.43 953.79 332.05 811.99 410.22 797.50 489.23 927.87 520.72
00001770 00000020 763.33 105.89 345.82 545.27 799.32 308.17 948.66 334.77 812.60 420.89 795.04 505.15 924.53 527.65
00001771 00000021 754.81 115.25 348.90 547.50 793.74 323.95 947.93 342.01 819.23 436.30 798.48 519.35 930.91 533.86
00001772 00000022 750.29 126.63 351.89 540.24 793.84 333.22 950.56 348.93 827.39 447.27 801.88 523.46 940.00 535.74
00001773 00000023 744.83 120.27 355.25 543.84 795.20 338.48 962.59 343.62 847.05 449.68 807.86 529.70 949.79 533.81
00001774 00000024 738.66 125.51 356.55 537.93 790.62 353.03 948.86 354.88 837.48 456.93 807.90 531.91 947.06 533.65
00001775 00000025 727.63 136.13 359.71 536.15 779.03 359.35 931.00 357.89 823.21 459.26 802.26 539.80 936.03 537.98
00001776 00000026 712.89 141.18 367.81 537.01 755.61 359.07 918.68 350.86 804.63 464.87 783.48 548.83 920.71 541.37
00001777 00000027 703.00 159.90 364.07 522.47 743.47 363.74 887.02 355.35 776.76 465.06 778.48 550.16 899.42 541.10
00001778 00000028 689.99 154.26 365.79 529.61 721.38 360.52 859.51 346.77 749.19 464.47 765.67 552.08 883.14 542.94
00001779 00000029 681.49 143.67 360.48 524.08 714.36 360.99 835.81 344.16 728.89 451.92 755.01 544.11 858.06 530.37
00001780 00000030 674.32 140.05 359.27 520.16 708.83 356.88 822.78 332.59 718.74 443.65 753.42 539.38 853.22 519.25
00001781 00000031 671.21 138.67 357.82 517.09 707.77 356.06 820.00 327.29 721.88 439.80 755.61 535.73 855.03 511.80
00001782 00000032 667.90 144.75 362.89 513.30 708.71 363.42 825.29 325.71 727.87 436.95 761.09 539.91 864.62 508.18
00001783 00000033 665.35 142.59 366.75 519.08 708.75 370.28 830.47 328.09 734.50 439.61 765.81 545.30 872.62 509.83
00001784 00000034 663.37 143.41 370.09 523.94 708.95 374.43 834.01 331.01 742.95 446.90 770.86 548.39 880.61 511.81
00001785 00000035 661.08 155.33 371.29 517.03 708.15 387.96 838.09 338.58 746.38 455.04 771.97 555.89 887.98 513.87
00001786 00000036 655.35 165.04 376.32 517.58 705.15 396.18 837.86 350.33 745.51 464.44 763.62 561.11 885.28 522.05
00001787 00000037 652.82 181.07 373.06 510.25 697.35 406.19 832.02 364.77 737.23 480.22 754.40 569.69 878.70 534.10
00001788 DELETE   652.52 187.50 372.09 514.32 689.28 417.65 817.64 376.36 724.03 493.10 752.59 582.95 868.48 547.39
00001789 00000039 646.59 195.60 362.77 509.16 677.82 427.67 800.26 389.06 710.39 498.51 741.91 590.58 848.66 557.26
00001790 DELETE   633.57 191.34 357.58 507.42 660.25 424.65 783.34 400.18 679.01 506.76 711.20 588.82 821.49 568.88
00001791 00000041 633.54 191.55 353.72 507.00 656.30 420.68 770.62 406.64 662.99 508.66 706.78 584.25 803.13 572.87
00001792 00000042 632.97 189.21 350.22 516.00 657.72 417.52 762.98 406.83 657.02 511.22 710.25 584.99 800.43 575.84
00001793 00000043 632.98 191.15 351.14 511.69 656.81 419.55 763.81 409.44 656.84 512.40 709.76 584.95 799.33 576.28
00001794 00000044 632.82 198.03 351.05 504.64 658.68 427.32 770.05 413.85 665.43 515.62 710.49 585.27 807.48 573.33
00001795 00000045 631.72 197.98 355.10 505.18 661.19 436.77 778.62 409.94 679.25 517.75 716.69 593.31 825.88 570.01
00001796 DELETE   637.91 200.02 362.36 504.63 672.98 441.96 795.37 407.00 704.76 525.48 735.30 600.63 851.89 569.88
00001797 DELETE   643.51 199.99 374.19 506.31 686.66 446.48 817.20 403.55 733.76 526.55 752.93 604.21 874.82 566.42
00001798 00000048 646.67 204.25 378.79 505.77 698.54 443.96 833.71 404.90 754.55 530.83 761.62 599.98 886.53 565.05
00001799 00000049 641.92 219.28 373.77 492.63 702.03 439.58 834.83 406.17 758.95 525.39 768.47 597.12 886.45 567.74
00001800 00000050 642.78 216.58 376.45 497.29 702.14 441.53 834.34 408.96 758.60 528.37 768.71 597.49 887.53 568.71
00001801 00000051 648.21 207.00 379.43 505.26 700.79 437.54 839.24 403.53 756.82 530.99 759.54 596.49 887.78 565.78
00001802 00000052 651.63 198.59 371.45 510.78 696.51 432.03 830.16 399.35 742.31 523.86 749.71 594.39 876.88 564.86
00001803 00000053 649.49 201.02 365.13 500.83 682.82 424.54 820.19 394.56 721.55 515.11 730.06 590.92 863.32 564.31
00001804 00000054 639.94 205.01 370.98 494.66 682.99 419.95 818.44 389.71 721.55 494.84 729.20 579.29 848.36 553.05
00001805 00000055 646.67 186.95 364.64 510.54 683.02 401.34 812.11 379.67 711.77 483.41 726.15 572.47 837.71 553.41
00001806 00000056 653.45 182.05 359.08 500.59 693.29 380.45 813.70 367.71 715.12 473.71 732.58 560.14 833.01 549.73
00001807 00000057 662.03 162.01 365.17 514.42 695.04 367.54 831.36 348.65 724.26 459.04 736.86 557.44 840.22 539.66
00001808 00000058 672.01 143.89 364.61 522.41 712.67 357.95 837.51 340.42 735.12 447.09 749.69 546.64 848.16 533.28
00001809 00000059 678.88 137.07 366.94 522.86 719.14 342.54 867.32 324.57 755.94 433.52 763.04 536.93 873.03 522.25
00001810 00000060 687.11 121.30 367.36 530.54 731.66 332.56 882.54 312.49 771.83 416.58 773.40 530.53 884.71 514.57
00001811 00000061 700.40 115.45 365.00 532.60 746.58 325.47 894.09 306.61 781.51 403.21 781.78 523.05 893.05 507.94
00001812 00000062 709.52 105.69 359.75 533.95 750.48 322.22 893.40 303.67 779.27 400.70 780.16 518.91 888.43 504.80
00001813 00000063 707.22 109.36 361.18 525.06 742.87 320.00 886.24 302.90 767.61 398.50 767.32 513.37 878.87 501.23
00001814 00000064 697.90 106.35 361.13 530.47 730.48 323.35 874.95 304.91 754.64 400.73 753.01 514.51 865.87 502.15
00001815 00000065 692.24 114.85 362.06 528.44 723.17 326.03 868.59 310.10 748.27 406.31 745.83 518.42 858.44 508.28
00001816 00000066 689.41 122.31 362.67 525.71 719.63 333.10 865.80 319.92 747.41 417.19 745.68 525.20 855.17 516.48
00001817 00000067 688.23 130.69 362.03 521.41 719.64 339.88 866.06 327.09 747.74 429.80 753.10 532.06 861.11 522.91
00001818 00000068 684.66 129.37 362.72 524.70 718.89 346.07 865.63 332.30 749.62 435.60 753.60 535.20 862.26 524.95
00001819 00000069 682.18 128.79 363.62 528.26 719.77 348.10 868.42 334.49 753.09 438.81 755.05 538.51 864.91 528.28
00001820 00000070 682.64 129.44 365.03 532.06 723.70 348.41 873.30 336.10 756.46 441.77 759.66 542.11 869.16 532.68
00001821 00000071 687.43 138.70 365.42 525.98 738.19 354.48 875.63 340.48 772.21 437.91 775.21 541.35 872.84 528.14
00001822 00000072 691.93 140.72 363.19 532.79 740.57 354.54 882.50 338.83 776.90 437.85 783.65 547.42 881.37 532.41
00001823 00000073 689.77 130.32 368.66 547.64 740.63 348.55 885.38 334.93 773.31 440.91 783.30 549.62 892.76 536.51
00001824 00000074 698.08 128.63 366.14 537.19 744.90 349.30 885.54 336.04 772.20 434.77 778.99 537.63 886.94 525.21
00001825 00000075 699.93 123.29 367.27 533.68 742.41 345.08 887.61 330.47 772.39 430.56 771.76 532.74 885.13 519.67
00001826 00000076 702.32 124.94 368.01 524.15 744.12 340.66 887.52 327.01 772.33 424.39 766.72 525.27 877.05 513.59
00001827 00000077 700.46 123.73 372.40 521.52 746.05 340.27 890.94 325.20 778.20 422.62 770.40 521.98 880.15 509.44
00001828 00000078 700.51 123.58 373.22 525.40 747.93 341.56 893.60 324.65 781.84 422.45 773.84 524.43 881.65 510.47
00001829 00000079 701.95 120.93 372.02 535.94 747.76 344.84 894.60 326.03 784.27 428.61 781.83 533.31 890.70 517.28
00001830 00000080 701.53 122.63 367.92 538.49 746.75 349.84 891.40 331.92 782.95 438.16 785.21 540.08 895.80 524.31
00001831 00000081 696.22 126.57 370.21 537.53 743.63 353.57 885.19 337.45 777.51 438.03 783.53 539.99 891.99 525.12
00001832 00000082 692.53 131.16 368.75 533.48 741.82 351.91 880.37 336.81 773.96 435.74 782.22 539.47 885.86 525.12
00001833 00000083 690.42 132.32 367.73 530.86 739.95 350.51 877.04 333.56 772.68 434.05 782.98 540.38 879.81 524.65
00001834 00000084 691.35 127.96 366.87 528.36 739.55 346.35 875.65 327.88 772.87 429.02 781.08 535.37 876.99 518.84
00001835 00000085 684.70 118.94 370.54 525.20 723.20 339.32 876.37 315.65 764.27 419.27 764.77 530.38 879.13 512.27
00001836 00000086 688.34 112.71 367.75 521.99 721.68 336.26 874.17 306.58 762.21 409.30 763.01 523.66 878.94 501.01
00001837 00000087 691.68 105.94 367.90 525.62 724.25 333.06 874.35 300.76 763.06 404.58 765.67 517.73 883.84 492.99
00001838 00000088 695.38 103.98 368.70 525.66 728.93 330.63 877.36 298.84 765.71 401.33 768.94 514.48 887.18 489.85
00001839 00000089 699.36 105.67 367.51 521.90 733.79 330.10 878.97 298.59 768.24 399.93 772.83 512.73 889.84 488.29
00001840 00000090 700.95 104.45 366.63 521.19 734.73 327.69 878.93 296.22 768.28 397.07 773.14 509.88 890.77 485.61
00001841 00000091 700.06 103.57 365.80 521.77 733.52 325.93 878.54 295.50 767.50 396.01 771.04 507.46 890.50 484.09
00001842 00000092 697.29 101.64 367.56 524.31 730.70 326.47 876.88 294.83 765.15 395.78 768.76 508.08 888.44 483.86
00001843 00000093 695.76 101.52 366.15 526.21 727.41 328.40 874.16 295.37 763.27 397.83 767.81 510.50 887.46 485.23
00001844 00000094 695.43 102.94 364.88 528.76 725.56 332.49 872.43 296.11 760.90 398.14 768.63 515.10 888.01 487.09
00001845 00000095 696.11 103.54 364.07 532.69 725.87 336.82 870.91 297.06 759.38 399.05 773.40 523.43 887.82 492.38
00001846 00000096 697.67 103.16 364.73 537.60 732.43 337.16 873.83 296.08 765.52 401.98 786.84 529.39 897.71 496.22
00001847 00000097 702.64 104.15 371.61 538.29 740.10 334.99 881.26 293.96 773.58 402.40 794.86 532.40 903.96 499.00
00001848 00000098 718.66 100.75 366.05 539.96 755.57 335.74 896.96 294.82 786.31 402.94 804.66 532.51 913.61 499.16
00001849 00000099 731.13 105.67 360.67 533.72 772.19 324.45 911.50 304.00 802.73 403.63 805.26 515.66 919.01 499.75
00001850 00000100 744.25 99.23 358.37 536.55 782.34 317.69 925.78 298.19 811.84 393.18 808.57 509.77 929.27 495.26
00001851 00000101 748.02 94.74 358.76 533.23 786.92 309.89 931.44 292.85 816.85 385.72 809.12 502.38 931.12 490.43
00001852 00000102 747.86 93.51 359.24 531.04 786.30 309.07 930.97 292.78 816.47 384.89 806.71 499.47 929.99 488.30
00001853 00000103 745.19 91.90 356.61 530.89 780.26 311.17 924.54 296.56 809.49 389.05 801.69 500.89 923.98 490.50
00001854 00000104 728.09 96.52 364.12 530.22 766.10 328.04 914.31 298.09 803.69 400.57 791.87 511.91 917.11 487.78
00001855 00000105 712.71 108.52 372.03 523.83 752.29 341.06 893.56 303.93 786.74 402.34 786.90 518.95 899.83 488.67
00001856 00000106 704.44 115.99 373.38 523.88 740.06 344.00 879.10 312.71 766.28 412.11 776.03 526.68 882.81 500.79
00001857 00000107 700.47 124.56 364.17 523.15 736.52 349.72 864.29 323.12 756.65 423.48 773.93 535.10 870.44 512.43
00001858 00000108 694.98 128.62 359.54 525.96 730.01 343.02 865.23 320.38 747.97 425.59 774.69 543.44 868.82 524.92
00001859 00000109 701.99 116.65 364.79 537.88 736.02 330.96 873.43 302.73 756.29 406.56 779.20 538.83 874.06 515.99
00001860 DELETE   725.18 112.21 360.23 524.36 763.65 313.19 894.57 285.70 777.02 376.79 789.40 513.22 887.02 491.77
00001861 00000111 749.97 98.68 348.77 508.28 787.23 295.73 916.13 273.95 807.35 359.79 804.76 480.90 904.98 466.17
00001862 00000112 761.20 76.77 353.63 522.67 798.68 294.22 951.83 259.39 830.61 342.40 818.55 481.16 942.30 454.06
00001863 00000113 765.26 77.74 354.87 526.66 804.39 296.87 957.98 259.47 838.11 350.35 834.89 485.74 965.31 455.52
00001864 00000114 752.07 92.90 367.05 521.00 780.96 313.70 931.60 261.36 822.33 357.59 829.64 495.32 953.61 455.35
00001865 00000115 730.82 111.65 373.24 515.88 773.46 323.77 912.93 284.01 800.58 380.94 811.26 507.18 931.16 474.64
00001866 DELETE   708.48 112.13 376.46 534.12 744.97 348.97 883.20 293.95 782.30 407.77 806.59 538.70 923.13 493.61
00001867 DELETE   689.31 121.99 371.08 541.96 733.83 360.37 870.51 312.60 772.56 429.45 802.23 550.86 911.50 509.30
00001868 00000118 679.23 125.03 375.62 542.58 723.56 358.87 868.81 320.38 765.77 438.33 787.46 550.48 902.91 517.30
00001869 00000119 679.69 117.41 379.10 546.68 724.14 355.81 873.39 314.36 769.64 427.08 782.74 546.77 901.39 511.61
00001870 00000120 681.66 114.95 382.74 552.10 732.07 347.83 879.88 302.21 777.46 411.47 792.19 540.12 915.39 500.27
00001871 DELETE   693.52 110.44 378.01 561.75 740.49 338.54 883.14 291.94 777.16 404.94 802.58 536.77 927.72 495.43
00001872 00000122 693.32 99.18 373.41 560.55 735.15 326.13 882.23 284.09 773.05 389.27 793.51 527.10 915.59 491.32
00001873 00000123 689.15 97.67 370.18 536.14 726.40 319.86 871.48 279.42 760.32 379.13 774.58 509.47 890.35 478.28
00001874 00000124 685.68 100.69 366.81 526.94 713.70 327.96 862.22 283.67 750.54 388.02 761.88 511.29 878.57 477.93
00001875 00000125 673.87 114.19 375.99 528.70 718.42 339.98 853.62 306.77 752.17 414.68 762.07 523.92 880.30 496.71
00001876 00000126 667.43 136.21 369.32 520.28 714.42 359.98 842.63 322.60 750.01 441.23 769.90 542.85 877.52 511.71
00001877 00000127 657.36 142.20 372.89 526.77 701.66 370.55 832.75 333.50 736.63 453.07 760.40 554.58 868.96 523.80
00001878 00000128 646.21 153.68 376.56 524.10 690.24 378.27 822.02 347.44 725.45 467.33 748.41 562.43 858.82 535.80
00001879 00000129 636.36 171.05 373.78 515.63 682.89 391.88 816.70 361.64 721.98 482.05 741.89 570.67 854.40 544.18
00001880 00000130 626.78 169.27 373.49 523.00 676.23 396.77 811.18 368.02 718.87 487.77 737.99 574.65 848.96 549.45
00001881 00000131 626.42 168.57 374.53 522.63 675.97 395.88 811.19 367.30 718.64 486.81 737.78 573.30 849.55 548.08
00001882 00000132 636.20 166.06 376.02 521.07 681.86 387.59 818.22 360.72 721.02 478.70 739.19 567.95 854.83 544.17
00001883 00000133 649.28 149.13 377.40 528.88 693.67 377.27 830.33 352.68 730.96 466.25 743.59 558.47 860.58 537.21
00001884 00000134 663.14 151.09 371.94 515.11 709.52 374.29 846.01 348.43 751.00 459.83 759.45 549.79 874.11 528.37
00001885 00000135 677.91 142.56 365.93 510.90 729.66 362.02 867.64 342.36 773.17 450.26 772.57 538.06 887.93 522.43
00001886 00000136 696.20 119.13 368.53 536.84 743.05 350.62 887.68 328.48 781.51 436.91 789.56 537.86 910.82 518.02
00001887 00000137 722.70 115.70 364.90 538.58 766.70 348.89 912.23 326.23 797.12 428.09 797.81 533.66 927.87 514.24
00001888 00000138 734.96 120.29 366.62 531.72 787.50 340.55 935.95 328.19 827.06 414.28 811.04 514.00 946.48 504.45
00001889 00000139 746.50 112.08 367.92 534.21 800.83 330.01 954.10 317.81 840.06 405.01 817.24 505.43 959.33 496.60
00001890 00000140 764.40 102.02 362.57 540.12 810.81 325.72 963.12 311.09 846.25 406.38 825.48 503.63 968.88 492.71
00001891 00000141 779.69 93.45 352.35 549.75 826.85 303.94 985.04 305.10 861.05 392.96 835.32 494.53 977.95 496.28
00001892 00000142 788.23 94.73 347.76 547.01 840.55 295.37 998.60 304.21 870.31 386.56 840.99 487.74 984.11 495.96
00001893 00000143 796.05 97.47 347.94 545.68 851.98 293.03 1007.48 310.31 887.11 389.72 845.85 482.79 985.33 497.34
00001894 00000144 795.18 98.43 348.14 547.02 855.30 295.48 1012.48 316.71 891.30 394.77 844.98 484.12 986.10 502.05
00001895 00000145 792.15 99.16 349.65 550.08 856.54 300.33 1013.47 324.55 892.47 401.42 844.32 489.39 983.91 509.96
00001896 00000146 787.68 101.25 351.79 556.85 851.95 310.83 1011.28 335.47 888.91 414.20 838.99 500.37 980.18 521.12
00001897 00000147 781.05 110.26 346.99 554.78 843.52 315.51 1000.02 339.51 869.41 416.31 827.14 508.57 971.35 528.14
00001898 00000148 768.45 121.42 350.74 552.08 827.70 327.45 984.96 347.01 859.97 430.41 815.87 520.60 958.58 536.09
00001899 00000149 755.44 129.09 359.26 545.93 821.28 330.52 978.86 348.77 853.23 432.88 810.45 517.90 950.03 532.26
00001900 00000150 754.48 118.78 356.54 547.35 804.77 336.24 971.05 348.20 852.88 444.66 806.31 526.80 948.97 536.87
00001901 00000151 749.62 122.17 356.38 544.63 799.70 335.82 967.31 351.22 846.94 450.33 800.76 526.67 943.88 539.57
00001902 00000152 746.50 124.37 355.12 543.44 796.04 335.57 965.49 349.24 843.71 450.49 798.65 530.22 941.38 541.54
00001903 00000153 744.63 122.25 357.04 543.81 794.60 334.45 963.34 346.79 842.17 448.00 798.35 530.88 936.32 541.33
00001904 00000154 745.15 118.85 356.09 544.69 795.32 334.02 961.87 342.37 843.45 443.98 801.60 531.08 934.25 538.52
00001905 00000155 745.95 116.77 355.73 543.75 795.38 333.28 961.84 338.35 844.53 441.00 802.79 531.13 934.47 535.94
00001906 00000156 747.78 115.17 355.46 543.28 795.67 333.42 962.33 336.77 845.90 440.57 804.01 531.19 935.92 534.57
00001907 00000157 747.01 123.69 352.80 541.13 794.10 336.96 954.89 345.18 833.79 440.86 801.00 533.44 929.67 541.02
00001908 00000158 749.21 123.98 351.26 539.88 797.51 343.70 954.65 347.55 835.31 437.98 804.70 534.95 929.94 539.12
00001909 00000159 750.15 123.17 354.19 537.33 800.96 351.43 959.37 351.64 839.23 430.56 805.50 532.38 933.67 533.89
00001910 00000160 753.52 114.35 360.11 540.37 809.92 344.83 971.19 353.25 851.24 426.10 813.62 519.12 946.06 528.15
00001911 00000161 751.02 117.81 358.35 538.70 807.13 342.46 963.46 344.66 842.95 417.77 809.04 519.47 936.90 522.25
00001912 00000162 757.68 105.32 356.39 542.09 811.46 330.16 971.03 338.98 849.04 412.95 808.66 505.92 948.00 515.03
00001913 00000163 757.98 102.30 353.57 542.05 811.66 323.18 966.39 330.96 848.67 410.25 808.68 502.73 946.30 511.08
00001914 00000164 757.91 101.35 353.60 541.05 811.06 319.37 964.14 325.44 847.33 407.64 809.45 501.84 944.42 508.96
00001915 00000165 757.54 102.30 353.49 540.25 810.97 319.68 962.99 325.59 847.07 406.39 809.26 501.61 943.37 508.60
00001916 00000166 757.42 101.60 353.41 545.01 810.27 320.51 961.30 325.34 845.80 406.65 809.66 504.28 942.69 510.43
00001917 00000167 755.63 103.16 353.66 549.27 809.61 322.63 962.49 326.91 845.24 409.17 809.82 508.49 945.31 514.28
00001918 00000168 753.39 104.46 355.13 553.07 808.45 323.69 963.75 329.35 844.54 411.86 807.97 510.66 947.38 517.58
00001919 00000169 750.91 105.83 356.58 554.63 807.67 325.88 964.47 333.59 844.08 414.86 805.93 511.56 946.42 520.09
00001920 00000170 748.57 110.68 358.08 552.00 804.11 332.81 961.38 340.55 840.30 422.68 804.61 515.95 944.13 524.20
