Video ID: 	tmrrWnZimEQ
H: 	2160
W: 	3840
FPS: 	29.97002997002997

FRAME INDEX X0 Y0 W H [Landmarks (5 Points)]

00014862 00000000 1637.77 231.11 609.93 1108.66 2091.14 642.87 2146.92 642.48 2252.73 870.08 2074.52 1114.57 2103.82 1112.95
00014863 00000001 1638.53 232.13 619.29 1104.87 2098.36 642.78 2147.60 647.59 2262.33 873.96 2069.17 1100.19 2097.36 1104.26
00014864 DELETE   1635.02 244.96 627.37 1085.95 2117.01 650.77 2147.23 658.32 2267.92 875.11 2057.63 1074.02 2086.97 1082.82
00014865 00000003 1631.46 250.87 637.03 1081.41 2120.47 653.32 2150.11 658.33 2273.54 877.14 2054.17 1066.84 2089.42 1075.02
00014866 00000004 1627.69 241.32 639.91 1091.82 2121.35 655.19 2150.17 659.33 2277.32 876.67 2054.18 1064.99 2092.05 1073.47
00014867 00000005 1625.72 238.72 643.02 1087.46 2115.62 652.87 2149.87 656.66 2275.69 871.83 2061.29 1066.87 2099.56 1074.03
00014868 DELETE   1618.21 228.44 636.25 1092.07 2101.97 648.09 2150.26 654.93 2276.52 864.67 2078.22 1077.47 2121.26 1084.54
00014869 DELETE   1603.51 242.32 652.35 1079.79 2083.71 650.71 2145.41 653.64 2270.05 863.70 2080.74 1085.76 2126.34 1087.60
00014870 DELETE   1584.82 239.10 665.35 1091.78 2072.85 655.00 2140.65 659.20 2268.09 878.82 2073.65 1095.40 2121.74 1098.40
00014871 00000009 1557.51 223.52 686.03 1114.45 2074.73 655.71 2124.00 662.80 2270.86 877.93 2064.40 1088.81 2104.59 1095.72
00014872 DELETE   1534.75 244.01 712.43 1111.82 2069.52 657.64 2112.54 669.32 2262.28 887.62 2033.07 1086.19 2073.41 1100.48
00014873 00000011 1527.98 260.42 718.82 1108.85 2063.56 659.29 2102.93 676.41 2255.01 897.42 2005.60 1087.81 2045.08 1109.09
00014874 DELETE   1523.31 244.85 711.61 1146.38 2040.07 651.11 2094.33 666.55 2237.44 885.50 1982.29 1078.93 2033.07 1095.74
00014875 00000013 1514.12 267.07 710.36 1116.54 2043.29 663.41 2082.87 675.13 2247.01 902.43 1974.66 1096.30 2010.53 1116.67
00014876 00000014 1510.43 237.35 706.75 1152.34 2036.59 660.96 2085.19 674.03 2233.99 884.71 1979.07 1080.28 2026.47 1095.03
00014877 DELETE   1500.95 249.62 706.51 1121.43 2033.03 662.82 2089.70 671.45 2228.52 890.02 1988.84 1080.23 2039.57 1088.89
00014878 00000016 1488.08 253.88 718.12 1117.26 2027.24 671.44 2081.29 671.17 2231.19 892.25 1993.30 1090.74 2041.88 1091.90
00014879 00000017 1481.01 263.43 719.17 1118.11 2017.62 683.07 2082.55 675.78 2233.66 900.06 1990.23 1108.69 2044.38 1104.75
00014880 00000018 1483.36 256.02 716.25 1120.05 2012.22 691.20 2078.75 676.22 2230.95 898.49 1996.27 1114.46 2053.83 1103.24
00014881 00000019 1480.27 239.98 720.10 1135.03 2012.59 690.38 2075.11 675.24 2231.05 902.40 1995.40 1117.38 2049.26 1106.63
00014882 00000020 1477.26 242.93 722.05 1128.63 2010.69 690.25 2076.52 674.03 2233.47 902.07 1990.85 1117.05 2046.81 1105.82
00014883 00000021 1477.48 245.66 725.64 1117.47 2012.54 692.33 2079.88 677.49 2235.94 898.71 1989.98 1109.03 2049.30 1099.01
00014884 00000022 1481.12 257.08 721.57 1098.12 2015.69 682.38 2087.15 681.77 2231.54 909.30 1999.56 1102.32 2042.50 1108.26
00014885 00000023 1482.33 252.94 729.16 1100.48 2021.90 685.14 2089.63 684.15 2236.30 909.48 2008.89 1101.45 2050.82 1106.45
00014886 00000024 1488.81 278.56 725.70 1073.39 2021.13 683.95 2103.28 688.74 2235.76 910.63 2019.33 1107.68 2071.77 1115.89
00014887 00000025 1492.36 260.71 733.92 1099.59 2028.45 687.21 2103.73 687.95 2244.95 911.68 2031.52 1109.76 2077.47 1114.93
00014888 00000026 1495.63 242.88 736.93 1122.78 2036.47 693.86 2116.84 691.14 2256.42 914.11 2048.27 1120.19 2096.19 1122.04
00014889 00000027 1499.88 232.39 738.92 1146.05 2036.34 690.79 2122.36 691.74 2262.73 915.27 2055.36 1127.96 2107.01 1132.65
00014890 00000028 1502.50 234.07 739.60 1147.48 2040.87 690.66 2124.78 688.58 2269.09 916.39 2062.30 1133.58 2113.00 1135.74
00014891 00000029 1508.75 251.32 734.03 1124.46 2046.84 685.37 2129.45 686.96 2271.81 915.06 2068.15 1130.03 2118.96 1134.73
00014892 00000030 1509.24 255.30 734.06 1117.03 2047.32 685.82 2127.58 688.07 2269.45 914.95 2065.54 1127.98 2115.09 1132.89
00014893 00000031 1508.51 270.65 729.76 1094.37 2047.85 692.93 2137.49 697.02 2263.93 915.02 2055.27 1122.25 2114.82 1129.02
00014894 00000032 1497.71 290.58 739.22 1064.63 2043.89 692.33 2137.58 701.35 2250.70 917.87 2038.78 1112.62 2103.22 1124.22
00014895 00000033 1484.07 279.61 746.82 1074.92 2034.85 693.06 2127.13 705.80 2240.27 911.63 2020.92 1103.52 2085.20 1118.63
00014896 DELETE   1477.78 291.73 745.97 1065.56 2024.89 680.09 2133.43 709.84 2233.09 914.51 1999.34 1097.29 2075.45 1126.65
00014897 00000035 1469.00 289.14 745.92 1064.60 2017.25 673.31 2134.99 711.97 2225.88 913.82 1984.78 1091.74 2069.30 1128.11
00014898 00000036 1458.83 263.50 750.89 1094.02 2013.50 668.63 2138.86 715.35 2225.73 913.85 1979.09 1091.91 2068.90 1134.76
00014899 00000037 1446.85 248.28 766.95 1138.69 1999.71 681.94 2124.60 730.06 2229.35 901.51 1979.34 1081.89 2082.29 1122.43
00014900 00000038 1445.93 272.50 758.94 1099.12 2001.32 665.26 2132.94 723.89 2218.61 914.94 1971.45 1093.88 2066.89 1146.11
00014901 00000039 1435.17 254.51 772.48 1142.13 1990.65 677.62 2122.05 730.87 2226.53 902.26 1973.30 1085.74 2081.62 1130.44
00014902 00000040 1432.93 260.68 768.71 1138.25 1980.22 687.44 2121.72 740.86 2215.30 909.79 1965.67 1096.26 2080.30 1141.17
00014903 00000041 1430.93 268.96 770.79 1137.17 1980.56 685.51 2122.62 742.68 2214.94 908.98 1967.18 1096.82 2080.91 1144.58
00014904 00000042 1431.22 270.60 769.59 1136.25 1977.99 692.63 2123.47 744.81 2210.84 916.91 1968.10 1103.57 2084.05 1146.97
00014905 00000043 1423.37 284.42 775.95 1129.19 1968.05 694.68 2124.99 753.86 2200.38 923.39 1959.57 1110.22 2080.96 1159.67
00014906 00000044 1417.04 302.26 785.27 1119.73 1962.04 695.10 2127.08 753.31 2197.59 928.04 1958.44 1118.31 2082.34 1167.23
00014907 00000045 1445.83 333.24 760.26 1081.12 1959.75 709.53 2159.68 766.30 2204.32 947.46 1954.06 1134.77 2087.70 1183.71
00014908 00000046 1440.58 318.10 761.32 1097.56 1957.54 715.58 2160.49 772.38 2202.14 953.79 1953.90 1141.45 2088.97 1189.78
00014909 00000047 1407.80 327.07 794.29 1085.96 1960.65 710.25 2137.08 780.38 2184.08 953.46 1956.02 1127.66 2074.67 1181.40
00014910 00000048 1403.17 335.34 800.61 1086.94 1954.22 715.81 2139.74 789.36 2178.89 959.79 1948.48 1133.53 2075.65 1190.03
00014911 00000049 1399.17 326.59 801.10 1110.02 1953.96 722.54 2137.55 792.90 2178.50 965.03 1946.54 1142.12 2070.63 1195.63
00014912 00000050 1397.10 344.45 800.26 1103.77 1950.38 728.56 2142.32 794.41 2176.88 977.07 1936.93 1151.47 2068.90 1201.82
00014913 00000051 1400.56 353.84 794.94 1098.60 1950.76 732.21 2142.08 795.91 2177.30 980.88 1937.69 1156.88 2068.86 1205.75
00014914 00000052 1396.93 358.69 799.32 1091.70 1946.95 732.95 2145.33 802.11 2178.77 983.78 1928.85 1156.59 2069.84 1210.89
00014915 00000053 1432.23 353.25 773.00 1093.04 1941.63 744.34 2175.79 809.05 2193.67 984.33 1928.62 1170.74 2087.00 1224.62
00014916 00000054 1431.91 360.41 773.63 1086.05 1941.43 752.00 2174.61 815.41 2194.58 987.01 1929.81 1171.10 2088.75 1224.24
00014917 00000055 1434.78 361.22 772.08 1084.71 1941.01 758.88 2177.06 820.24 2194.40 991.31 1930.88 1173.81 2091.62 1225.36
00014918 00000056 1433.33 366.97 774.57 1082.88 1940.99 763.71 2176.12 823.21 2195.73 994.23 1930.89 1174.94 2091.40 1225.18
00014919 00000057 1434.06 357.66 772.95 1095.38 1939.94 766.25 2179.03 824.12 2195.75 997.30 1930.97 1178.64 2094.89 1227.78
00014920 00000058 1432.64 351.21 775.32 1105.88 1942.11 770.61 2177.95 826.52 2198.43 998.87 1935.07 1180.78 2096.90 1228.29
00014921 00000059 1430.76 358.98 778.68 1099.96 1945.99 771.19 2174.23 826.47 2203.84 998.91 1939.50 1180.85 2096.88 1227.93
00014922 00000060 1432.91 362.10 780.33 1122.63 1954.28 764.62 2159.04 831.15 2203.75 995.69 1943.97 1180.42 2088.27 1237.09
00014923 00000061 1413.93 334.95 798.58 1163.90 1947.59 757.99 2126.77 820.07 2184.47 985.45 1936.43 1179.84 2064.50 1229.39
00014924 00000062 1407.90 348.17 798.36 1120.41 1947.25 763.60 2139.52 832.74 2186.15 987.18 1941.56 1171.80 2079.94 1225.85
00014925 00000063 1445.99 371.70 769.51 1083.28 1945.54 762.03 2178.48 823.30 2201.34 990.45 1933.06 1171.87 2097.55 1224.32
00014926 00000064 1449.26 381.27 767.33 1072.44 1946.46 760.19 2181.29 824.90 2199.44 987.44 1933.37 1169.42 2098.49 1224.13
00014927 00000065 1424.69 355.92 780.85 1094.92 1947.98 761.28 2143.98 827.53 2187.26 976.22 1941.90 1155.23 2083.02 1207.14
00014928 00000066 1425.67 347.07 780.10 1094.22 1950.92 762.31 2147.15 830.41 2187.11 976.46 1942.82 1155.54 2084.78 1208.41
00014929 00000067 1424.87 348.57 780.52 1093.01 1950.50 762.72 2147.99 830.04 2186.77 975.60 1943.24 1153.60 2086.11 1205.58
00014930 00000068 1428.75 347.18 776.09 1093.56 1951.46 766.43 2146.11 829.52 2186.78 974.05 1948.45 1154.77 2088.81 1202.70
00014931 00000069 1430.71 338.22 775.72 1102.76 1954.12 769.27 2143.34 829.59 2184.56 974.74 1952.14 1157.31 2087.97 1202.69
00014932 00000070 1432.97 349.85 774.56 1092.89 1955.27 772.49 2144.37 833.15 2187.29 975.36 1955.68 1157.71 2091.45 1203.50
00014933 00000071 1435.94 350.59 770.58 1093.80 1954.84 772.56 2142.87 832.72 2187.51 974.85 1956.82 1158.72 2091.52 1203.97
00014934 00000072 1433.94 349.86 778.21 1086.64 1952.45 771.58 2146.11 834.77 2185.95 976.98 1947.99 1154.58 2088.27 1203.54
00014935 00000073 1434.66 348.01 775.70 1085.11 1949.46 771.63 2149.51 834.45 2184.38 978.49 1941.72 1151.64 2088.67 1200.68
00014936 00000074 1434.11 346.27 777.40 1093.95 1948.29 766.14 2148.96 828.20 2185.05 978.57 1938.13 1149.45 2085.93 1198.44
00014937 00000075 1434.63 339.06 775.86 1100.87 1951.29 762.11 2150.69 830.43 2185.80 976.58 1936.64 1148.18 2082.81 1202.35
00014938 00000076 1435.37 344.76 771.46 1091.13 1951.49 761.71 2150.28 827.38 2183.74 974.71 1936.28 1145.32 2083.57 1196.99
00014939 00000077 1434.95 342.30 772.81 1084.75 1956.88 760.53 2152.15 830.29 2188.72 971.42 1938.85 1139.55 2084.57 1194.61
00014940 00000078 1433.66 342.58 773.81 1076.85 1956.11 759.24 2150.44 826.81 2186.63 967.04 1941.34 1132.79 2087.80 1186.26
00014941 00000079 1470.82 366.29 748.09 1062.39 1963.23 750.67 2190.70 812.52 2206.52 975.71 1943.73 1152.37 2103.51 1205.97
00014942 00000080 1470.17 361.98 747.41 1064.95 1961.43 749.00 2188.05 808.67 2205.42 975.35 1945.65 1152.76 2102.60 1204.47
00014943 00000081 1469.98 360.77 745.72 1061.68 1958.03 745.97 2184.21 802.33 2201.59 973.36 1944.55 1153.45 2100.07 1202.52
00014944 00000082 1467.33 345.47 745.53 1070.81 1956.71 748.72 2184.06 803.29 2199.50 974.32 1943.27 1153.95 2098.92 1201.21
00014945 00000083 1467.08 346.35 744.60 1069.25 1955.55 749.32 2182.62 803.80 2197.84 973.10 1943.19 1153.05 2098.85 1200.17
00014946 00000084 1468.12 346.65 744.56 1067.82 1952.98 746.69 2185.16 800.24 2195.70 971.95 1941.92 1153.95 2100.01 1200.17
00014947 00000085 1466.42 342.13 744.72 1070.35 1950.21 747.98 2185.17 802.09 2192.48 973.10 1939.72 1154.13 2100.47 1200.54
00014948 00000086 1465.06 351.73 745.70 1064.04 1947.46 747.99 2181.20 800.37 2189.14 975.41 1936.71 1156.40 2096.84 1201.86
00014949 00000087 1462.12 347.35 747.60 1071.25 1945.14 750.73 2183.58 804.58 2189.01 976.56 1934.21 1159.39 2098.06 1205.93
00014950 00000088 1459.81 350.89 749.63 1070.70 1943.82 749.35 2183.26 806.13 2188.50 976.84 1930.44 1158.28 2096.77 1207.24
00014951 00000089 1457.21 348.72 753.26 1079.48 1947.07 749.24 2182.40 807.94 2190.84 977.67 1930.84 1158.02 2095.97 1208.57
00014952 00000090 1459.29 362.68 751.33 1066.98 1947.14 748.98 2176.47 805.12 2189.12 978.17 1933.57 1159.25 2091.75 1207.65
00014953 00000091 1459.04 364.00 750.82 1070.51 1948.43 748.69 2173.24 805.18 2189.05 979.52 1934.85 1160.45 2088.97 1209.13
00014954 00000092 1425.52 347.62 774.89 1086.56 1946.69 754.63 2137.31 812.10 2172.87 971.48 1939.45 1147.05 2074.77 1190.98
00014955 00000093 1423.60 333.88 779.31 1109.95 1948.73 756.59 2133.86 814.03 2170.60 972.56 1941.38 1152.13 2070.53 1195.93
00014956 00000094 1423.88 336.34 779.31 1104.75 1948.98 759.28 2133.66 816.27 2171.47 973.05 1943.58 1153.69 2074.15 1196.86
00014957 00000095 1425.30 339.89 775.75 1091.48 1948.77 759.11 2136.14 817.18 2175.17 972.27 1943.20 1152.40 2076.37 1196.77
00014958 00000096 1423.03 348.33 779.08 1068.06 1947.25 758.88 2141.15 820.53 2173.96 970.25 1942.04 1147.62 2083.55 1194.92
00014959 00000097 1461.19 365.20 750.79 1062.54 1949.41 753.40 2179.87 810.93 2191.95 982.21 1935.90 1161.68 2095.63 1211.33
00014960 00000098 1459.99 353.81 751.94 1076.01 1947.61 753.89 2178.86 810.51 2192.36 981.72 1931.21 1161.56 2093.85 1211.02
00014961 00000099 1462.34 361.97 751.61 1071.35 1949.68 753.77 2175.89 810.74 2192.47 981.11 1930.63 1159.21 2091.11 1209.35
00014962 00000100 1431.09 339.37 775.92 1089.95 1944.78 757.90 2144.21 818.46 2177.83 971.61 1931.50 1137.45 2081.34 1185.81
00014963 00000101 1433.14 342.59 773.65 1085.07 1947.72 762.47 2144.93 822.53 2180.95 973.40 1933.64 1140.83 2080.82 1188.68
00014964 00000102 1437.85 340.97 769.54 1083.24 1952.37 768.23 2150.13 834.07 2183.30 976.95 1936.52 1144.52 2084.26 1197.01
00014965 00000103 1436.59 349.25 772.19 1074.57 1952.64 771.81 2151.25 838.36 2184.75 978.32 1937.77 1146.06 2086.88 1198.99
00014966 00000104 1438.20 354.74 774.02 1067.72 1952.76 773.08 2153.93 839.58 2186.75 977.64 1940.16 1146.37 2090.76 1199.29
00014967 00000105 1437.15 356.39 776.31 1064.79 1952.64 773.15 2154.32 839.62 2187.52 977.42 1940.94 1147.41 2092.44 1200.00
00014968 00000106 1437.97 359.40 773.87 1058.63 1952.20 770.33 2155.58 837.86 2185.69 976.10 1940.30 1146.14 2093.43 1199.49
00014969 00000107 1438.23 346.29 775.29 1069.28 1954.49 773.18 2153.63 838.73 2184.18 975.06 1941.57 1147.28 2090.56 1199.20
00014970 00000108 1437.20 340.91 775.02 1073.36 1953.87 770.91 2153.75 840.26 2182.32 973.33 1938.49 1147.27 2089.02 1202.10
00014971 00000109 1437.27 347.15 775.49 1070.75 1951.34 769.89 2154.79 837.38 2182.39 972.73 1938.17 1146.85 2090.69 1199.83
00014972 00000110 1439.75 351.20 772.33 1074.73 1948.67 768.74 2156.82 834.21 2181.95 972.48 1938.45 1146.40 2094.54 1197.76
00014973 00000111 1439.30 356.34 775.17 1079.21 1945.40 766.41 2153.76 826.43 2182.94 974.25 1937.54 1145.28 2093.04 1192.61
00014974 00000112 1443.51 359.02 771.12 1078.47 1951.80 765.19 2152.83 829.66 2181.80 974.69 1939.97 1143.70 2085.50 1194.32
00014975 00000113 1446.53 356.37 771.19 1076.85 1956.73 768.19 2155.78 832.55 2185.70 975.44 1944.21 1142.49 2091.25 1193.58
00014976 00000114 1449.39 361.70 771.33 1064.43 1956.41 770.83 2158.98 831.21 2185.74 972.81 1947.14 1136.57 2099.81 1184.60
00014977 00000115 1452.68 358.57 769.75 1063.61 1963.76 770.57 2164.25 836.67 2192.30 970.92 1951.63 1134.08 2103.07 1187.02
00014978 00000116 1462.42 366.39 761.60 1053.82 1968.18 766.23 2165.78 831.61 2197.02 967.95 1953.95 1130.87 2103.75 1183.73
00014979 00000117 1465.36 364.03 765.57 1057.94 1972.63 762.67 2170.34 828.36 2201.00 967.75 1956.07 1131.63 2104.56 1184.93
00014980 00000118 1467.47 348.29 768.19 1075.29 1977.96 759.59 2169.51 824.97 2203.05 963.59 1962.22 1130.75 2104.31 1184.01
00014981 00000119 1470.87 349.46 765.42 1079.08 1979.07 761.60 2169.95 826.72 2204.26 966.93 1961.58 1133.20 2102.64 1186.70
00014982 00000120 1472.63 357.87 765.19 1072.65 1979.48 767.42 2170.38 831.80 2206.90 968.18 1964.55 1133.60 2107.87 1186.18
00014983 00000121 1475.52 351.68 768.09 1073.50 1984.35 767.98 2180.88 832.09 2212.17 963.73 1973.00 1133.73 2118.17 1185.61
00014984 00000122 1488.32 360.25 770.86 1064.32 2000.70 750.02 2196.40 821.49 2228.02 974.23 1978.99 1143.16 2126.37 1207.39
00014985 00000123 1493.88 355.66 769.72 1069.48 2002.67 748.23 2200.71 818.86 2234.75 972.19 1983.75 1144.79 2131.78 1208.56
00014986 00000124 1498.75 356.49 769.93 1073.10 2007.05 749.02 2201.30 818.03 2239.23 971.63 1988.98 1146.64 2133.78 1208.80
00014987 00000125 1495.58 337.12 769.73 1101.75 2004.21 762.29 2204.24 833.88 2240.43 958.20 1989.18 1132.50 2137.96 1191.68
00014988 00000126 1497.03 343.71 772.12 1104.65 2002.55 761.91 2207.48 833.41 2241.42 959.61 1988.71 1133.36 2141.71 1192.27
00014989 00000127 1500.19 328.36 770.22 1116.93 2008.19 765.89 2209.02 832.03 2245.19 961.80 1995.85 1136.94 2144.11 1191.84
00014990 00000128 1501.29 321.53 769.74 1121.41 2012.65 767.85 2209.27 834.46 2249.07 962.10 1998.89 1136.06 2144.52 1192.02
00014991 00000129 1507.14 323.17 766.16 1117.25 2012.64 770.50 2219.04 834.64 2252.02 960.41 2002.17 1137.12 2155.11 1191.10
00014992 00000130 1511.26 321.34 764.50 1118.86 2014.02 770.06 2217.80 833.76 2251.85 958.20 2003.07 1134.98 2154.48 1188.98
00014993 00000131 1515.11 340.88 761.13 1101.93 2025.70 740.30 2218.72 807.71 2257.45 976.24 1996.95 1149.75 2149.90 1207.93
00014994 00000132 1515.91 353.80 763.63 1098.14 2030.86 737.44 2216.47 804.76 2256.49 984.26 1994.06 1156.45 2141.10 1215.22
00014995 00000133 1516.43 351.65 760.78 1092.76 2033.33 739.24 2216.68 802.72 2260.39 980.73 1998.95 1154.10 2142.66 1209.38
00014996 00000134 1508.58 355.81 770.82 1081.38 2014.40 768.91 2219.01 838.59 2255.10 961.45 1993.79 1130.14 2151.51 1188.95
00014997 00000135 1510.83 347.67 768.05 1091.46 2018.50 766.28 2218.35 834.40 2259.51 960.32 1999.35 1130.81 2152.59 1188.74
00014998 00000136 1512.76 349.26 768.84 1091.85 2038.38 739.03 2225.22 804.69 2267.77 981.07 2004.74 1150.09 2151.46 1206.63
00014999 00000137 1516.44 365.62 764.18 1079.64 2038.28 740.00 2218.40 801.75 2262.84 985.04 1999.33 1152.21 2144.14 1206.31
00015000 DELETE   1520.96 376.16 762.36 1076.21 2042.41 738.61 2221.06 804.11 2265.36 993.17 1994.60 1155.32 2139.79 1213.05
00015001 DELETE   1519.56 375.80 760.41 1077.62 2043.64 743.08 2217.69 804.46 2264.22 993.60 1997.74 1159.48 2138.87 1213.33
00015002 00000140 1515.51 381.34 760.31 1069.72 2044.51 747.91 2219.25 806.21 2269.41 995.33 2003.74 1166.20 2143.29 1216.90
00015003 00000141 1507.26 370.34 763.07 1079.16 2020.37 785.57 2201.47 829.73 2258.80 976.76 2009.40 1149.47 2148.56 1186.29
00015004 00000142 1510.74 368.43 760.64 1079.25 2044.34 756.61 2213.31 803.83 2270.36 996.14 2017.92 1177.49 2146.48 1217.02
00015005 00000143 1508.26 380.64 763.73 1082.77 2050.45 757.30 2207.27 809.07 2269.59 1000.03 2009.92 1176.70 2135.36 1221.59
00015006 00000144 1502.68 397.31 767.86 1074.81 2044.77 753.10 2196.79 816.96 2259.23 1007.55 1989.71 1174.09 2115.97 1230.28
00015007 00000145 1500.29 397.68 765.26 1076.39 2040.88 754.08 2195.45 818.16 2255.77 1009.03 1981.05 1173.39 2110.09 1230.39
00015008 00000146 1499.82 410.56 763.78 1059.59 2039.37 755.20 2197.75 817.96 2253.34 1008.26 1978.63 1170.16 2110.93 1226.40
00015009 00000147 1483.24 393.05 773.28 1071.65 2001.15 792.99 2176.10 840.10 2229.53 990.43 1979.80 1148.42 2116.96 1186.87
00015010 00000148 1481.95 401.55 772.55 1059.18 1998.31 795.84 2177.81 841.03 2230.06 991.82 1983.17 1148.96 2124.00 1185.77
00015011 00000149 1477.79 402.16 771.11 1056.62 1994.91 799.78 2175.08 841.61 2229.37 991.47 1990.29 1153.32 2128.72 1186.39
00015012 00000150 1476.04 401.56 767.67 1054.57 1993.77 802.24 2171.35 845.82 2224.40 991.47 1993.38 1154.74 2129.18 1188.36
00015013 00000151 1475.04 403.59 764.20 1048.27 1990.22 804.44 2166.41 841.91 2220.40 993.72 1992.60 1156.39 2127.15 1184.98
00015014 00000152 1469.78 403.96 765.48 1046.00 1987.26 807.06 2162.21 844.70 2216.46 994.58 1991.45 1158.09 2124.54 1186.63
00015015 00000153 1463.79 404.85 768.53 1045.42 1982.34 807.83 2159.82 845.39 2216.41 997.59 1990.67 1162.25 2123.11 1190.67
00015016 00000154 1461.64 405.67 769.36 1046.84 1979.47 804.04 2158.72 842.04 2214.05 999.84 1987.18 1164.70 2118.11 1193.19
00015017 00000155 1456.53 400.45 770.20 1051.49 1978.44 804.96 2156.08 847.03 2206.12 999.61 1982.84 1165.04 2112.41 1196.57
00015018 00000156 1453.40 402.69 771.07 1051.59 1977.79 804.21 2154.01 847.71 2204.38 1000.87 1980.07 1166.50 2108.40 1199.26
00015019 00000157 1451.54 405.72 770.99 1055.30 1974.10 803.72 2149.61 843.76 2199.04 1001.37 1976.98 1172.55 2106.05 1202.66
00015020 00000158 1449.92 393.17 765.17 1075.49 1976.03 804.86 2142.41 844.42 2199.87 1001.24 1977.31 1178.06 2102.31 1207.83
