Video ID: 	A48Kj2NprnQ
H: 	2160
W: 	3840
FPS: 	25.0

FRAME INDEX X0 Y0 W H [Landmarks (5 Points)]

00008977 00000000 1457.91 253.45 596.79 840.14 1593.80 700.62 1794.16 626.95 1708.80 811.94 1727.84 951.09 1868.23 897.44
00008978 00000001 1449.68 266.13 598.76 822.66 1582.55 706.23 1789.67 627.53 1707.23 812.95 1712.46 954.33 1863.38 896.68
00008979 00000002 1444.26 262.33 595.01 826.60 1574.80 709.39 1782.52 631.31 1698.37 811.27 1703.53 955.15 1853.79 898.23
00008980 00000003 1441.27 262.45 595.48 821.93 1571.93 709.90 1779.11 631.10 1693.79 811.04 1701.73 953.88 1849.68 896.79
00008981 00000004 1440.42 266.62 594.06 813.23 1569.85 711.52 1780.29 632.88 1694.92 809.87 1701.71 956.52 1849.09 899.54
00008982 00000005 1440.95 263.39 590.86 816.45 1571.38 710.67 1777.90 630.88 1694.12 809.12 1700.90 950.45 1848.22 892.74
00008983 00000006 1441.14 265.43 594.72 817.26 1572.87 706.20 1780.71 628.84 1696.48 806.75 1700.94 950.91 1848.71 894.66
00008984 00000007 1446.76 263.40 589.05 816.60 1576.62 703.92 1783.94 626.93 1698.77 805.33 1698.94 944.76 1850.00 888.31
00008985 00000008 1451.79 259.84 590.95 818.96 1582.20 697.47 1786.18 619.49 1702.13 801.55 1706.48 942.94 1853.85 886.08
00008986 00000009 1461.00 257.72 591.67 814.09 1588.44 694.66 1789.19 617.04 1706.80 799.57 1713.51 940.78 1857.89 884.36
00008987 00000010 1467.54 250.73 591.46 813.58 1596.33 692.07 1793.86 614.93 1712.18 794.10 1719.86 928.19 1864.28 872.30
00008988 DELETE   770.74 118.23 435.14 534.50
00008989 DELETE   771.02 117.26 435.36 534.92
00008990 00000013 1852.32 171.67 628.50 913.44 1992.20 627.13 2246.42 583.69 2122.07 769.79 2061.54 914.70 2278.44 882.53
00008991 00000014 1851.86 170.00 631.44 926.66 1993.37 622.23 2247.25 581.66 2123.19 771.60 2057.95 913.48 2279.37 883.14
00008992 00000015 1850.51 176.04 636.22 940.55 1993.29 628.24 2250.86 588.27 2120.26 769.03 2062.96 913.50 2284.95 883.93
00008993 00000016 1849.02 180.28 640.07 941.31 1996.30 625.16 2250.41 585.86 2118.40 766.55 2064.21 908.78 2285.04 879.82
00008994 00000017 1850.07 176.96 639.97 943.32 1995.86 625.63 2250.77 587.53 2117.16 768.53 2063.32 908.36 2283.62 880.34
00008995 00000018 1849.91 181.30 639.70 938.72 1991.16 629.10 2244.46 589.22 2112.28 768.28 2063.01 912.20 2277.93 882.50
00008996 00000019 1847.23 179.42 638.61 929.45 1992.05 630.14 2246.08 590.38 2116.52 766.97 2062.84 907.91 2278.03 878.81
00008997 00000020 1848.19 177.64 638.13 939.32 1990.55 630.76 2245.48 591.40 2113.32 770.49 2062.22 913.19 2277.82 884.32
00008998 00000021 1848.14 177.21 636.66 936.76 1990.56 624.35 2247.30 587.69 2113.62 772.61 2052.14 910.43 2276.00 883.29
00008999 00000022 1850.42 177.72 630.45 929.61 1992.03 626.86 2244.65 590.75 2112.41 776.47 2052.90 908.73 2274.21 882.08
00009000 00000023 1843.21 178.83 635.02 920.99 1988.94 628.00 2244.03 591.61 2114.60 775.37 2050.74 908.65 2271.41 881.91
00009001 00000024 1838.80 181.09 643.21 930.06 1984.56 627.46 2245.68 590.10 2111.27 774.16 2048.55 912.39 2272.92 884.69
00009002 00000025 1839.04 176.98 641.63 921.10 1984.37 628.07 2243.38 591.32 2112.05 775.24 2049.44 912.31 2268.45 885.33
00009003 00000026 1840.20 177.07 640.17 928.04 1981.78 632.19 2243.70 599.39 2105.44 775.68 2050.10 913.18 2266.65 889.86
00009004 00000027 1839.42 174.20 640.26 920.27 1985.49 628.01 2243.89 590.41 2116.17 775.81 2050.83 911.36 2270.33 883.79
00009005 00000028 1839.22 175.42 640.39 936.76 1985.61 635.41 2246.30 594.56 2113.21 773.75 2059.50 916.10 2277.04 886.45
00009006 00000029 1839.55 171.74 641.92 938.35 1984.08 633.64 2247.52 595.85 2111.68 772.50 2056.60 914.73 2274.76 887.59
00009007 00000030 1839.78 172.66 641.25 936.84 1984.63 633.26 2247.56 596.27 2112.02 774.36 2055.81 912.84 2275.43 886.15
00009008 00000031 1838.35 174.61 640.24 933.66 1983.78 633.97 2245.32 596.45 2110.92 775.37 2054.37 912.34 2272.71 885.27
00009009 00000032 1841.16 183.71 633.70 930.69 1984.03 627.44 2238.85 581.29 2112.57 772.92 2059.09 909.72 2273.15 874.65
00009010 00000033 1842.05 181.41 634.93 935.62 1983.83 622.90 2240.13 582.21 2109.23 771.11 2055.00 908.93 2267.69 878.34
00009011 00000034 1841.89 179.32 633.45 930.72 1983.73 624.79 2239.45 583.51 2108.10 771.80 2056.19 909.91 2264.50 879.52
00009012 00000035 1838.52 170.90 643.69 944.31 1985.86 630.46 2245.61 595.49 2109.58 774.33 2055.83 918.86 2267.33 894.33
00009013 00000036 1841.63 167.06 642.85 957.00 1985.29 631.00 2246.72 595.01 2109.30 775.96 2056.24 924.12 2269.96 898.83
00009014 00000037 1843.54 169.07 639.37 945.00 1985.91 630.34 2248.34 593.62 2114.00 773.15 2057.53 918.15 2274.28 892.04
00009015 00000038 1844.69 170.73 636.41 940.76 1987.44 631.35 2248.56 599.09 2111.82 774.47 2053.58 916.65 2268.97 894.13
00009016 00000039 1844.74 175.59 637.62 947.44 1987.04 633.91 2247.92 598.82 2111.20 775.52 2050.42 915.83 2274.82 890.48
00009017 00000040 1848.91 187.23 624.47 934.01 1986.49 627.75 2241.70 586.74 2111.31 774.16 2051.82 909.83 2272.45 879.25
00009018 00000041 1850.70 193.07 618.58 922.09 1985.93 632.13 2240.59 588.51 2110.41 772.07 2053.75 909.99 2272.54 877.66
00009019 00000042 1844.98 185.83 632.95 944.15 1985.29 640.58 2247.01 601.12 2109.08 774.28 2048.60 918.03 2278.11 889.58
00009020 00000043 1846.24 186.84 631.80 940.21 1986.59 639.71 2245.51 598.94 2109.96 776.93 2053.40 918.25 2279.54 888.32
00009021 00000044 1846.15 188.07 632.62 942.00 1985.93 638.54 2244.40 599.92 2108.02 777.60 2048.74 916.43 2278.15 888.03
00009022 00000045 1846.55 184.46 631.23 935.30 1985.09 639.97 2246.29 598.67 2109.72 773.65 2053.32 917.03 2278.85 886.92
00009023 00000046 1847.03 182.35 629.34 933.77 1982.79 636.38 2244.37 600.01 2105.92 778.28 2049.54 915.59 2272.94 888.95
00009024 00000047 1843.87 179.52 633.25 941.01 1979.31 636.50 2242.43 600.59 2101.54 777.87 2044.01 915.99 2271.32 889.94
00009025 00000048 1843.69 189.31 632.10 924.91 1979.73 639.66 2240.51 600.09 2103.29 778.27 2048.64 915.41 2272.71 886.31
00009026 00000049 1843.86 186.19 632.13 930.06 1978.39 641.71 2243.49 602.93 2102.78 777.12 2047.37 917.26 2273.02 889.02
00009027 00000050 1843.29 192.99 634.10 935.74 1979.24 641.77 2239.77 602.66 2101.21 782.26 2044.62 919.42 2272.54 890.63
00009028 00000051 1843.88 190.68 636.08 945.04 1978.06 642.71 2241.16 605.13 2098.64 780.50 2045.01 926.26 2270.04 899.16
00009029 00000052 1846.56 190.42 632.07 942.45 1981.19 640.39 2237.69 604.09 2097.86 784.64 2048.89 924.39 2267.95 897.86
00009030 00000053 1846.45 188.09 630.71 940.37 1980.82 640.34 2237.54 601.13 2099.41 783.39 2052.66 925.26 2268.33 896.57
00009031 00000054 1844.36 185.28 633.02 947.24 1981.17 637.93 2240.82 601.59 2098.47 775.93 2045.10 914.65 2275.63 888.06
00009032 00000055 1845.09 187.92 631.41 938.86 1981.47 635.24 2241.93 599.64 2100.58 772.77 2040.34 908.86 2277.21 882.79
00009033 00000056 1845.92 184.36 633.24 935.38 1985.04 634.07 2245.97 599.09 2105.72 776.20 2044.86 905.70 2281.40 879.62
00009034 00000057 1846.02 184.43 636.69 941.27 1984.90 635.04 2245.31 598.26 2106.48 774.46 2049.40 910.95 2280.23 883.92
00009035 00000058 1849.63 182.28 629.34 923.45 1986.27 634.30 2245.26 599.52 2107.82 777.76 2052.65 909.10 2274.76 883.52
00009036 00000059 1849.66 178.62 630.95 935.34 1986.64 637.10 2246.28 602.36 2106.63 778.14 2051.30 910.63 2277.64 885.16
00009037 00000060 1848.89 179.78 633.88 955.05 1987.82 636.80 2246.37 602.39 2105.28 777.10 2049.55 916.45 2278.92 891.51
00009038 00000061 1851.08 181.20 629.19 947.35 1988.29 635.73 2245.52 602.53 2103.41 777.85 2050.37 914.39 2277.58 890.37
00009039 00000062 1851.19 184.68 630.28 941.00 1989.66 636.34 2245.10 603.46 2102.86 778.83 2050.92 910.68 2278.39 886.89
00009040 00000063 1851.75 184.63 629.47 935.40 1991.03 635.23 2245.22 600.72 2106.53 777.39 2054.03 909.78 2277.58 884.54
00009041 00000064 1852.14 180.16 629.07 935.07 1987.38 632.61 2245.14 598.73 2105.99 774.44 2051.65 912.18 2273.27 887.72
00009042 00000065 1853.35 185.85 630.24 930.70 1986.92 635.17 2245.71 602.32 2103.69 775.28 2049.20 910.69 2272.97 886.87
00009043 00000066 1855.24 188.11 629.37 926.61 1986.66 630.76 2245.25 599.99 2101.24 773.13 2047.53 909.80 2269.03 887.51
00009044 00000067 1855.27 181.63 625.93 912.90 1984.55 624.03 2242.22 588.35 2108.98 770.74 2044.22 907.21 2262.90 880.67
00009045 00000068 1854.81 179.31 622.73 924.65 1983.83 623.83 2240.54 592.24 2101.51 775.06 2039.81 912.55 2257.86 889.36
00009046 00000069 1854.40 184.36 620.93 910.11 1983.52 626.56 2239.78 598.11 2099.90 775.77 2038.15 910.17 2253.00 889.67
00009047 00000070 1846.91 189.88 633.91 917.30 1972.76 626.07 2236.55 594.70 2083.71 777.82 2034.14 912.83 2251.28 891.48
00009048 00000071 1845.85 190.14 625.52 906.76 1974.02 634.40 2242.66 611.33 2089.92 780.13 2033.52 915.54 2252.10 899.82
00009049 00000072 1844.14 191.21 626.90 897.32 1977.25 634.49 2235.56 611.17 2091.91 783.53 2029.90 914.24 2242.18 897.83
00009050 00000073 1844.02 191.55 621.77 903.46 1972.47 632.84 2229.77 608.25 2085.95 787.87 2025.75 914.05 2241.27 896.04
00009051 00000074 1835.59 200.01 635.15 918.60 1966.15 635.76 2229.89 605.24 2083.23 784.82 2029.54 919.28 2252.32 896.76
00009052 00000075 1835.58 198.80 631.04 900.97 1966.68 633.66 2228.74 604.82 2088.52 786.50 2025.18 915.64 2245.02 894.04
00009053 00000076 1832.08 195.48 627.87 895.90 1966.76 635.96 2224.05 608.82 2086.04 791.16 2024.41 911.97 2239.18 891.43
00009054 00000077 1830.50 200.67 632.07 893.76 1960.33 629.78 2217.20 593.57 2079.35 776.13 2033.55 911.86 2240.73 886.00
00009055 00000078 1828.23 198.47 634.26 899.05 1958.53 628.70 2216.42 590.96 2078.76 773.94 2032.14 914.46 2239.34 888.01
00009056 00000079 1828.72 197.93 632.92 895.65 1958.29 627.88 2215.69 591.04 2077.63 774.05 2032.39 914.07 2237.45 888.48
00009057 00000080 1828.40 198.43 634.21 896.99 1958.44 627.71 2213.57 592.83 2074.74 776.74 2031.44 912.27 2234.47 887.72
00009058 00000081 1829.88 193.64 629.77 898.80 1960.04 626.73 2214.99 596.06 2075.61 776.18 2030.80 913.16 2229.80 892.18
00009059 00000082 1829.02 194.30 629.83 894.66 1960.15 626.76 2213.82 594.40 2075.63 778.60 2031.83 911.27 2231.87 888.86
00009060 00000083 1828.79 198.26 628.99 890.09 1959.84 627.34 2213.40 591.74 2077.63 777.96 2033.56 912.28 2234.40 887.41
00009061 00000084 1828.51 193.89 630.44 903.61 1961.53 629.77 2220.25 599.43 2082.76 785.22 2025.72 916.17 2235.24 893.24
00009062 00000085 1829.37 194.17 631.04 909.29 1963.68 629.35 2220.34 598.45 2082.84 781.89 2023.98 915.77 2237.50 892.45
00009063 00000086 1825.75 198.59 634.53 895.47 1960.05 626.90 2216.01 590.08 2079.71 773.41 2031.41 909.02 2239.64 883.29
00009064 00000087 1826.96 198.76 632.01 896.16 1960.37 625.68 2215.18 590.61 2079.23 773.47 2031.14 907.77 2236.61 882.99
00009065 00000088 1827.23 199.43 633.34 897.94 1959.73 626.80 2215.18 590.82 2078.67 775.07 2032.17 909.81 2239.36 884.02
00009066 00000089 1828.12 199.66 632.89 895.93 1959.68 627.66 2214.18 591.67 2078.07 773.54 2031.62 909.29 2235.75 883.86
00009067 00000090 1830.46 200.63 632.06 893.74 1960.80 629.09 2216.04 593.47 2079.05 776.89 2031.82 907.99 2240.77 882.19
00009068 00000091 1827.91 199.49 635.16 902.06 1960.13 629.32 2216.62 591.11 2080.29 774.75 2031.38 909.10 2243.10 881.38
00009069 00000092 1830.66 199.00 630.56 899.22 1964.19 631.52 2224.94 600.66 2086.03 784.69 2025.83 911.07 2244.58 887.39
00009070 00000093 1831.76 195.24 628.83 897.89 1965.56 632.74 2223.08 602.27 2084.65 786.63 2028.38 909.77 2244.26 886.47
00009071 00000094 1831.64 195.99 629.09 900.27 1966.11 634.41 2224.48 604.87 2084.86 786.36 2027.30 909.66 2243.92 887.53
00009072 00000095 1833.61 197.03 627.31 903.69 1966.60 634.62 2225.72 608.01 2083.77 785.39 2021.58 910.79 2240.37 891.16
00009073 00000096 1834.30 195.05 627.66 909.20 1966.81 631.71 2227.06 606.44 2082.97 784.12 2019.40 911.25 2240.10 892.81
00009074 00000097 1834.46 195.17 626.42 909.91 1967.44 633.18 2226.97 605.85 2084.35 785.13 2022.20 911.58 2243.87 891.26
00009075 00000098 1833.32 199.48 628.35 909.18 1965.45 631.60 2224.93 602.21 2083.14 784.18 2022.00 912.29 2244.02 890.11
00009076 00000099 1830.59 200.16 632.68 901.54 1962.26 633.31 2224.63 602.29 2084.37 782.82 2023.54 912.37 2243.57 889.11
00009077 00000100 1832.57 200.42 627.61 893.81 1964.89 635.34 2222.49 606.72 2082.74 784.95 2024.21 915.14 2238.21 893.68
00009078 00000101 1832.32 197.02 627.90 905.29 1960.92 630.10 2216.55 593.54 2077.49 776.01 2032.97 910.13 2244.51 883.22
00009079 00000102 1829.83 197.61 627.47 906.80 1956.31 626.59 2217.17 586.82 2076.13 769.69 2030.45 914.16 2240.48 885.56
00009080 00000103 1835.86 195.59 623.50 910.33 1954.95 624.49 2214.13 584.53 2069.77 774.42 2028.87 917.33 2241.10 888.74
00009081 00000104 1834.73 202.28 627.46 902.50 1963.41 623.55 2221.28 592.39 2077.08 775.12 2024.70 905.02 2241.64 880.57
00009082 00000105 1834.89 206.16 628.06 895.69 1962.25 623.11 2216.28 591.14 2074.68 777.87 2024.85 907.06 2240.49 881.71
00009083 00000106 1830.30 198.95 631.02 912.05 1957.76 630.22 2218.61 597.05 2072.65 781.22 2022.94 910.51 2245.67 885.58
00009084 00000107 1829.75 200.93 629.11 895.78 1961.21 628.02 2216.43 595.91 2076.05 782.72 2024.15 900.95 2240.44 875.66
00009085 00000108 1828.02 203.28 631.79 895.86 1960.55 628.85 2216.62 594.93 2077.90 780.09 2025.14 901.98 2239.48 875.62
00009086 00000109 1828.66 201.85 629.87 914.10 1960.15 625.63 2208.33 588.79 2070.21 773.72 2029.97 907.00 2238.93 879.25
00009087 00000110 1831.05 200.56 624.16 909.05 1959.92 629.30 2210.63 590.59 2075.34 773.97 2029.68 906.00 2241.52 876.85
00009088 00000111 1831.08 204.05 626.59 904.56 1961.90 627.84 2212.84 592.40 2077.60 771.89 2030.55 905.51 2239.83 879.08
00009089 00000112 1831.93 201.11 629.59 908.57 1963.76 627.14 2213.86 593.30 2076.22 772.85 2029.93 903.69 2242.06 878.46
00009090 00000113 1832.55 198.77 629.94 910.54 1964.05 627.95 2214.35 593.13 2076.76 773.36 2032.23 905.75 2242.78 879.85
00009091 00000114 1832.20 201.25 628.89 903.45 1963.58 629.30 2214.57 593.56 2077.73 773.40 2032.56 906.28 2242.00 879.96
00009092 00000115 2025.92 219.82 587.84 844.23 2141.36 607.87 2377.50 561.31 2248.69 720.29 2216.24 881.21 2395.53 846.85
00009093 00000116 2019.39 218.80 589.44 844.63 2138.97 606.06 2374.23 560.21 2243.88 722.90 2214.20 882.07 2392.75 847.94
00009094 00000117 2014.90 214.48 590.18 856.91 2136.51 600.75 2368.55 559.80 2237.60 723.95 2206.01 884.71 2384.60 853.74
CROP_BBOX: 1205 0 2848 1526
