Video ID: 	X0NS9kNC7Zg
H: 	1080
W: 	1920
FPS: 	25.0

FRAME INDEX X0 Y0 W H [Landmarks (5 Points)]

00008454 00000000 587.53 158.80 410.84 582.23 778.34 373.89 955.97 387.99 919.72 482.28 802.38 597.53 936.62 608.81
00008455 00000001 590.47 158.57 408.96 582.57 780.57 373.06 957.41 387.78 920.52 481.77 804.13 596.46 937.59 608.15
00008456 00000002 590.92 160.16 408.40 580.46 782.22 373.05 956.66 387.65 919.31 481.68 805.46 596.05 936.24 607.75
00008457 00000003 589.98 162.40 408.37 580.03 781.23 372.15 947.64 384.95 912.77 478.45 804.37 593.69 928.19 604.21
00008458 00000004 587.36 165.03 408.45 578.60 776.55 371.84 945.83 384.47 909.19 479.68 800.27 595.37 927.91 605.91
00008459 00000005 586.84 165.76 404.06 580.23 774.19 379.04 946.72 392.17 911.81 483.19 785.34 598.04 927.83 610.42
00008460 DELETE   579.98 167.43 406.69 579.46 769.44 375.88 940.99 387.36 907.66 480.75 782.80 597.14 925.78 607.97
00008461 DELETE   571.24 165.04 410.40 583.12 761.85 371.44 935.91 383.55 902.13 476.19 776.71 594.29 924.05 605.14
00008462 DELETE   566.97 160.58 408.67 581.24 753.81 367.50 931.22 379.17 893.21 471.44 773.56 591.72 918.11 601.53
00008463 00000009 559.06 157.43 408.73 586.87 746.68 362.39 923.29 373.23 884.84 468.34 767.96 591.38 909.14 600.01
00008464 DELETE   551.64 156.10 408.40 590.65 738.13 359.69 913.49 369.42 878.00 467.12 758.98 590.80 898.14 598.28
00008465 DELETE   546.88 153.66 406.48 589.43 730.73 356.70 906.61 365.01 872.16 469.84 754.01 592.31 888.50 598.52
00008466 00000012 540.81 151.75 408.01 592.42 724.86 356.52 901.81 363.26 866.95 472.21 750.33 595.02 882.74 599.84
00008467 00000013 536.42 150.17 407.53 596.73 721.42 358.30 896.72 365.01 863.87 473.08 748.67 595.64 879.27 600.24
00008468 00000014 534.27 151.01 408.00 595.23 718.72 360.00 894.26 366.20 859.38 475.16 746.73 596.96 877.03 601.20
00008469 00000015 535.33 153.37 405.92 594.78 716.80 360.86 892.74 365.54 859.77 475.98 748.68 600.72 878.95 603.72
00008470 00000016 534.98 153.93 407.52 596.23 715.75 363.20 893.32 364.87 861.78 478.69 748.82 602.31 881.98 602.73
00008471 00000017 536.57 153.22 405.62 595.43 716.90 363.03 894.54 364.69 863.07 480.21 750.04 603.86 881.91 604.33
00008472 00000018 538.98 153.96 405.27 592.17 719.84 364.00 895.74 363.83 864.04 480.42 752.11 602.35 884.26 601.35
00008473 00000019 541.01 152.99 407.27 593.87 723.05 364.01 898.61 363.91 865.91 479.23 753.65 599.21 887.73 598.10
00008474 00000020 541.90 152.92 408.75 593.38 723.22 363.89 901.95 364.10 864.24 479.78 753.29 596.38 890.74 595.36
00008475 00000021 543.90 152.50 408.23 594.75 725.89 367.39 902.42 367.14 864.53 480.96 754.27 596.86 891.88 595.54
00008476 00000022 542.65 154.97 407.61 595.41 726.49 374.62 894.28 374.14 862.48 482.82 751.70 598.39 886.41 597.37
00008477 00000023 541.36 154.23 410.08 596.83 725.64 377.80 894.07 378.16 860.86 483.01 748.31 598.76 885.14 598.61
00008478 00000024 542.79 152.21 411.02 598.77 722.87 376.03 896.88 377.57 859.70 481.30 745.92 597.80 887.93 598.35
00008479 00000025 545.21 153.61 411.58 595.88 724.31 373.71 898.66 377.62 858.17 479.16 745.33 596.24 886.51 598.99
00008480 DELETE   547.63 150.89 411.82 600.69 725.55 373.87 899.46 380.19 857.37 478.14 744.00 597.12 883.27 601.94
00008481 00000027 545.71 149.91 411.44 603.52 724.66 372.09 895.00 381.31 853.14 480.34 740.10 595.69 876.73 603.04
00008482 00000028 544.06 153.01 414.45 600.51 718.22 373.24 893.29 380.90 846.82 482.16 735.93 597.18 875.02 603.13
00008483 00000029 544.60 152.74 414.98 603.46 714.57 375.31 890.44 385.52 839.57 484.08 728.77 599.55 868.31 607.63
00008484 00000030 543.48 156.06 416.77 599.68 711.83 375.18 888.21 386.70 836.36 486.87 723.39 600.93 865.79 610.08
00008485 00000031 544.02 155.79 417.28 604.00 710.55 373.62 887.28 386.07 834.57 487.99 724.06 604.06 865.44 613.89
00008486 00000032 546.65 155.78 415.66 604.46 713.72 373.07 889.27 385.18 837.13 488.77 730.22 606.81 868.13 616.28
00008487 00000033 546.13 155.41 417.15 610.14 715.27 370.50 890.93 385.32 839.21 487.13 730.16 605.67 870.56 617.08
00008488 00000034 545.53 156.09 416.55 608.77 714.42 367.57 891.72 383.78 839.11 485.04 729.52 605.05 869.46 617.68
00008489 00000035 544.13 155.68 416.99 598.68 710.44 367.69 892.61 383.74 836.01 482.89 723.31 602.55 866.44 615.34
00008490 00000036 541.54 149.64 417.76 604.23 703.40 366.61 894.95 385.01 834.34 479.76 714.69 598.57 868.35 613.36
00008491 00000037 539.92 149.87 416.76 601.23 702.46 365.45 893.32 382.44 834.14 477.80 714.24 595.48 868.36 609.18
00008492 00000038 538.16 150.61 416.07 603.16 699.28 366.74 890.58 381.73 831.35 478.40 714.12 597.84 868.62 609.91
00008493 00000039 537.78 154.05 413.90 601.84 703.97 365.19 882.32 378.68 828.01 479.26 720.16 599.47 859.28 610.35
00008494 00000040 536.87 155.27 414.43 601.16 703.34 368.90 884.89 381.85 829.70 485.92 717.53 602.62 861.01 613.25
00008495 00000041 536.01 155.17 416.30 602.31 705.24 373.50 884.41 385.67 830.10 492.09 718.99 604.17 860.50 614.17
00008496 00000042 536.37 154.98 419.79 604.81 706.47 378.65 885.14 389.83 831.59 495.37 723.77 608.12 863.87 617.23
00008497 00000043 538.06 156.20 419.73 601.20 710.01 382.83 887.57 391.23 836.19 499.58 731.03 611.61 868.15 618.17
00008498 00000044 540.82 156.09 419.34 600.09 716.55 383.15 891.31 391.91 843.57 498.28 736.69 608.50 873.33 615.13
00008499 00000045 546.21 159.15 419.52 600.30 724.38 383.03 896.49 390.96 850.23 498.56 746.10 609.76 882.53 615.15
00008500 00000046 549.91 159.01 416.83 601.39 728.16 382.18 900.60 389.50 856.56 495.80 750.54 610.28 887.23 615.35
00008501 00000047 550.34 157.53 415.33 603.08 728.44 380.62 899.60 388.57 855.63 496.07 751.44 612.00 883.85 617.62
00008502 00000048 549.37 156.84 419.09 612.90 725.47 379.69 897.83 390.15 850.65 497.62 743.79 613.80 879.83 621.37
00008503 00000049 550.13 157.76 418.99 616.73 723.54 379.96 897.35 392.45 847.69 500.91 739.80 616.44 878.88 625.66
00008504 00000050 551.48 158.48 419.75 615.85 724.23 382.11 897.22 395.63 846.45 503.06 738.87 617.28 878.58 627.39
00008505 00000051 554.06 161.14 420.18 607.84 725.30 387.31 900.38 396.16 847.94 507.67 743.59 620.62 883.24 626.96
00008506 00000052 555.42 161.98 421.17 604.17 729.94 390.63 904.77 398.32 852.81 507.05 750.60 618.70 889.50 624.32
00008507 00000053 557.39 160.56 420.68 605.39 729.83 390.46 908.18 397.28 857.00 505.51 752.01 619.11 895.08 624.16
00008508 00000054 558.72 159.62 419.70 605.93 730.49 389.63 909.74 396.45 859.23 501.61 752.17 617.10 897.25 622.39
00008509 00000055 558.94 159.55 420.27 606.41 731.80 388.94 909.11 397.19 857.83 502.06 752.24 616.37 894.77 622.74
00008510 00000056 558.16 159.14 421.44 606.34 730.85 388.17 908.44 396.13 856.99 503.00 750.91 616.08 894.04 622.01
00008511 00000057 556.79 160.96 421.77 603.47 729.40 386.88 907.88 394.68 856.10 502.77 749.44 615.34 893.61 621.04
00008512 00000058 555.20 160.35 420.92 602.94 728.31 385.79 905.83 394.76 854.44 500.52 748.84 614.06 891.14 620.60
00008513 00000059 552.30 157.85 420.86 604.04 727.19 383.51 902.82 392.88 852.51 498.81 746.67 611.69 886.05 618.55
00008514 00000060 548.53 156.05 422.44 605.77 723.48 380.53 900.29 391.58 850.05 495.68 740.36 608.72 881.55 616.84
00008515 00000061 546.95 152.16 420.68 604.50 722.45 377.76 900.06 390.89 848.85 492.42 737.46 603.17 878.32 613.07
00008516 00000062 544.32 151.33 421.58 604.95 718.09 374.34 899.56 389.00 847.14 490.04 731.78 602.53 875.07 614.04
00008517 00000063 543.19 149.96 420.46 609.01 716.50 373.55 895.75 387.17 845.16 488.80 731.53 602.19 874.25 612.75
00008518 00000064 542.82 150.70 417.91 609.25 714.62 372.43 888.39 385.60 838.64 488.40 728.74 602.16 866.18 612.45
00008519 00000065 542.70 153.81 417.14 607.63 712.66 372.49 887.23 385.61 835.89 489.96 725.89 604.10 863.97 614.56
00008520 00000066 541.22 154.52 417.97 605.91 711.19 375.54 887.74 387.09 835.39 492.68 725.42 606.55 864.54 615.94
00008521 00000067 540.07 155.61 417.44 604.28 708.86 377.10 886.62 388.68 833.05 493.99 724.02 607.77 863.71 617.29
00008522 00000068 538.81 156.15 418.37 602.78 708.49 378.01 885.39 388.99 832.43 494.34 723.44 606.54 863.54 615.57
00008523 00000069 538.57 156.46 418.65 600.61 707.85 377.93 886.59 388.93 832.49 494.92 721.92 605.79 863.14 614.85
00008524 00000070 538.29 156.73 418.78 599.01 707.17 377.70 887.19 388.73 833.05 494.61 721.37 605.07 864.41 614.10
00008525 00000071 538.35 156.21 418.56 598.13 708.22 376.46 887.57 388.04 832.96 493.32 721.50 603.26 864.12 612.81
00008526 00000072 538.56 156.44 418.44 598.90 707.54 375.10 886.89 386.46 833.06 492.21 721.32 603.09 864.30 612.38
00008527 00000073 539.61 157.11 416.66 596.54 708.97 374.44 886.28 386.09 832.82 491.60 723.23 603.12 863.12 612.65
00008528 00000074 540.74 156.27 416.98 598.80 710.96 374.46 887.29 386.76 833.89 492.33 724.29 603.22 863.08 613.28
00008529 00000075 542.09 155.99 416.17 599.51 711.14 376.12 888.23 388.31 834.97 493.37 726.40 604.97 864.61 614.84
00008530 00000076 543.11 155.51 417.47 601.01 712.92 379.87 889.60 391.44 837.75 495.64 729.52 607.18 866.93 616.48
00008531 00000077 544.76 154.93 417.27 602.90 714.74 381.62 891.24 391.79 839.66 497.20 731.22 609.74 870.28 617.67
00008532 00000078 547.05 156.20 418.28 602.38 716.70 380.80 893.54 391.90 841.36 496.33 732.07 609.19 872.56 617.81
00008533 00000079 549.09 155.96 417.97 602.86 718.82 380.01 895.27 391.89 842.77 496.61 733.54 609.01 873.72 618.25
00008534 00000080 549.98 157.39 419.39 601.80 721.40 379.93 897.96 392.01 846.12 495.60 735.61 607.96 876.31 617.32
00008535 00000081 550.58 157.06 418.92 600.73 722.24 378.55 899.16 391.01 847.81 494.45 736.23 607.68 875.59 617.37
00008536 00000082 550.41 157.13 419.71 599.76 722.65 376.44 899.94 388.49 847.91 494.07 736.42 605.77 876.63 615.04
00008537 00000083 550.66 157.56 419.14 594.82 721.40 375.81 900.95 387.46 847.95 492.93 736.76 604.97 877.88 614.01
00008538 00000084 551.18 156.79 418.83 595.02 721.89 373.39 900.89 385.67 848.43 490.01 736.35 603.79 876.11 613.44
00008539 00000085 551.06 154.68 419.42 598.25 722.01 373.29 901.81 386.34 848.86 489.69 735.66 603.08 876.76 613.37
00008540 00000086 551.32 154.02 419.49 596.07 721.10 373.62 903.14 387.59 847.95 490.35 735.49 602.76 877.00 613.72
00008541 00000087 550.83 153.85 419.65 594.56 720.20 374.20 903.41 388.39 847.87 490.83 735.19 603.64 876.73 614.76
00008542 00000088 550.75 153.54 419.36 594.92 720.52 374.82 903.36 389.07 847.62 491.57 734.90 603.79 875.63 614.93
00008543 00000089 550.90 153.40 421.30 596.61 720.64 375.59 903.69 389.58 848.01 493.44 735.06 604.98 876.90 615.80
00008544 00000090 551.17 153.50 420.99 595.44 720.31 375.69 904.80 389.75 848.41 493.78 735.42 605.13 878.20 615.95
00008545 00000091 551.00 153.65 421.17 594.06 719.96 376.21 906.02 390.27 848.95 494.14 735.17 605.20 879.48 615.96
00008546 00000092 551.03 153.72 420.92 592.83 720.23 375.37 906.25 390.29 848.63 493.37 734.98 603.99 879.50 615.46
00008547 00000093 551.17 154.15 419.29 589.06 719.02 374.56 905.67 390.20 847.13 492.04 734.32 602.30 878.41 614.43
00008548 00000094 550.44 153.75 420.51 590.38 717.71 373.79 906.97 390.53 847.06 491.40 731.88 601.70 878.93 614.77
00008549 00000095 551.09 153.74 419.55 589.26 715.65 372.85 906.47 389.85 845.84 490.93 730.84 601.51 879.60 614.67
00008550 00000096 550.74 154.09 419.73 588.16 715.61 373.17 905.88 390.59 844.72 490.83 730.11 601.27 877.21 614.94
00008551 00000097 549.60 153.05 421.27 593.04 718.57 374.44 904.54 392.48 845.99 493.02 731.81 602.26 875.55 616.46
00008552 00000098 551.06 156.49 421.73 598.35 722.48 378.06 899.95 393.11 844.74 495.32 734.46 605.50 874.48 617.34
00008553 00000099 550.77 156.37 423.13 602.48 724.59 379.62 899.75 394.58 845.52 496.59 736.53 607.63 874.75 619.40
00008554 00000100 551.18 156.07 422.45 604.01 725.88 378.04 900.51 393.11 846.82 494.83 738.23 607.19 875.04 619.13
00008555 00000101 550.55 156.76 421.58 599.76 726.84 375.37 900.91 391.71 847.85 491.67 737.93 602.72 874.06 615.82
00008556 00000102 550.22 156.87 420.76 599.44 727.55 373.40 899.39 390.89 846.20 490.47 736.43 601.03 869.92 615.14
00008557 00000103 549.58 155.71 421.06 602.37 727.49 372.36 898.93 390.68 846.66 489.25 735.54 600.25 868.45 615.07
00008558 00000104 549.18 154.09 421.73 604.24 726.56 370.82 898.28 389.23 845.23 487.93 734.80 599.46 868.04 614.23
00008559 00000105 547.88 153.20 422.26 604.85 724.85 369.83 897.36 388.68 844.37 485.93 733.35 599.00 866.33 614.19
00008560 00000106 546.12 151.28 419.85 605.71 721.00 370.80 892.80 388.71 841.92 485.12 730.71 598.85 862.30 613.50
00008561 00000107 544.94 152.74 417.12 601.94 719.49 372.04 889.84 388.98 838.04 486.37 726.13 598.12 857.79 612.17
00008562 00000108 543.24 152.71 416.61 603.32 717.98 372.99 887.55 390.17 835.05 487.74 723.74 598.00 856.97 612.08
00008563 00000109 541.31 152.62 419.21 604.86 715.33 371.07 887.44 390.05 832.60 489.30 721.09 599.02 855.83 614.40
00008564 00000110 540.28 154.92 419.74 603.55 708.86 370.38 888.78 388.96 830.10 490.07 716.42 601.65 857.88 616.97
00008565 00000111 539.52 155.75 419.94 602.52 702.19 372.37 887.59 387.88 825.56 491.83 714.14 605.79 859.41 618.60
00008566 00000112 537.93 158.36 419.24 602.69 698.56 374.18 884.73 388.27 821.88 494.51 712.11 609.53 858.52 621.38
00008567 00000113 535.97 159.99 420.81 600.99 695.22 375.94 883.26 386.28 820.46 497.49 711.84 612.82 859.15 621.70
00008568 00000114 534.93 159.58 420.67 601.50 690.90 376.36 881.54 385.46 816.58 497.43 709.39 613.65 859.39 621.46
00008569 00000115 533.21 157.84 421.71 599.55 689.73 375.29 882.16 386.22 815.28 495.03 707.00 611.54 856.11 620.98
00008570 00000116 533.90 157.57 420.21 598.98 686.89 372.57 881.80 384.82 813.68 490.94 702.33 607.18 856.69 617.80
00008571 00000117 532.58 157.39 418.12 594.73 683.43 369.69 879.43 381.53 810.74 487.35 699.81 602.47 854.48 612.75
00008572 00000118 531.39 157.10 416.51 586.42 682.45 368.19 880.12 381.23 810.23 486.61 697.95 599.87 851.70 611.19
00008573 00000119 527.02 152.25 417.20 592.94 680.95 366.60 878.74 381.57 810.42 485.51 690.99 599.74 844.06 612.52
00008574 00000120 528.02 150.00 416.01 599.19 678.66 364.37 880.03 380.10 809.09 483.78 690.51 600.67 848.45 614.05
00008575 00000121 528.84 154.56 415.94 574.41 681.69 366.57 876.79 377.30 808.99 484.56 694.89 596.44 847.25 605.24
00008576 00000122 528.53 157.12 417.53 572.23 681.04 366.49 878.38 377.61 809.73 484.29 694.59 597.49 849.84 606.47
00008577 00000123 529.75 155.43 418.85 588.76 679.19 365.42 880.22 377.92 809.83 482.72 696.23 597.80 856.36 608.10
00008578 00000124 532.03 157.24 419.31 586.84 679.62 366.56 881.67 378.63 809.44 482.98 696.18 598.54 857.49 608.32
00008579 00000125 532.64 159.10 418.67 579.22 681.83 368.08 883.41 381.44 810.61 485.67 695.91 599.75 853.78 610.85
00008580 00000126 533.35 158.58 418.38 577.66 682.15 368.67 883.29 381.88 809.82 486.73 696.43 600.21 854.93 610.91
00008581 00000127 535.42 155.94 415.03 579.50 683.23 368.83 885.40 383.66 811.64 489.73 696.29 604.55 853.00 616.83
00008582 00000128 533.86 155.80 417.91 583.74 683.30 368.87 884.99 383.66 813.05 488.37 692.91 603.12 853.83 615.15
00008583 00000129 536.88 155.05 415.90 590.36 684.48 369.98 886.24 381.95 814.65 488.76 700.33 603.86 857.99 614.01
00008584 00000130 535.98 154.87 417.41 591.39 683.39 367.90 885.39 381.20 813.43 487.97 698.84 601.82 856.40 612.97
00008585 00000131 534.83 155.13 417.97 593.45 680.94 367.94 882.80 380.78 810.35 486.39 696.22 601.87 856.34 612.67
00008586 00000132 532.49 154.75 418.62 596.56 677.86 368.27 879.40 379.98 808.68 486.33 694.31 602.97 855.54 612.93
00008587 00000133 528.58 156.61 418.28 591.73 675.00 370.65 872.87 380.32 803.80 487.65 692.71 602.14 850.63 610.58
00008588 00000134 524.83 161.37 417.52 584.28 672.66 370.34 867.51 380.06 799.00 487.95 690.16 600.75 845.07 609.67
00008589 00000135 520.20 163.00 419.84 580.91 667.62 365.93 862.60 377.34 791.31 484.39 682.79 594.96 837.75 605.07
00008590 00000136 511.96 161.02 419.54 577.90 663.85 368.02 854.90 373.55 791.89 486.08 679.94 593.10 835.62 597.96
00008591 00000137 509.99 158.89 419.15 573.13 660.54 364.68 852.76 371.08 788.69 481.70 676.22 590.26 831.90 595.86
00008592 00000138 508.00 155.65 419.60 578.43 657.26 365.14 847.50 369.54 784.58 480.22 674.98 589.45 829.97 593.31
00008593 00000139 506.12 156.43 419.70 582.33 658.73 363.44 842.16 368.19 780.48 479.24 677.08 589.01 821.80 592.97
00008594 00000140 503.28 154.81 420.00 587.33 656.28 361.93 840.34 368.02 779.35 479.53 673.19 590.98 818.63 596.08
00008595 00000141 501.63 154.39 419.26 590.69 653.27 361.97 838.59 367.82 777.33 478.86 670.16 591.37 818.91 596.22
00008596 00000142 500.26 154.90 419.73 592.58 652.43 361.41 838.35 368.24 776.19 479.20 668.39 592.03 817.70 597.55
00008597 00000143 500.44 153.61 420.24 595.18 652.40 361.51 838.16 367.72 775.59 479.34 669.16 593.18 817.22 598.22
00008598 00000144 500.43 152.85 419.03 590.56 651.62 361.04 838.12 367.09 775.49 477.65 669.23 590.79 818.05 595.69
00008599 00000145 500.89 151.63 418.96 591.23 652.95 361.11 838.81 366.47 776.97 478.06 670.64 590.66 819.34 595.00
00008600 00000146 500.90 151.98 420.14 593.25 653.76 360.68 839.59 366.38 777.85 478.61 670.97 591.72 819.05 596.36
00008601 00000147 503.62 153.42 418.39 596.31 656.51 361.11 840.36 367.77 779.55 481.14 672.81 593.95 818.77 599.40
00008602 00000148 504.59 155.07 418.39 593.08 657.30 362.01 842.20 368.58 781.72 481.81 675.18 595.04 821.41 600.48
00008603 00000149 504.67 153.94 421.37 592.49 656.77 362.14 843.02 366.72 780.81 481.24 675.25 591.70 824.73 595.45
00008604 00000150 505.80 153.77 423.07 591.40 657.62 361.41 844.05 364.32 780.90 476.65 675.29 588.19 827.56 590.49
00008605 00000151 506.17 152.81 423.69 588.79 659.06 357.12 845.60 359.95 783.61 470.70 679.11 585.06 829.27 587.17
00008606 00000152 506.67 153.52 426.13 583.63 659.85 356.06 848.31 358.10 785.02 466.08 680.39 581.23 833.30 582.36
00008607 00000153 508.92 153.84 423.49 579.24 663.05 354.62 851.41 357.70 788.02 463.74 682.69 579.31 834.44 581.37
00008608 00000154 510.70 154.55 422.33 574.47 665.90 353.30 852.17 356.80 790.40 464.44 684.97 577.71 833.54 580.40
00008609 00000155 512.62 152.09 423.93 574.27 669.44 351.84 855.57 355.66 792.67 463.72 687.79 575.59 835.38 578.39
00008610 00000156 519.47 146.45 421.73 581.81 670.10 346.16 863.70 354.76 794.00 456.12 691.50 570.59 842.44 576.47
00008611 00000157 520.09 148.34 423.17 578.05 672.19 345.17 864.83 354.42 795.07 455.25 692.24 567.64 843.65 573.86
00008612 00000158 520.44 148.17 422.55 577.19 671.94 343.51 864.92 351.96 795.91 453.56 692.42 566.93 845.32 572.43
00008613 00000159 519.91 145.98 421.31 578.82 670.45 342.72 866.83 351.51 795.86 452.15 690.41 568.40 845.17 574.22
00008614 00000160 515.06 148.24 420.62 572.29 669.55 346.84 857.95 352.40 793.49 454.50 686.65 570.28 837.24 574.40
00008615 00000161 511.84 149.58 419.52 569.73 664.88 346.08 853.48 350.76 789.05 451.58 681.80 568.46 834.73 571.69
00008616 00000162 509.92 150.46 418.07 568.96 661.97 345.88 849.87 349.05 786.60 451.24 680.19 567.85 834.41 569.63
00008617 00000163 507.60 149.73 418.86 568.66 659.02 346.00 847.74 348.02 783.20 452.41 678.75 569.25 831.24 569.93
00008618 00000164 506.69 147.33 417.42 568.07 655.68 346.35 847.55 349.03 781.65 454.74 674.67 569.96 829.98 571.38
00008619 00000165 507.35 144.21 415.99 568.36 654.25 346.11 849.14 349.18 781.84 455.05 674.32 570.40 830.81 572.03
00008620 00000166 510.20 142.50 413.27 562.28 653.09 348.17 851.54 350.04 781.27 455.86 673.30 569.96 833.59 570.89
00008621 00000167 509.07 141.90 414.90 564.78 652.16 347.41 851.95 349.65 781.08 455.85 671.05 569.67 833.95 570.95
00008622 00000168 508.86 141.83 414.79 566.20 651.85 346.93 851.45 349.04 780.98 455.28 670.35 569.79 833.19 571.07
00008623 00000169 508.25 143.19 414.80 566.47 652.12 346.90 849.01 349.25 779.93 455.74 670.55 569.82 830.09 571.14
00008624 00000170 506.46 144.63 417.10 571.30 652.11 346.37 847.59 348.13 779.99 456.54 671.47 571.03 829.57 571.74
