Video ID: 	mWzoJ7semQI
H: 	1080
W: 	1920
FPS: 	25.0

FRAME INDEX X0 Y0 W H [Landmarks (5 Points)]

00006870 00000000 849.76 207.35 409.12 567.30 974.95 440.35 1164.13 435.42 1083.84 569.46 997.60 643.96 1148.42 639.76
00006871 00000001 847.43 210.70 408.11 567.87 969.86 443.86 1156.85 435.97 1077.96 569.59 994.13 645.77 1143.15 639.22
00006872 00000002 837.07 200.08 415.01 578.21 963.57 447.03 1152.18 436.46 1073.87 573.17 991.39 645.97 1140.31 638.43
00006873 00000003 834.78 199.15 417.67 583.05 962.27 448.10 1151.99 436.84 1074.33 574.25 990.51 647.70 1141.43 639.69
00006874 00000004 837.91 202.58 415.28 580.61 963.67 449.10 1153.50 436.84 1076.27 574.98 993.18 649.25 1144.33 640.31
00006875 00000005 838.05 204.66 415.72 577.78 963.92 449.47 1152.65 437.07 1076.38 577.33 995.06 650.36 1143.36 641.30
00006876 00000006 835.83 206.86 418.46 572.54 961.28 449.54 1150.68 439.55 1071.40 577.18 991.57 648.48 1139.42 641.39
00006877 00000007 844.10 220.37 409.01 559.12 961.34 446.14 1148.56 441.40 1065.68 575.91 989.12 651.27 1131.75 647.42
00006878 00000008 846.08 223.06 408.95 556.35 963.03 446.99 1151.08 441.44 1067.98 576.92 991.63 652.99 1134.82 648.43
00006879 00000009 849.04 223.89 412.46 557.19 969.64 452.60 1157.37 442.72 1077.44 579.04 1000.07 656.55 1144.98 648.21
00006880 DELETE   858.67 238.99 408.37 541.53 980.63 460.31 1166.37 448.75 1089.20 583.29 1010.91 662.12 1155.01 652.34
00006881 00000011 864.37 233.98 404.19 543.65 985.10 460.78 1169.17 448.85 1094.44 582.09 1019.28 665.16 1156.94 654.71
00006882 00000012 864.77 231.69 404.41 541.04 983.97 456.61 1169.23 445.80 1093.14 578.76 1020.31 667.19 1151.80 657.43
00006883 00000013 863.08 225.11 406.90 546.58 983.80 449.99 1171.66 441.19 1093.32 575.55 1018.31 664.12 1148.85 656.11
00006884 00000014 863.99 206.82 410.88 570.71 985.70 446.49 1173.58 437.06 1098.34 573.71 1021.84 663.00 1154.29 653.99
00006885 00000015 865.30 201.79 409.80 577.23 989.42 443.93 1177.13 433.72 1104.53 573.03 1025.06 660.79 1161.68 651.24
00006886 00000016 865.25 196.57 411.44 582.56 991.16 443.91 1178.40 432.22 1108.25 570.69 1027.62 659.65 1166.55 648.64
00006887 00000017 867.11 203.73 407.03 567.22 992.25 442.05 1179.38 430.90 1108.58 569.96 1028.39 658.49 1163.34 648.35
00006888 00000018 867.65 204.45 408.20 566.11 993.42 438.97 1181.92 427.58 1110.19 568.93 1029.68 657.50 1164.60 647.11
00006889 00000019 869.80 210.39 407.65 564.84 996.96 437.14 1183.05 425.13 1113.00 568.87 1031.40 657.50 1165.64 646.67
00006890 00000020 872.05 210.17 404.83 561.31 1000.90 435.19 1186.79 423.33 1118.94 566.64 1034.55 655.27 1168.74 644.99
00006891 00000021 875.17 212.95 405.03 556.91 1002.71 434.58 1192.85 421.58 1125.04 565.10 1039.01 653.56 1178.91 642.27
00006892 00000022 879.21 205.04 402.34 563.23 1007.94 429.65 1197.37 419.49 1129.35 560.79 1038.52 647.44 1181.66 638.95
00006893 00000023 882.11 201.37 398.66 561.55 1012.48 423.72 1201.47 415.59 1134.20 554.55 1037.03 638.88 1185.01 632.57
00006894 00000024 882.79 209.94 395.79 535.83 1014.18 420.14 1202.02 407.11 1136.08 543.89 1040.59 629.39 1187.55 618.94
00006895 00000025 886.11 213.35 395.01 529.64 1015.95 416.56 1202.73 401.88 1138.85 535.68 1044.05 625.07 1191.95 613.05
00006896 00000026 887.85 196.08 399.00 552.67 1023.56 412.64 1208.29 406.63 1136.69 533.81 1050.13 618.79 1195.59 615.62
00006897 00000027 887.15 198.19 399.68 551.32 1025.97 415.57 1207.35 408.67 1137.96 532.92 1049.29 617.60 1192.98 613.91
00006898 00000028 885.83 196.78 399.19 551.45 1024.30 415.08 1206.14 405.92 1136.81 532.08 1047.46 617.98 1191.68 612.58
00006899 00000029 881.67 209.64 398.65 541.49 1016.65 415.24 1197.29 403.37 1139.02 531.06 1040.53 620.64 1187.12 610.83
00006900 00000030 878.39 207.49 399.15 544.81 1013.11 415.95 1195.93 404.19 1136.85 532.85 1038.06 622.95 1185.17 613.10
00006901 00000031 874.06 207.04 397.90 544.05 1009.37 413.66 1191.57 402.45 1131.21 532.00 1040.76 629.08 1177.57 618.97
00006902 00000032 871.08 205.93 399.52 544.43 1005.99 410.85 1188.62 400.51 1126.56 531.20 1036.34 626.16 1173.31 616.96
00006903 00000033 868.78 197.53 400.41 553.31 1004.28 408.84 1184.99 400.31 1123.14 529.87 1033.26 623.88 1169.85 616.36
00006904 00000034 866.96 200.87 398.33 549.10 1000.53 409.34 1181.84 401.28 1117.91 530.90 1029.45 623.40 1166.10 616.39
00006905 00000035 861.85 195.58 401.69 559.43 998.96 410.49 1179.17 401.99 1116.35 531.28 1027.89 624.36 1164.72 616.69
00006906 00000036 859.78 187.70 402.32 562.96 997.14 410.25 1177.80 401.11 1113.83 530.84 1024.45 621.40 1162.55 613.21
00006907 00000037 860.16 193.55 401.56 554.70 996.43 409.58 1177.91 399.62 1112.84 530.84 1023.18 619.21 1164.48 610.36
00006908 00000038 859.37 196.67 402.19 552.60 995.00 406.79 1177.91 397.37 1111.36 531.33 1020.80 619.06 1163.03 610.66
00006909 00000039 859.57 200.17 401.48 547.39 994.31 405.18 1177.21 395.52 1110.29 530.52 1019.63 617.70 1162.06 609.28
00006910 00000040 859.54 200.72 401.35 548.37 994.45 404.94 1177.38 395.58 1110.64 529.73 1019.40 618.08 1162.37 609.90
00006911 00000041 860.48 199.96 400.69 548.49 994.97 404.42 1178.13 395.48 1111.89 529.39 1020.41 617.53 1163.02 609.79
00006912 00000042 861.78 195.57 400.12 551.80 995.56 404.64 1179.20 394.84 1113.10 528.02 1023.82 617.73 1165.02 609.21
00006913 00000043 860.32 194.14 401.57 554.89 995.75 405.30 1178.56 395.50 1113.28 529.04 1023.34 617.85 1162.97 609.23
00006914 00000044 860.94 203.12 402.24 545.45 999.67 408.92 1178.61 399.34 1114.36 529.44 1023.01 616.48 1162.20 608.39
00006915 00000045 866.36 211.33 397.68 528.80 1004.30 415.27 1181.97 402.86 1119.83 530.86 1024.47 612.99 1167.35 603.30
00006916 00000046 868.04 206.08 399.78 534.81 1005.15 416.76 1186.25 405.13 1122.87 533.12 1025.50 613.93 1172.87 604.97
00006917 00000047 869.53 200.54 402.62 548.55 1005.20 418.36 1189.88 405.84 1126.93 534.17 1026.30 616.37 1178.71 606.52
00006918 00000048 872.19 200.41 402.11 552.64 1005.27 420.23 1190.06 404.94 1128.42 534.62 1027.08 617.60 1182.55 605.59
00006919 00000049 874.05 194.60 402.66 562.46 1007.36 418.90 1193.62 404.96 1132.11 536.70 1029.02 620.06 1184.83 609.37
00006920 00000050 878.35 200.25 398.89 558.78 1008.53 416.92 1193.70 402.41 1132.47 536.65 1034.54 626.69 1184.03 615.03
00006921 00000051 885.78 201.18 392.45 546.95 1010.44 417.14 1198.01 402.86 1132.14 536.25 1041.91 630.91 1186.63 619.51
00006922 00000052 883.67 196.30 399.20 553.51 1017.90 411.81 1205.48 404.50 1132.80 534.98 1051.14 631.60 1190.93 626.79
00006923 00000053 885.21 193.38 399.07 555.32 1018.71 411.32 1205.90 404.36 1132.60 534.14 1050.41 627.69 1192.12 623.15
00006924 00000054 884.80 194.61 399.69 554.54 1018.40 409.97 1205.14 405.08 1131.28 533.77 1047.48 625.86 1188.55 623.23
00006925 00000055 886.04 202.94 397.54 549.84 1010.75 415.92 1200.78 403.77 1132.31 536.56 1040.39 632.44 1188.15 622.64
00006926 00000056 884.27 208.19 398.49 546.57 1009.02 414.02 1199.66 403.44 1130.14 536.15 1038.55 633.63 1183.96 624.94
00006927 00000057 882.90 210.63 396.69 539.83 1007.50 413.55 1198.62 400.46 1129.24 535.52 1040.88 634.49 1182.71 623.62
00006928 00000058 879.19 204.18 399.86 550.63 1005.20 410.88 1196.38 399.20 1127.68 535.71 1036.60 631.31 1181.33 621.41
00006929 00000059 876.47 199.90 401.79 558.34 1003.86 409.55 1193.66 398.36 1125.15 533.10 1033.76 628.89 1179.63 619.25
00006930 00000060 875.33 202.05 400.00 551.55 1002.53 407.30 1191.87 396.66 1123.26 532.77 1031.15 625.10 1176.09 616.17
00006931 00000061 874.25 201.01 400.42 552.56 1002.21 404.78 1190.08 394.50 1121.53 529.77 1030.80 622.30 1175.41 613.39
00006932 00000062 875.19 198.29 398.60 553.54 1002.91 402.76 1189.42 393.19 1121.12 526.64 1031.88 619.98 1174.35 611.54
00006933 00000063 874.98 197.33 397.11 543.40 1002.68 399.77 1188.06 389.34 1121.00 522.98 1035.02 616.39 1172.62 607.26
00006934 00000064 873.81 184.96 400.77 556.06 1007.65 397.83 1192.41 388.38 1122.73 519.45 1041.51 615.57 1177.88 606.81
00006935 00000065 873.64 187.33 400.70 553.72 1007.16 395.10 1191.44 386.60 1122.39 515.18 1039.11 609.91 1179.82 602.10
00006936 00000066 873.70 194.10 399.27 548.82 1002.50 393.11 1188.28 387.35 1120.66 517.93 1030.22 607.04 1174.01 601.78
00006937 00000067 875.83 198.59 399.15 547.20 1006.17 399.06 1189.54 392.35 1121.62 521.77 1031.90 611.74 1173.44 605.76
00006938 00000068 878.66 200.69 395.23 540.21 1008.21 404.33 1189.32 396.56 1122.21 527.25 1034.92 618.32 1169.19 612.10
00006939 00000069 877.15 194.82 396.95 546.38 1014.55 404.13 1193.81 396.18 1124.24 526.98 1043.76 623.19 1171.03 616.10
00006940 00000070 876.58 192.26 397.40 543.94 1010.73 399.40 1192.52 392.65 1122.67 520.78 1043.05 618.31 1170.87 612.24
00006941 00000071 877.15 173.49 398.74 561.96 1014.33 390.80 1195.38 388.02 1126.73 511.22 1039.59 606.40 1176.13 603.53
00006942 00000072 873.19 167.70 401.67 561.20 1013.98 385.44 1193.09 383.14 1128.39 501.85 1038.13 596.43 1176.99 594.22
00006943 00000073 870.94 170.22 403.86 556.34 1011.83 381.22 1193.52 378.99 1127.30 496.66 1035.47 593.45 1175.91 591.31
00006944 00000074 871.10 171.96 403.78 560.10 1011.71 381.77 1192.95 379.45 1127.46 496.89 1037.14 595.28 1178.31 592.88
00006945 00000075 871.35 168.60 402.61 568.56 1012.27 384.73 1191.36 383.62 1126.67 500.08 1035.62 598.21 1176.47 596.60
00006946 00000076 871.62 168.31 400.72 563.25 1008.76 386.95 1191.79 384.98 1125.56 503.94 1034.77 601.66 1175.36 599.54
00006947 00000077 870.97 169.05 401.82 564.11 1008.33 387.95 1191.48 385.12 1125.09 503.26 1034.08 600.04 1177.51 597.04
00006948 00000078 871.01 168.05 400.10 559.77 1009.45 387.91 1189.88 386.66 1124.98 499.36 1031.68 593.12 1176.39 591.88
00006949 00000079 871.14 165.84 400.63 559.36 1008.22 386.83 1190.22 386.05 1123.97 497.41 1027.56 589.47 1176.82 588.79
00006950 00000080 871.66 165.49 401.59 558.78 1008.97 387.34 1191.07 386.86 1124.01 500.24 1026.17 587.19 1177.90 587.04
00006951 00000081 872.57 172.11 399.98 550.71 1011.86 387.67 1192.69 386.28 1126.97 503.78 1025.99 585.96 1178.62 585.64
00006952 00000082 872.35 181.07 400.47 543.37 1011.81 388.87 1193.78 386.14 1126.90 506.15 1025.45 587.09 1179.27 585.98
00006953 00000083 872.77 183.56 400.97 544.85 1012.75 388.99 1193.93 385.97 1128.73 506.18 1026.89 587.87 1180.91 586.39
00006954 00000084 874.01 179.98 399.14 550.46 1014.59 389.01 1194.54 385.74 1131.35 506.14 1028.75 588.17 1183.35 586.35
00006955 00000085 875.41 179.46 398.32 554.45 1017.69 391.13 1195.82 388.30 1134.70 506.34 1031.08 588.62 1186.17 587.31
00006956 00000086 877.81 182.14 397.67 552.75 1021.77 394.32 1196.69 391.38 1137.71 505.34 1032.45 588.57 1187.01 587.35
00006957 00000087 879.24 179.10 396.13 560.93 1023.60 394.38 1197.61 392.14 1138.38 508.37 1032.43 590.16 1187.78 589.38
00006958 00000088 877.12 183.67 399.04 560.52 1020.44 392.95 1196.95 390.02 1135.33 510.45 1031.72 593.22 1186.32 591.49
00006959 00000089 873.52 187.74 401.06 554.86 1015.07 393.03 1194.75 388.06 1130.08 512.86 1032.89 598.01 1183.50 594.10
00006960 00000090 872.66 188.34 400.85 552.08 1013.78 392.52 1193.44 387.29 1128.59 511.87 1035.89 600.22 1181.67 595.77
00006961 00000091 872.05 188.21 400.49 550.63 1013.74 390.82 1192.36 385.73 1128.05 509.04 1035.06 597.83 1180.04 593.50
00006962 00000092 870.46 179.50 400.77 558.64 1012.66 390.39 1191.15 385.74 1127.77 508.34 1034.26 598.59 1179.02 594.52
00006963 00000093 868.62 179.45 401.47 561.43 1009.99 391.46 1189.48 386.67 1124.80 508.13 1033.22 600.86 1178.41 596.35
00006964 00000094 867.18 181.52 401.72 556.62 1005.28 393.54 1188.58 389.58 1120.98 508.07 1027.97 600.22 1176.53 596.58
00006965 00000095 865.57 178.84 402.12 556.85 1002.66 392.98 1185.23 388.74 1117.74 506.39 1025.72 598.52 1173.60 594.62
00006966 00000096 864.76 174.07 401.74 561.95 1001.31 392.39 1182.91 389.30 1115.40 504.15 1023.63 597.52 1171.66 594.52
00006967 00000097 864.99 170.78 400.20 565.39 1001.76 391.36 1181.37 389.68 1114.90 503.10 1022.48 596.28 1170.03 594.37
00006968 00000098 864.26 165.57 400.57 571.54 1002.41 389.93 1180.87 389.87 1114.63 501.54 1021.11 595.33 1168.41 594.66
00006969 00000099 864.75 166.61 399.96 569.70 1003.04 389.30 1181.04 389.04 1114.85 501.34 1021.86 594.96 1168.41 594.08
00006970 00000100 865.18 170.55 400.17 566.61 1001.70 390.81 1181.51 388.66 1114.65 503.33 1022.80 597.19 1170.45 594.82
00006971 00000101 867.01 176.95 398.57 563.16 1001.71 392.25 1182.56 388.58 1115.11 505.85 1025.41 600.57 1172.48 596.78
00006972 00000102 870.02 183.15 398.17 558.93 1006.52 394.79 1186.50 391.80 1117.37 510.08 1025.96 602.88 1171.90 599.90
00006973 00000103 872.88 181.53 397.95 554.90 1009.72 400.37 1188.15 395.16 1119.91 512.94 1032.35 608.30 1170.83 603.53
00006974 00000104 873.54 183.24 398.28 553.33 1009.34 401.48 1188.63 396.38 1119.70 513.77 1033.58 608.29 1173.12 603.67
00006975 00000105 872.46 184.97 399.36 553.35 1007.76 399.04 1189.47 393.64 1119.28 513.65 1032.65 607.92 1174.70 602.96
00006976 00000106 870.43 182.54 399.63 556.70 1006.09 397.23 1186.60 391.71 1117.55 512.78 1031.25 606.81 1172.54 601.62
00006977 00000107 866.61 180.84 399.67 564.52 1004.89 393.74 1182.95 390.38 1114.27 509.99 1024.44 602.83 1169.73 599.32
00006978 00000108 863.91 179.13 401.55 570.81 1000.31 394.24 1181.09 390.45 1111.71 510.88 1017.36 601.64 1172.13 597.98
00006979 00000109 862.62 179.27 402.01 568.59 998.51 393.69 1181.04 390.32 1110.01 510.96 1014.14 600.05 1171.49 596.94
00006980 00000110 861.23 181.16 402.50 566.79 996.71 393.22 1181.07 389.33 1108.29 511.91 1012.30 600.24 1170.85 596.73
00006981 00000111 859.63 174.21 404.55 573.88 996.17 393.68 1179.55 389.45 1107.14 513.66 1011.80 601.48 1168.11 597.53
00006982 00000112 856.92 165.89 406.57 579.10 991.99 394.13 1176.53 390.03 1103.33 514.64 1009.35 601.98 1164.11 598.30
00006983 00000113 856.01 165.65 405.18 577.41 990.41 394.01 1175.52 390.59 1100.52 516.04 1006.76 601.62 1160.15 598.51
00006984 00000114 854.24 158.29 405.54 588.19 989.01 394.09 1173.75 391.72 1099.50 517.61 1004.51 602.50 1158.56 600.09
00006985 00000115 853.18 160.04 405.68 586.93 987.31 393.56 1173.41 390.15 1098.42 518.89 1003.61 603.07 1158.12 599.95
00006986 00000116 853.26 159.95 405.08 586.36 985.72 393.79 1173.79 390.63 1098.27 518.25 1002.60 603.12 1158.75 600.26
00006987 00000117 853.24 165.93 406.09 580.36 986.02 392.69 1174.63 388.11 1098.36 517.54 1004.10 603.38 1159.92 599.43
00006988 00000118 852.82 164.02 407.56 582.63 988.51 392.07 1175.07 389.11 1099.60 517.35 1004.89 602.54 1159.16 599.85
00006989 00000119 853.62 164.27 407.15 582.25 989.54 392.06 1176.14 390.10 1100.07 516.75 1005.57 602.67 1159.54 600.82
00006990 00000120 854.33 165.32 406.78 582.28 990.19 392.08 1177.10 389.75 1100.50 518.55 1006.44 603.98 1159.97 601.84
00006991 00000121 854.39 165.62 406.56 581.88 990.12 392.14 1177.01 389.85 1100.53 518.74 1006.71 604.40 1159.70 602.29
00006992 00000122 854.59 169.24 406.31 577.84 990.22 391.44 1177.89 388.93 1100.29 519.68 1006.60 604.14 1160.26 601.95
00006993 00000123 853.87 166.50 406.96 581.17 989.45 392.43 1176.50 390.03 1099.80 520.37 1005.79 604.43 1159.60 602.31
00006994 00000124 854.13 169.12 406.46 577.75 989.58 391.98 1176.83 389.33 1099.97 521.73 1006.11 604.79 1158.95 602.61
00006995 00000125 854.05 165.40 406.76 583.12 989.91 393.22 1176.07 390.28 1100.53 522.11 1007.44 606.34 1159.01 603.75
00006996 00000126 850.14 173.60 409.55 574.82 988.62 390.06 1178.28 389.91 1102.82 524.22 1007.25 605.76 1155.83 604.91
00006997 00000127 849.00 179.60 410.71 570.30 988.49 389.93 1177.47 390.22 1101.10 525.89 1006.61 605.97 1155.57 605.42
00006998 00000128 848.57 180.20 411.31 569.21 988.19 389.68 1177.21 390.86 1100.39 526.23 1005.43 605.30 1154.20 605.58
00006999 00000129 847.26 178.88 412.81 571.15 987.88 389.08 1177.76 390.84 1100.14 527.53 1003.89 604.98 1154.12 605.75
00007000 00000130 847.94 175.30 412.19 573.82 987.68 389.49 1177.74 390.74 1100.68 526.99 1004.42 604.95 1154.30 605.31
00007001 00000131 851.43 168.13 410.43 582.38 988.80 394.20 1176.62 391.80 1099.33 523.98 1005.18 606.64 1159.53 604.60
00007002 00000132 848.48 176.68 413.32 572.27 988.56 388.96 1178.47 390.09 1101.78 525.82 1005.92 604.80 1154.90 605.13
00007003 00000133 852.03 182.52 412.22 568.99 991.07 390.41 1179.85 391.58 1104.33 527.37 1007.67 605.95 1158.34 606.41
00007004 00000134 856.32 188.55 410.93 563.98 992.74 393.55 1179.78 393.63 1105.37 528.61 1009.70 607.09 1161.07 606.76
00007005 00000135 859.77 200.06 406.13 556.99 995.10 398.01 1180.71 397.48 1109.26 531.49 1013.15 612.95 1163.00 612.06
00007006 00000136 862.40 203.35 405.96 552.42 998.82 402.94 1184.31 400.37 1115.41 533.41 1017.76 618.02 1165.26 615.54
00007007 00000137 865.75 205.85 406.31 547.98 1001.73 406.46 1187.37 402.96 1118.60 538.03 1020.72 620.89 1165.59 617.87
00007008 00000138 866.16 208.65 407.10 547.73 1003.08 408.96 1188.46 405.61 1120.14 539.87 1021.52 621.77 1167.42 618.93
00007009 00000139 866.52 205.46 406.92 551.23 1002.47 408.98 1189.03 405.52 1120.00 540.39 1021.21 622.58 1167.62 619.68
00007010 00000140 865.59 206.93 408.63 551.45 1002.22 408.90 1189.58 405.24 1120.49 542.28 1020.75 623.15 1168.23 620.00
00007011 00000141 865.78 203.77 408.08 556.54 1006.47 414.86 1189.79 413.78 1123.06 545.18 1019.84 623.25 1168.24 622.47
00007012 00000142 866.36 204.81 407.94 557.42 1006.76 416.21 1189.65 415.03 1123.19 547.94 1020.41 625.16 1168.82 624.10
00007013 00000143 865.26 207.20 412.34 561.71 1005.52 416.14 1189.03 413.81 1123.71 548.56 1021.02 626.60 1171.74 624.21
00007014 00000144 866.06 207.73 411.07 552.93 1008.68 413.71 1192.31 411.64 1126.33 547.65 1023.69 624.10 1169.56 622.11
00007015 00000145 866.75 206.95 411.64 551.11 1009.43 411.27 1193.48 409.07 1126.47 544.80 1025.47 621.30 1171.01 619.12
00007016 00000146 867.41 204.83 412.11 555.05 1010.17 409.15 1194.49 406.56 1128.47 541.73 1026.62 620.35 1173.20 617.84
00007017 00000147 869.21 204.96 412.63 557.42 1010.58 408.77 1196.24 405.32 1130.07 542.14 1025.51 620.25 1176.84 617.07
00007018 00000148 871.72 208.46 412.18 552.20 1011.60 410.27 1198.67 407.04 1131.52 545.30 1025.27 620.38 1177.86 617.57
00007019 00000149 872.70 209.40 413.56 552.69 1013.75 411.36 1202.32 409.28 1133.29 547.88 1025.80 621.80 1179.81 619.89
00007020 00000150 873.41 212.07 412.39 549.82 1015.16 411.74 1203.97 410.34 1134.40 548.97 1024.03 619.93 1181.64 618.82
00007021 00000151 872.85 209.71 413.23 554.49 1015.15 412.27 1204.11 411.48 1134.64 550.16 1022.15 620.93 1180.59 620.46
00007022 00000152 871.22 207.47 414.62 557.43 1013.65 412.81 1202.74 412.54 1133.90 551.19 1020.97 622.86 1177.60 623.03
00007023 00000153 869.20 210.78 417.31 561.19 1010.78 411.86 1199.28 411.06 1130.62 548.99 1016.25 623.95 1176.50 623.40
00007024 00000154 866.54 206.61 414.19 564.63 1007.88 410.49 1196.06 410.30 1129.11 546.15 1015.31 623.44 1173.88 623.33
00007025 00000155 863.52 203.84 413.13 566.04 1007.73 409.59 1193.75 409.33 1128.05 546.23 1015.64 620.82 1172.52 620.57
00007026 00000156 864.29 211.14 409.15 553.92 1006.66 408.56 1192.30 407.81 1124.89 545.80 1017.26 620.34 1170.36 619.50
00007027 00000157 863.76 216.11 406.38 546.22 1005.57 412.93 1190.88 411.27 1123.33 547.26 1017.22 622.31 1168.51 620.76
00007028 00000158 863.89 206.88 404.62 552.84 1006.41 417.18 1187.71 415.82 1120.99 547.36 1017.09 621.97 1166.38 620.74
00007029 00000159 859.91 205.32 406.79 556.46 1001.01 415.74 1183.67 413.94 1115.32 545.89 1014.81 621.89 1164.83 619.92
00007030 00000160 858.73 209.50 407.08 552.75 997.26 412.45 1183.57 409.23 1112.93 545.07 1013.37 621.82 1164.76 618.45
00007031 00000161 858.76 208.07 406.83 552.66 996.94 410.40 1183.72 406.44 1113.69 543.40 1014.61 621.15 1165.32 617.27
00007032 00000162 858.96 200.26 410.23 563.68 998.60 408.64 1185.68 405.85 1116.43 542.73 1014.37 620.14 1166.72 617.24
00007033 00000163 861.87 202.16 409.34 561.63 1002.04 408.49 1187.79 405.89 1120.18 543.25 1016.50 619.79 1168.95 617.18
00007034 00000164 862.11 204.77 410.16 563.18 1002.66 408.17 1187.95 407.20 1120.73 545.16 1014.32 619.90 1168.69 618.78
