Video ID: 	CBdWZC-XXR0
H: 	1080
W: 	1920
FPS: 	25.0

FRAME INDEX X0 Y0 W H [Landmarks (5 Points)]

00002299 00000000 804.31 212.26 433.71 618.34 1008.79 449.28 1182.55 465.10 1139.80 587.78 1023.20 684.04 1149.34 696.39
00002300 00000001 799.91 212.29 436.99 620.51 1006.24 452.23 1181.00 469.39 1134.86 591.23 1017.75 688.04 1142.29 701.45
00002301 00000002 797.63 216.82 440.78 618.96 1002.88 454.72 1178.75 471.31 1132.67 592.87 1014.17 689.89 1142.17 702.98
00002302 00000003 796.99 222.57 442.31 612.83 1002.03 452.40 1179.32 469.42 1131.75 590.53 1012.92 687.37 1143.35 700.94
00002303 00000004 800.14 211.58 442.62 625.28 1000.00 445.78 1180.63 466.04 1131.58 585.76 1009.98 683.25 1145.03 698.86
00002304 00000005 802.43 213.54 442.08 623.20 1000.00 442.55 1181.69 462.24 1132.87 577.82 1007.61 676.28 1148.82 691.40
00002305 00000006 805.91 210.14 444.57 631.36 1002.90 437.38 1187.98 454.03 1141.31 572.67 1009.97 675.87 1155.00 688.43
00002306 00000007 813.04 205.14 439.28 646.24 1008.70 430.56 1190.15 448.42 1144.57 564.61 1012.59 674.39 1155.43 687.81
00002307 00000008 818.06 192.36 438.36 651.91 1012.93 418.09 1197.18 437.78 1151.58 553.46 1020.52 667.57 1160.73 682.38
00002308 00000009 819.24 198.03 439.21 630.41 1010.49 406.52 1199.27 426.13 1150.82 540.90 1024.66 657.56 1165.34 672.08
00002309 00000010 823.61 192.51 436.09 611.19 1013.02 399.27 1203.15 415.29 1152.50 525.95 1033.44 640.62 1174.93 652.31
00002310 DELETE   827.52 180.66 439.52 603.77 1014.70 391.71 1209.79 405.17 1155.74 516.70 1040.29 632.41 1182.82 641.61
00002311 00000012 829.70 158.05 442.74 621.18 1020.99 390.83 1212.94 403.64 1160.76 503.99 1051.52 622.46 1196.92 631.59
00002312 00000013 828.91 157.23 451.24 624.76 1022.57 390.58 1216.12 405.56 1163.10 501.63 1051.09 622.56 1198.44 633.76
00002313 DELETE   825.01 171.40 455.21 639.18 1027.81 392.42 1221.68 409.98 1171.45 517.98 1054.28 643.14 1196.78 655.90
00002314 DELETE   833.07 171.60 449.55 668.92 1045.30 413.72 1223.21 429.76 1187.80 531.32 1075.89 665.58 1207.55 678.94
00002315 00000016 844.66 187.02 425.17 649.66 1057.28 420.94 1228.62 421.19 1216.33 543.27 1101.08 683.13 1222.92 682.39
00002316 00000017 840.00 197.70 413.95 630.11 1049.18 418.69 1218.71 412.44 1213.19 538.89 1097.44 678.78 1220.15 672.57
00002317 00000018 820.86 200.14 423.41 630.54 1030.43 420.90 1204.36 409.89 1198.06 545.84 1082.49 685.20 1206.75 674.62
00002318 00000019 801.78 193.08 421.65 639.64 1018.32 429.94 1179.79 420.49 1176.53 551.74 1065.20 683.87 1177.48 674.71
00002319 00000020 788.20 204.10 428.73 638.20 1010.82 439.05 1169.25 432.02 1167.09 566.37 1052.66 694.43 1163.15 688.09
00002320 00000021 783.67 209.32 427.53 647.63 1012.41 450.66 1168.84 441.85 1171.39 587.51 1039.20 706.12 1155.22 699.13
00002321 00000022 794.32 219.87 417.19 643.83 1023.20 463.42 1169.11 451.00 1183.42 600.20 1048.99 715.88 1157.69 706.86
00002322 00000023 807.74 240.77 409.72 624.39 1045.11 467.45 1186.13 468.24 1196.79 611.49 1055.45 717.58 1161.43 721.30
00002323 00000024 803.88 249.74 421.83 624.05 1061.30 471.28 1190.50 467.73 1209.42 619.70 1057.01 725.07 1150.76 726.81
00002324 00000025 816.69 253.87 413.65 624.81 1074.41 472.07 1196.09 470.66 1217.60 624.10 1070.34 727.22 1157.39 730.15
00002325 00000026 823.96 253.32 414.64 606.97 1074.84 475.61 1194.32 469.01 1215.93 610.38 1082.50 719.31 1163.49 716.44
00002326 00000027 834.49 246.74 404.55 614.27 1093.38 466.46 1201.42 464.31 1230.87 611.68 1098.81 716.47 1172.51 717.35
00002327 00000028 846.65 230.70 396.89 628.78 1102.74 463.79 1203.88 462.71 1237.50 605.53 1102.13 710.90 1174.18 712.54
00002328 00000029 844.33 229.69 409.33 628.71 1105.33 474.15 1212.99 478.89 1245.29 609.85 1099.53 709.99 1176.97 717.85
00002329 00000030 849.63 226.97 407.81 628.65 1115.50 461.67 1214.70 464.56 1250.45 598.60 1108.85 701.87 1178.01 706.81
00002330 00000031 861.63 221.49 399.28 619.17 1124.21 462.97 1208.28 459.51 1261.62 589.05 1129.16 696.40 1186.34 696.54
00002331 00000032 869.68 208.80 396.94 626.53 1132.66 455.79 1214.78 452.80 1270.30 581.72 1136.95 690.61 1190.84 690.61
00002332 00000033 880.29 214.77 403.64 618.76 1131.20 450.46 1237.07 440.71 1279.72 583.97 1147.62 692.48 1214.26 689.92
00002333 00000034 874.00 204.77 399.84 631.66 1138.92 458.94 1222.86 449.60 1276.13 581.62 1140.62 689.25 1197.81 684.42
00002334 00000035 894.74 205.56 387.28 627.01 1140.37 475.97 1247.16 466.14 1276.46 590.32 1155.95 692.17 1227.35 689.72
00002335 00000036 896.90 209.53 384.32 624.54 1133.70 478.49 1251.91 472.29 1273.29 593.35 1147.03 691.11 1230.07 691.75
00002336 00000037 892.64 213.27 387.47 621.28 1127.51 469.00 1253.34 462.52 1271.41 592.51 1144.64 691.40 1232.55 691.67
00002337 00000038 878.72 205.30 398.72 630.69 1123.90 461.22 1236.78 456.23 1267.68 580.64 1130.61 686.41 1210.79 683.54
00002338 00000039 884.50 205.67 397.68 622.93 1118.40 449.06 1258.11 452.11 1265.55 579.62 1129.95 678.54 1231.89 685.76
00002339 00000040 883.54 205.05 406.56 618.78 1108.97 444.62 1261.11 448.47 1258.83 572.10 1123.43 672.25 1236.76 679.41
00002340 00000041 876.75 200.80 417.15 629.52 1103.77 439.64 1254.98 444.15 1251.30 564.56 1111.48 670.96 1224.03 675.10
00002341 00000042 875.38 201.93 419.03 628.93 1098.14 436.01 1254.23 442.82 1245.37 562.46 1105.81 668.62 1223.03 674.60
00002342 00000043 867.14 204.86 425.35 625.40 1087.12 427.89 1247.13 437.90 1232.59 556.99 1094.61 663.80 1215.97 672.53
00002343 00000044 854.71 213.14 436.51 612.53 1079.20 420.86 1246.07 436.68 1223.38 553.02 1085.80 659.71 1212.83 672.74
00002344 00000045 851.55 208.35 440.67 617.85 1073.78 412.67 1243.99 428.09 1221.60 548.70 1077.86 658.32 1210.13 671.13
00002345 00000046 851.73 203.42 436.80 631.55 1071.26 405.64 1241.39 425.48 1222.37 543.54 1069.71 657.95 1204.85 674.67
00002346 00000047 849.66 198.93 437.89 635.57 1070.43 401.50 1241.71 422.37 1222.98 539.42 1068.43 654.66 1205.56 671.93
00002347 00000048 852.02 190.48 436.33 643.19 1070.68 399.62 1239.90 421.07 1224.15 531.28 1070.54 648.99 1208.14 666.37
00002348 00000049 851.83 183.37 431.54 646.73 1067.88 403.58 1230.07 413.13 1228.28 528.33 1072.51 652.59 1205.18 662.96
00002349 00000050 851.75 184.75 434.99 635.99 1072.35 390.86 1239.17 412.49 1228.29 515.14 1077.38 637.88 1212.63 655.17
00002350 00000051 854.40 183.47 436.71 634.67 1075.17 386.87 1239.29 410.31 1229.09 508.74 1079.77 632.75 1211.72 651.60
00002351 00000052 859.68 181.69 432.68 627.81 1079.55 382.68 1243.94 410.90 1233.78 499.62 1080.63 620.77 1216.45 643.83
00002352 00000053 868.82 184.97 426.92 607.78 1085.49 377.20 1252.46 403.55 1238.09 499.55 1086.77 616.30 1222.11 637.95
00002353 00000054 875.72 179.67 429.65 602.06 1095.38 385.54 1259.80 407.99 1239.12 506.24 1102.16 614.08 1234.78 631.72
00002354 DELETE   888.49 183.18 421.89 605.24 1106.29 392.98 1266.19 411.69 1248.80 512.72 1115.88 622.18 1241.74 637.19
00002355 00000056 898.84 199.52 420.83 605.05 1114.31 408.64 1276.90 421.29 1258.71 531.72 1124.17 644.19 1248.32 654.91
00002356 00000057 909.44 211.08 411.80 602.00 1122.36 423.38 1286.40 435.34 1265.99 543.49 1138.29 657.66 1260.90 666.87
00002357 00000058 910.97 210.49 408.16 595.91 1123.11 423.69 1284.65 431.55 1268.72 542.82 1142.87 657.13 1263.04 663.30
00002358 DELETE   895.44 203.63 414.41 594.82 1112.77 413.65 1268.91 422.68 1256.87 532.57 1134.92 646.25 1249.15 653.01
00002359 00000060 887.32 190.23 405.75 595.14 1100.23 401.39 1250.52 416.79 1236.99 517.89 1126.69 632.74 1233.93 643.93
00002360 00000061 868.44 186.32 413.51 588.36 1091.36 390.43 1237.97 407.82 1225.22 508.97 1121.90 621.28 1222.54 633.42
00002361 00000062 860.09 177.81 411.10 597.95 1083.96 396.18 1230.65 407.43 1229.62 505.71 1108.00 623.92 1220.17 633.12
00002362 00000063 858.24 166.76 400.85 608.92 1076.83 396.63 1224.40 407.18 1223.37 503.61 1103.97 623.66 1215.37 632.13
00002363 00000064 861.74 155.63 397.36 614.58 1073.97 396.84 1236.88 405.91 1226.81 499.43 1104.74 621.96 1227.54 628.20
00002364 00000065 863.62 175.59 398.98 592.16 1085.18 398.44 1228.23 402.65 1231.75 506.40 1112.97 625.62 1219.88 629.80
00002365 DELETE   867.47 175.43 387.53 583.29 1089.35 394.14 1219.86 394.73 1234.02 495.21 1134.31 613.79 1232.57 613.53
00002366 DELETE   878.45 154.47 380.57 593.60 1092.41 394.94 1212.03 383.27 1232.80 485.27 1153.14 610.68 1239.59 599.68
00002367 00000068 878.97 157.70 378.40 591.60 1096.40 396.86 1212.47 385.83 1237.37 490.05 1154.75 612.10 1238.30 601.56
00002368 00000069 878.49 176.58 378.92 589.85 1097.52 403.37 1218.39 390.41 1241.94 510.46 1145.91 630.74 1231.44 618.94
00002369 00000070 880.52 187.23 390.23 600.25 1107.00 414.17 1230.29 417.58 1243.11 524.43 1143.52 645.55 1229.22 647.47
00002370 00000071 882.91 200.48 391.05 615.60 1107.73 436.49 1234.69 442.36 1247.49 542.65 1142.82 665.04 1231.14 669.00
00002371 00000072 883.50 197.00 390.27 609.35 1106.68 432.53 1234.73 440.41 1242.59 540.84 1139.83 659.08 1227.79 664.50
00002372 00000073 884.09 208.02 387.58 586.19 1110.67 418.08 1244.07 427.90 1253.11 529.21 1129.59 648.29 1230.80 657.16
00002373 00000074 872.34 200.85 394.40 584.59 1095.93 404.28 1240.45 427.61 1238.99 524.15 1111.04 636.14 1220.15 655.37
00002374 00000075 868.90 204.02 394.07 583.56 1086.54 400.44 1238.84 426.79 1227.64 523.96 1099.42 637.43 1211.22 659.61
00002375 00000076 863.63 207.18 399.55 588.36 1083.15 402.59 1234.35 422.81 1224.06 527.72 1096.76 644.74 1207.19 661.91
00002376 00000077 869.61 212.07 395.47 586.22 1089.87 405.98 1238.95 424.64 1229.05 534.58 1102.33 648.06 1212.43 663.71
00002377 00000078 871.23 220.35 394.09 584.01 1084.02 411.65 1240.00 427.55 1223.84 540.27 1098.61 655.57 1213.89 668.87
00002378 00000079 861.20 225.27 402.14 584.56 1070.71 416.63 1230.66 433.25 1204.81 546.86 1081.68 658.94 1200.02 672.30
00002379 00000080 846.44 225.59 408.70 595.23 1056.67 418.62 1217.97 440.02 1186.42 553.09 1061.78 662.22 1178.16 679.92
00002380 00000081 840.58 229.98 413.58 581.70 1045.59 417.14 1217.52 441.11 1177.17 551.78 1052.27 656.85 1178.58 675.96
00002381 00000082 845.67 226.08 410.94 585.13 1050.75 414.73 1220.46 435.25 1184.30 548.94 1060.19 656.29 1184.60 672.66
00002382 00000083 853.65 216.85 404.36 599.21 1057.60 416.19 1223.25 435.50 1191.64 550.87 1070.98 662.10 1189.84 677.96
00002383 00000084 852.61 223.31 407.49 605.91 1055.18 429.83 1222.04 448.40 1187.95 561.66 1066.23 672.36 1186.74 687.56
00002384 00000085 853.29 221.42 408.56 616.46 1060.78 438.08 1227.11 457.95 1191.04 576.22 1066.11 682.40 1186.93 699.01
00002385 00000086 857.60 233.63 404.54 599.21 1068.87 442.21 1232.34 455.78 1203.15 577.03 1080.41 686.74 1193.47 697.90
00002386 00000087 864.72 230.00 397.71 597.59 1079.07 438.59 1238.10 449.16 1220.17 570.47 1093.36 682.31 1205.79 691.52
00002387 00000088 867.32 225.88 392.17 593.97 1082.46 426.04 1237.82 438.23 1226.57 554.74 1101.05 671.82 1212.16 681.83
00002388 00000089 863.58 216.62 388.57 597.12 1075.42 423.34 1227.71 433.25 1217.00 551.14 1097.18 668.65 1204.81 677.28
00002389 00000090 853.76 227.76 391.14 590.10 1060.02 427.14 1211.86 431.23 1199.96 551.66 1082.42 668.34 1191.74 672.30
00002390 00000091 844.97 229.69 390.02 595.16 1055.51 435.61 1201.05 436.41 1196.63 556.63 1072.64 670.70 1179.40 672.52
00002391 00000092 835.36 231.56 395.52 596.03 1048.03 437.45 1194.75 435.26 1191.89 560.03 1061.41 673.54 1169.24 673.30
00002392 00000093 815.04 233.02 409.31 595.38 1036.94 437.58 1184.25 438.42 1184.91 563.57 1040.42 671.55 1151.52 674.57
00002393 00000094 807.87 226.74 405.40 601.94 1028.28 442.74 1172.88 441.68 1171.50 569.76 1034.61 675.61 1142.43 676.24
00002394 00000095 803.71 220.83 401.42 600.32 1029.30 448.17 1167.46 446.25 1164.92 572.56 1042.62 677.25 1140.23 676.30
00002395 00000096 800.82 227.42 396.64 594.91 1029.57 455.76 1160.46 450.35 1164.37 578.97 1044.63 683.89 1134.18 680.41
00002396 00000097 795.01 247.27 395.69 581.88 1028.72 458.63 1158.98 454.72 1159.76 593.44 1037.50 687.60 1125.67 685.18
00002397 00000098 787.28 255.77 400.80 578.82 1025.67 459.90 1161.51 458.78 1154.68 601.84 1029.39 693.92 1119.87 693.81
00002398 00000099 791.00 251.05 395.00 579.75 1023.80 457.38 1161.76 458.84 1163.18 589.62 1031.20 692.43 1125.03 694.53
00002399 00000100 795.25 238.95 389.88 588.26 1020.71 436.71 1156.82 438.02 1163.93 561.86 1033.64 676.68 1133.35 679.11
00002400 00000101 794.86 221.13 394.81 593.77 1025.17 419.03 1149.88 419.02 1164.90 539.89 1039.50 659.28 1131.14 660.60
00002401 00000102 798.71 206.73 386.23 595.60 1025.59 414.99 1151.72 414.60 1167.71 534.87 1040.82 653.72 1131.76 656.48
00002402 00000103 797.71 210.34 391.96 591.26 1030.31 417.58 1152.69 418.05 1170.51 537.85 1038.46 652.46 1126.12 655.67
00002403 00000104 796.61 210.11 391.92 598.12 1031.00 425.88 1156.01 424.98 1174.13 542.41 1041.69 659.30 1133.47 661.10
00002404 00000105 795.35 215.29 395.54 594.90 1030.90 425.41 1157.16 424.26 1175.72 543.16 1040.64 659.95 1133.80 660.93
00002405 00000106 795.42 216.56 394.27 594.29 1029.19 418.09 1150.41 417.98 1173.17 540.55 1031.56 654.71 1124.75 656.99
00002406 00000107 796.01 206.96 391.84 608.99 1026.63 415.69 1148.32 412.21 1171.88 538.93 1021.94 653.09 1119.44 653.19
00002407 00000108 788.67 208.70 395.58 607.42 1021.63 414.23 1143.61 410.13 1168.48 539.52 1011.57 650.76 1111.72 651.11
00002408 00000109 785.59 208.99 396.14 608.61 1020.79 415.41 1142.03 413.14 1165.89 542.40 1005.41 649.56 1105.89 651.73
00002409 00000110 783.72 208.75 396.87 609.35 1019.39 416.67 1138.22 414.47 1164.25 542.64 1002.72 649.36 1101.00 651.55
00002410 00000111 784.80 209.61 394.76 601.12 1019.18 415.25 1139.03 412.56 1165.04 542.20 1004.10 648.59 1100.93 650.68
00002411 00000112 780.96 215.44 396.65 588.71 1019.00 408.01 1139.01 408.62 1166.98 539.23 1002.15 643.23 1098.13 648.29
00002412 00000113 776.19 212.49 399.40 591.91 1016.40 406.41 1133.78 407.74 1162.55 533.02 999.68 640.46 1095.81 645.75
00002413 00000114 773.03 210.67 400.39 592.93 1008.72 404.46 1132.71 408.07 1154.29 531.06 996.53 641.20 1095.82 647.72
00002414 00000115 774.23 204.05 395.93 599.16 1007.07 406.85 1130.75 410.63 1150.52 529.58 998.66 640.89 1098.04 647.31
00002415 00000116 772.76 201.06 394.85 600.94 1004.52 406.30 1124.90 408.90 1147.33 528.37 998.66 640.19 1093.92 645.67
00002416 00000117 770.21 201.71 394.56 602.23 999.19 404.13 1123.36 409.17 1142.77 529.07 993.05 642.29 1089.83 649.64
00002417 DELETE   756.05 199.76 399.58 609.57 977.96 410.12 1119.51 416.86 1125.94 531.24 979.44 647.24 1088.05 654.48
00002418 DELETE   734.05 193.06 409.81 622.35 947.97 422.33 1111.31 441.55 1090.71 542.21 952.92 647.54 1084.22 665.81
00002419 DELETE   718.33 209.49 417.26 607.87 932.97 415.28 1097.50 425.48 1081.53 539.10 934.24 653.37 1068.65 663.26
00002420 00000121 705.35 195.09 426.76 618.69 910.55 403.43 1087.65 415.42 1058.99 529.41 911.40 644.27 1059.57 655.74
00002421 DELETE   695.52 197.63 433.57 612.13 899.04 393.97 1078.19 403.57 1047.15 519.97 900.78 633.44 1053.23 642.40
00002422 00000123 691.11 185.86 433.91 618.97 895.70 386.94 1076.00 395.72 1044.98 512.68 898.21 628.04 1050.37 636.57
00002423 00000124 690.12 176.07 434.77 624.02 895.53 383.92 1075.07 393.27 1044.62 507.87 899.97 624.70 1049.52 633.36
00002424 00000125 691.25 172.10 435.23 622.95 900.36 381.71 1076.32 393.71 1048.79 505.05 901.32 618.67 1049.49 629.65
00002425 00000126 691.26 171.42 438.36 623.65 902.95 381.79 1078.10 396.38 1049.58 506.21 901.81 617.05 1049.87 630.35
00002426 00000127 692.39 171.60 437.17 621.93 904.17 382.59 1079.12 394.96 1050.65 508.41 906.22 621.19 1051.15 632.73
00002427 00000128 688.46 163.53 440.98 631.20 901.64 378.83 1074.02 401.19 1042.11 503.02 905.36 616.16 1047.32 635.19
00002428 00000129 689.10 160.95 440.68 632.43 900.77 378.13 1072.85 398.64 1040.43 501.34 905.15 614.73 1047.44 632.06
00002429 00000130 684.68 158.82 443.43 629.13 897.30 377.90 1069.61 395.29 1038.10 499.60 902.47 610.76 1047.51 625.56
00002430 00000131 683.16 154.59 440.36 624.02 889.79 386.19 1074.60 391.79 1038.56 498.33 912.33 617.62 1056.31 621.32
00002431 00000132 686.80 158.98 436.09 611.83 889.55 387.06 1074.14 392.06 1036.55 496.51 920.87 617.79 1059.15 620.81
00002432 00000133 689.15 161.14 432.04 610.66 895.06 387.61 1076.81 392.92 1041.49 498.80 923.14 618.11 1059.91 621.46
00002433 00000134 688.67 167.24 436.78 614.97 897.72 386.71 1075.75 392.20 1044.80 508.73 922.01 628.57 1057.06 632.24
00002434 DELETE   693.51 169.14 440.41 632.26 901.60 389.11 1085.28 400.35 1048.19 521.73 911.75 639.76 1054.02 649.45
00002435 DELETE   693.29 176.16 449.39 639.84 906.69 400.54 1089.33 417.13 1048.17 535.27 920.82 652.98 1060.08 667.81
00002436 DELETE   715.83 187.09 435.94 629.87 920.31 420.20 1102.36 427.77 1066.04 549.69 946.03 665.37 1083.26 672.73
00002437 00000138 732.73 201.06 434.08 627.96 938.61 423.57 1124.12 442.02 1083.18 555.53 957.90 669.89 1094.34 683.24
00002438 00000139 731.64 198.10 441.01 654.17 947.86 435.99 1127.71 456.73 1095.29 564.70 948.16 673.89 1094.38 690.64
00002439 00000140 734.56 199.36 440.80 674.54 954.13 437.60 1126.95 460.54 1101.34 568.81 932.04 678.19 1084.73 698.09
00002440 00000141 736.02 203.99 440.56 665.14 957.65 434.73 1128.21 454.83 1104.44 568.72 936.33 677.12 1084.94 694.81
00002441 00000142 741.49 206.10 438.73 634.87 960.03 434.41 1136.28 453.39 1102.63 562.72 955.89 669.76 1094.75 685.47
00002442 00000143 751.03 203.09 430.65 630.11 962.37 434.26 1143.52 447.91 1106.43 557.34 976.40 669.69 1112.47 679.76
00002443 00000144 758.08 202.52 423.58 626.46 967.94 433.26 1144.56 445.08 1110.63 555.32 984.63 668.93 1114.91 677.52
00002444 00000145 755.35 200.80 423.82 625.81 965.76 433.77 1141.41 445.29 1106.10 557.04 983.15 669.15 1110.19 677.40
00002445 00000146 753.03 201.42 425.18 621.75 963.01 431.16 1138.85 443.98 1101.21 555.73 981.29 667.18 1107.47 676.36
00002446 00000147 751.37 201.28 425.55 616.90 958.97 425.43 1134.89 438.90 1096.53 552.16 975.68 661.93 1103.38 671.60
00002447 00000148 747.51 195.32 425.69 618.34 956.13 421.58 1130.93 433.05 1093.86 548.81 976.09 660.11 1101.67 667.96
00002448 00000149 744.39 194.30 427.17 618.89 953.92 419.61 1126.87 433.41 1089.29 548.94 970.90 658.35 1093.77 668.27
00002449 00000150 740.77 197.40 427.71 614.84 950.15 419.99 1123.82 434.04 1085.00 550.29 964.43 659.29 1087.47 669.57
00002450 00000151 736.40 199.74 428.56 613.67 945.62 420.89 1119.21 436.50 1078.94 554.50 957.47 659.75 1080.96 671.53
00002451 00000152 730.12 203.00 433.65 611.69 942.02 421.67 1116.74 437.36 1077.08 557.03 953.04 661.28 1078.09 673.21
00002452 00000153 729.04 202.57 434.98 618.94 940.59 423.74 1115.40 440.11 1076.85 557.44 947.30 661.47 1076.82 674.29
00002453 00000154 727.70 201.54 436.13 625.15 940.67 424.97 1113.64 442.23 1077.73 558.61 941.72 661.58 1073.89 675.57
00002454 00000155 725.92 201.99 435.79 625.83 941.28 426.08 1113.27 444.77 1079.07 560.58 937.90 661.21 1071.55 676.73
00002455 00000156 726.08 206.06 435.27 620.64 940.76 427.42 1113.47 445.88 1078.64 561.22 937.21 661.57 1071.25 677.00
00002456 00000157 729.20 205.89 432.71 620.95 940.90 430.06 1114.60 447.30 1079.26 561.95 938.99 662.55 1073.81 676.84
00002457 00000158 734.36 205.40 427.88 617.48 943.41 432.66 1117.22 449.61 1078.64 562.87 947.84 663.79 1076.83 677.28
00002458 00000159 743.45 210.75 421.58 602.96 947.10 432.00 1121.40 446.41 1080.29 559.50 959.92 663.82 1083.62 674.96
00002459 00000160 753.50 199.74 420.53 606.59 955.77 425.05 1128.88 433.26 1091.68 546.51 980.26 657.39 1102.70 662.59
00002460 00000161 754.84 196.78 425.98 604.74 960.53 412.82 1135.77 422.11 1101.01 536.32 983.44 649.87 1111.20 656.24
00002461 00000162 757.39 198.93 426.73 605.04 962.63 403.78 1140.42 417.26 1103.09 536.63 979.77 647.86 1112.81 658.30
00002462 00000163 759.94 210.74 430.83 608.76 964.77 410.28 1146.22 425.38 1105.29 550.23 977.04 658.72 1113.72 670.06
00002463 DELETE   761.32 217.05 436.71 622.86 972.56 431.42 1149.82 444.96 1112.54 571.32 972.63 677.26 1110.20 688.40
