Video ID: 	oy2ZeXz3Bjw
H: 	1080
W: 	1920
FPS: 	25.0

FRAME INDEX X0 Y0 W H [Landmarks (5 Points)]

00004505 00000000 958.19 208.99 511.67 753.10 1047.18 496.59 1266.56 497.59 1129.78 661.44 1086.53 777.93 1261.86 777.92
00004506 DELETE   950.80 224.95 514.67 742.95 1039.42 516.06 1256.13 511.97 1125.58 677.18 1086.28 791.25 1255.43 787.35
00004507 00000002 953.78 230.20 509.62 736.16 1040.10 527.99 1255.58 523.61 1124.29 686.72 1085.69 797.77 1255.47 793.84
00004508 00000003 948.39 233.12 509.66 730.75 1035.40 528.87 1253.40 521.09 1127.34 689.66 1088.42 802.76 1254.01 796.28
00004509 00000004 943.34 238.68 515.56 730.22 1035.75 524.77 1257.08 518.73 1128.95 692.52 1088.86 806.60 1254.78 801.51
00004510 00000005 939.58 239.09 518.05 728.30 1034.81 525.36 1256.36 515.06 1131.94 693.18 1092.90 810.91 1258.26 802.28
00004511 00000006 939.47 236.57 520.98 737.13 1038.77 522.63 1258.98 509.45 1136.45 689.40 1098.28 808.04 1268.33 796.37
00004512 00000007 938.67 232.28 521.98 744.66 1040.58 521.95 1265.27 508.52 1144.00 691.17 1101.19 808.45 1274.48 796.52
00004513 00000008 936.99 235.37 524.74 739.18 1040.59 525.73 1266.33 511.82 1145.98 693.84 1102.31 809.56 1275.68 797.40
00004514 00000009 936.71 236.68 525.62 737.07 1040.19 525.16 1264.41 510.88 1143.29 691.20 1100.58 806.22 1275.41 793.43
00004515 00000010 941.45 227.98 516.45 736.61 1040.68 518.75 1263.00 505.19 1142.23 685.19 1101.27 799.00 1273.92 786.71
00004516 00000011 943.95 232.14 511.74 726.54 1040.45 511.51 1265.30 500.40 1143.44 679.28 1096.24 789.24 1273.75 779.03
00004517 00000012 940.70 230.53 514.65 726.29 1040.63 510.71 1266.18 500.55 1143.52 678.86 1096.79 786.03 1274.70 776.56
00004518 00000013 939.86 232.91 516.08 724.25 1040.43 510.45 1265.62 500.49 1141.49 678.83 1096.81 783.39 1275.49 773.96
00004519 00000014 938.82 232.72 517.27 726.12 1040.17 506.49 1264.59 499.30 1137.83 674.95 1093.46 777.49 1274.27 770.15
00004520 00000015 937.96 233.12 517.47 724.72 1039.68 504.73 1264.29 498.08 1137.45 672.60 1092.19 774.53 1272.83 767.65
00004521 00000016 939.28 232.74 515.87 726.08 1039.93 504.19 1263.87 497.71 1137.02 673.12 1091.21 772.94 1274.28 766.03
00004522 00000017 940.92 234.09 516.01 723.70 1039.82 503.00 1264.19 498.28 1135.20 673.68 1089.32 770.70 1274.03 765.16
00004523 00000018 939.50 228.40 516.33 727.99 1038.41 500.72 1263.12 496.36 1133.78 672.57 1087.55 767.32 1274.76 761.91
00004524 00000019 938.94 224.35 517.32 733.38 1038.99 499.65 1263.18 496.03 1133.81 670.92 1086.52 767.08 1273.94 762.31
00004525 00000020 938.71 228.83 517.30 728.32 1037.85 500.03 1264.23 496.25 1133.65 673.38 1085.83 767.78 1275.57 762.79
00004526 00000021 939.39 227.25 516.51 730.13 1037.51 499.98 1263.65 496.21 1132.85 673.23 1085.31 768.48 1275.43 763.47
00004527 00000022 939.80 224.75 515.56 733.46 1036.69 500.66 1263.28 496.71 1131.82 672.62 1082.99 768.44 1274.61 763.28
00004528 00000023 939.61 224.00 514.69 734.53 1035.20 501.29 1261.32 496.65 1129.89 671.64 1080.84 767.52 1275.12 761.64
00004529 00000024 937.78 225.03 515.12 735.38 1032.62 504.70 1258.39 498.77 1125.92 672.14 1077.30 769.46 1272.08 762.61
00004530 00000025 937.18 226.09 516.36 740.22 1032.88 504.76 1257.07 498.89 1124.27 672.10 1075.84 769.00 1273.20 761.94
00004531 00000026 931.58 215.14 518.50 740.41 1032.09 502.50 1252.95 493.21 1127.11 662.24 1079.61 769.85 1266.87 760.46
00004532 DELETE   942.17 209.81 508.73 719.69 1034.78 499.37 1250.50 494.40 1118.80 649.41 1073.53 763.72 1246.69 759.42
00004533 DELETE   946.31 196.36 506.72 723.97 1029.62 485.25 1249.14 475.57 1110.33 628.86 1069.10 754.27 1246.53 746.09
00004534 00000029 948.68 184.88 511.98 738.06 1031.87 463.12 1245.48 451.78 1108.52 611.16 1075.76 741.28 1249.86 731.39
00004535 00000030 952.94 180.43 516.79 741.01 1040.94 446.67 1251.09 439.41 1112.30 596.12 1078.77 726.10 1253.54 719.37
00004536 00000031 957.75 172.25 518.29 743.73 1046.65 432.88 1255.97 430.57 1112.80 583.35 1078.37 711.87 1257.95 708.65
00004537 00000032 963.09 157.67 513.13 750.63 1051.13 423.28 1260.72 420.70 1116.47 565.52 1076.65 701.42 1258.76 697.75
00004538 00000033 962.98 148.64 512.91 737.15 1052.73 416.43 1265.64 413.15 1116.59 557.93 1075.46 691.95 1262.00 688.66
00004539 00000034 970.51 153.38 503.95 711.20 1054.64 418.07 1269.63 409.58 1116.26 536.80 1075.22 679.30 1256.98 671.91
00004540 00000035 968.59 144.96 511.98 721.08 1056.88 411.27 1263.23 410.14 1108.65 528.96 1073.51 670.74 1251.30 669.63
00004541 00000036 968.58 132.36 510.52 722.56 1053.86 398.87 1261.28 399.65 1099.76 517.42 1067.22 657.23 1244.16 658.21
00004542 00000037 974.77 121.07 500.71 720.22 1051.30 389.52 1257.64 388.69 1100.19 506.74 1067.13 645.60 1237.88 644.81
00004543 00000038 974.27 122.40 499.15 711.19 1046.20 381.96 1248.94 384.59 1092.43 505.01 1059.73 638.35 1235.03 641.66
00004544 00000039 972.51 124.55 495.14 714.81 1042.00 384.35 1244.94 383.55 1091.39 509.72 1058.02 644.77 1232.35 645.20
00004545 00000040 967.82 124.12 495.43 714.43 1038.39 386.57 1241.72 385.07 1089.89 511.86 1055.90 646.88 1228.20 646.77
00004546 00000041 965.92 129.74 496.21 715.21 1035.18 388.43 1239.57 385.31 1086.06 513.17 1052.37 649.26 1227.34 647.45
00004547 00000042 965.14 130.32 492.50 715.53 1034.79 389.41 1236.63 385.56 1083.48 512.78 1051.14 651.98 1222.72 649.55
00004548 00000043 963.44 133.08 494.79 718.88 1034.34 390.85 1235.20 386.31 1081.92 513.75 1050.81 654.43 1221.12 651.36
00004549 00000044 961.61 133.78 494.30 719.23 1033.04 393.71 1232.95 388.09 1078.88 515.73 1050.50 658.74 1220.12 654.53
00004550 00000045 957.99 136.75 496.73 717.43 1030.82 396.55 1230.72 387.90 1076.41 515.94 1049.86 662.35 1218.06 655.36
00004551 00000046 956.31 142.10 495.56 712.27 1030.34 391.89 1234.86 392.99 1079.36 519.99 1050.08 659.35 1219.92 660.88
00004552 00000047 954.81 136.17 499.36 718.78 1027.83 397.01 1229.43 387.10 1073.95 518.46 1048.21 664.68 1217.24 656.61
00004553 00000048 951.83 140.97 501.08 714.83 1023.27 398.75 1227.56 388.55 1072.13 520.98 1043.79 666.02 1216.60 657.52
00004554 00000049 949.19 152.71 495.28 702.55 1023.07 405.01 1223.46 404.09 1072.53 533.74 1046.61 669.44 1218.40 668.68
00004555 00000050 938.54 154.11 503.23 715.97 1022.67 427.70 1219.89 426.21 1078.08 552.24 1049.76 687.29 1211.26 686.27
00004556 00000051 933.16 162.19 511.28 720.80 1019.44 439.92 1220.91 433.01 1081.69 570.24 1053.24 704.63 1215.97 699.29
00004557 00000052 928.31 173.16 510.91 712.70 1014.35 441.46 1214.32 430.40 1079.13 577.21 1054.69 711.76 1211.32 703.08
00004558 00000053 922.11 170.07 513.59 711.23 1012.53 428.00 1216.49 419.92 1080.62 563.56 1049.73 701.30 1208.90 694.75
00004559 00000054 922.81 160.88 508.20 707.63 1009.95 416.80 1213.34 410.19 1073.16 548.78 1042.14 688.50 1200.34 683.53
00004560 00000055 928.00 145.56 502.77 703.15 1005.41 411.24 1210.55 398.33 1065.65 531.96 1029.69 677.68 1186.83 668.23
00004561 00000056 926.10 149.62 505.84 699.05 1001.04 410.91 1209.40 394.33 1064.22 529.18 1029.64 678.56 1190.83 665.67
00004562 00000057 921.02 154.02 506.08 703.28 995.78 416.21 1207.08 402.67 1059.99 540.07 1029.83 682.13 1205.81 671.09
00004563 00000058 917.88 153.82 508.20 714.65 996.34 419.76 1204.03 407.66 1058.61 545.04 1031.05 685.63 1209.96 674.96
00004564 00000059 915.82 150.52 511.69 723.66 997.59 420.78 1202.44 408.69 1059.48 547.84 1032.14 686.19 1211.69 675.55
00004565 00000060 917.07 152.22 509.81 721.77 998.55 420.43 1201.87 409.43 1058.89 547.73 1032.53 685.64 1211.18 675.83
00004566 00000061 918.26 154.38 508.44 710.96 998.64 422.16 1202.06 410.98 1059.41 547.67 1032.89 682.73 1208.98 672.99
00004567 00000062 925.58 150.78 504.06 703.70 997.05 422.81 1204.62 406.10 1057.91 544.78 1028.93 679.30 1203.41 665.66
00004568 00000063 924.90 154.61 503.43 699.52 995.29 420.66 1205.38 403.82 1058.59 542.23 1027.48 678.89 1202.44 665.13
00004569 00000064 916.22 155.73 507.80 704.23 996.61 417.60 1202.56 404.87 1059.32 543.74 1031.76 679.92 1203.37 669.49
00004570 00000065 916.84 154.31 506.60 702.49 995.94 417.08 1203.44 404.33 1058.53 542.75 1029.33 680.55 1197.97 670.58
00004571 00000066 917.51 152.50 505.84 703.25 996.48 415.49 1204.01 402.95 1058.51 541.55 1029.66 680.92 1195.83 671.33
00004572 00000067 918.98 155.28 506.28 699.54 997.62 414.86 1204.86 403.37 1059.15 542.44 1031.42 680.56 1197.14 671.93
00004573 00000068 923.90 155.01 503.96 697.72 1001.76 416.76 1206.84 405.52 1061.80 541.44 1035.56 680.17 1202.41 671.46
00004574 00000069 933.49 148.04 499.17 704.03 1002.37 418.20 1207.33 402.72 1060.99 541.66 1032.70 680.61 1201.32 668.25
00004575 00000070 936.32 147.20 498.35 701.93 1003.79 417.64 1207.04 403.74 1060.01 544.16 1033.85 678.33 1203.86 667.05
00004576 00000071 932.50 156.36 499.85 692.43 1007.50 416.95 1208.11 409.69 1065.08 546.00 1040.71 677.47 1209.94 671.56
00004577 00000072 936.96 152.51 497.40 699.55 1008.74 415.52 1209.77 410.05 1065.30 546.16 1039.11 677.37 1212.72 672.80
00004578 00000073 937.63 152.62 497.97 705.87 1009.74 415.96 1210.98 410.56 1065.30 545.29 1038.99 677.82 1215.31 673.11
00004579 00000074 936.32 151.57 500.38 712.91 1011.68 414.48 1210.66 410.69 1065.38 545.48 1041.45 678.01 1215.99 674.46
00004580 00000075 936.62 152.78 502.45 724.48 1012.14 413.98 1209.44 411.13 1063.80 546.53 1041.39 681.67 1217.84 678.64
00004581 00000076 934.97 150.12 502.66 725.59 1010.68 414.49 1208.86 411.76 1062.01 546.69 1039.53 680.79 1217.99 677.88
00004582 00000077 934.60 149.89 502.88 722.35 1010.03 414.47 1207.74 411.36 1060.92 545.67 1038.57 678.83 1214.59 675.66
00004583 00000078 934.16 149.30 501.63 715.34 1008.97 416.21 1207.32 412.17 1061.23 545.16 1037.77 676.67 1213.83 672.86
00004584 00000079 931.70 151.02 501.36 712.08 1005.73 417.57 1206.89 412.33 1060.85 545.36 1034.12 677.78 1216.13 672.79
00004585 00000080 931.92 151.55 500.97 711.01 1005.79 417.50 1207.08 412.35 1061.25 545.28 1033.98 678.29 1215.32 673.42
00004586 00000081 933.07 152.89 500.43 709.67 1006.69 417.32 1207.87 413.39 1061.77 545.47 1034.66 678.52 1216.28 674.63
00004587 00000082 933.58 155.10 499.96 707.78 1007.46 418.84 1208.45 415.03 1062.48 547.10 1034.44 678.94 1215.89 675.18
00004588 00000083 933.33 152.47 501.24 710.64 1007.43 418.75 1209.09 415.80 1062.64 547.87 1033.98 678.84 1216.46 675.81
00004589 00000084 933.51 154.39 500.75 709.55 1008.17 418.94 1209.22 416.70 1063.09 549.25 1034.16 679.21 1215.82 676.75
00004590 00000085 932.72 155.12 500.31 706.85 1008.01 420.16 1209.17 418.13 1063.19 550.58 1033.31 678.39 1214.42 676.17
00004591 00000086 932.31 155.12 499.99 703.70 1007.42 420.82 1208.22 418.55 1062.13 550.04 1032.64 678.02 1212.13 675.75
00004592 00000087 931.91 155.35 500.25 702.94 1006.92 420.68 1208.17 418.72 1061.81 550.46 1031.82 677.39 1211.53 675.40
00004593 00000088 931.70 155.23 499.98 702.71 1006.74 420.84 1207.97 418.57 1061.99 550.14 1032.01 677.36 1211.23 675.11
00004594 00000089 931.43 156.49 500.48 701.51 1005.99 421.07 1208.33 418.52 1062.04 550.68 1031.79 677.25 1213.00 674.67
00004595 00000090 930.81 157.12 500.11 698.14 1005.19 421.37 1207.97 418.62 1062.13 551.68 1031.65 676.69 1213.61 673.93
00004596 00000091 930.02 157.54 500.97 700.51 1004.60 421.39 1207.73 418.16 1061.56 551.12 1031.15 677.49 1213.78 674.24
00004597 00000092 929.47 159.53 500.92 697.45 1003.48 420.95 1208.14 417.50 1061.97 551.29 1030.23 676.84 1214.81 673.41
00004598 00000093 928.68 160.49 501.04 695.00 1002.23 422.51 1206.86 418.67 1060.07 551.39 1028.10 676.49 1212.27 672.85
00004599 00000094 926.77 157.08 502.32 697.48 1000.88 423.48 1205.79 418.72 1058.78 551.74 1026.60 676.76 1210.21 672.52
00004600 00000095 926.90 158.14 502.46 693.93 1000.78 423.64 1205.61 419.62 1060.01 554.66 1026.96 676.97 1210.87 673.36
00004601 00000096 925.21 146.67 504.87 714.61 1001.62 427.20 1205.26 422.66 1062.23 559.59 1030.63 682.92 1211.21 678.71
00004602 00000097 922.21 157.73 510.77 716.38 1007.42 437.96 1205.11 435.79 1063.36 564.57 1033.29 692.00 1202.46 690.21
00004603 00000098 923.22 161.80 509.63 715.76 1005.68 446.69 1202.75 442.25 1062.36 576.73 1036.04 701.04 1206.51 697.39
00004604 00000099 919.76 170.94 513.08 717.54 1001.98 449.87 1203.60 448.84 1060.53 591.53 1029.77 709.37 1203.65 708.84
00004605 00000100 917.81 176.52 510.58 716.26 1001.52 448.70 1205.48 448.06 1061.58 597.01 1028.99 714.01 1199.56 714.14
00004606 00000101 916.00 178.43 509.40 706.56 999.52 446.31 1203.93 445.23 1061.09 593.06 1029.01 712.18 1195.25 712.11
00004607 00000102 916.01 166.56 510.91 713.35 996.68 437.04 1202.81 434.81 1058.54 581.70 1028.32 705.90 1201.29 704.30
00004608 00000103 914.46 158.15 509.47 710.28 994.26 428.94 1202.21 424.27 1060.17 570.17 1027.33 698.65 1202.35 694.44
00004609 00000104 916.68 150.08 508.07 725.77 996.34 425.66 1200.19 419.94 1056.35 563.76 1027.83 695.23 1203.80 690.03
00004610 00000105 919.77 146.38 506.79 734.77 999.59 423.31 1202.13 420.14 1055.94 562.04 1028.10 693.49 1206.56 690.12
00004611 00000106 919.85 150.51 507.67 731.44 1000.65 425.33 1202.92 421.56 1058.45 564.35 1029.73 694.41 1206.78 690.67
00004612 00000107 917.53 156.87 510.81 726.67 1001.68 427.66 1202.23 424.80 1059.29 567.40 1031.42 694.03 1207.97 691.11
00004613 00000108 916.91 155.16 512.02 730.92 1001.81 428.84 1201.97 425.29 1058.85 568.09 1031.53 695.22 1207.88 691.79
00004614 00000109 917.08 155.88 511.26 725.60 1000.18 427.77 1200.85 424.38 1057.11 566.40 1029.45 692.64 1206.70 689.20
00004615 00000110 916.41 154.63 511.32 721.95 998.40 426.42 1199.03 422.81 1055.91 565.18 1028.73 690.31 1204.24 686.72
00004616 00000111 917.40 151.91 509.17 719.86 997.10 426.48 1198.65 423.15 1054.92 564.42 1028.07 689.57 1204.34 686.19
00004617 00000112 914.97 153.11 510.67 721.43 995.80 426.89 1197.92 422.97 1053.92 566.02 1027.04 690.04 1204.47 686.17
00004618 00000113 914.94 156.75 511.40 720.32 996.30 427.08 1198.69 424.05 1053.21 566.99 1026.51 690.87 1204.61 687.80
00004619 00000114 915.53 157.81 510.32 719.08 996.93 428.25 1198.65 424.98 1053.40 567.88 1026.29 689.73 1206.65 686.35
00004620 00000115 916.60 158.50 508.02 710.73 995.15 428.79 1199.43 425.53 1054.42 568.74 1025.20 689.19 1206.04 685.94
00004621 00000116 916.92 155.43 507.54 712.70 993.67 427.56 1198.93 423.79 1053.82 568.14 1024.86 688.18 1207.84 684.38
00004622 00000117 917.60 152.98 507.03 716.68 994.14 427.56 1198.45 423.51 1052.67 566.51 1024.49 688.03 1207.66 683.92
00004623 00000118 917.24 151.99 507.29 716.12 994.05 428.06 1198.28 423.32 1053.54 565.68 1023.61 687.62 1206.34 683.07
00004624 00000119 916.71 152.77 509.39 719.88 994.79 427.29 1198.09 423.31 1052.86 565.91 1023.20 686.63 1205.83 682.79
00004625 00000120 914.54 155.33 511.57 719.44 994.47 427.28 1197.99 423.33 1052.78 567.31 1023.26 687.70 1205.47 683.94
00004626 00000121 913.84 155.30 511.24 720.04 993.92 427.93 1196.81 424.45 1051.26 569.16 1021.94 688.36 1205.02 684.99
00004627 00000122 914.14 155.74 510.61 719.23 994.23 428.76 1196.99 424.71 1051.51 569.03 1022.24 690.00 1203.82 686.28
00004628 00000123 913.09 156.56 511.53 718.96 994.57 428.37 1197.29 424.24 1052.39 568.82 1023.22 690.55 1202.54 686.84
00004629 00000124 912.93 156.99 512.37 720.61 995.17 428.79 1197.57 424.48 1052.05 568.25 1022.89 693.57 1198.68 689.95
CROP_BBOX: 604 0 1840 1080
