Video ID: 	w7zT96EQjOE
H: 	1080
W: 	1920
FPS: 	29.97002997002997

FRAME INDEX X0 Y0 W H [Landmarks (5 Points)]

00003909 00000000 683.85 174.12 401.74 534.45 784.67 361.40 949.48 361.36 861.57 430.46 803.14 539.90 948.87 539.72
00003910 00000001 681.79 170.47 402.50 529.79 782.14 363.38 945.99 357.93 859.29 426.89 800.82 538.11 943.92 533.60
00003911 00000002 678.29 168.11 401.94 524.49 775.23 363.99 940.51 350.87 853.87 424.70 800.26 544.62 941.81 533.02
00003912 00000003 677.20 165.85 400.38 528.27 772.29 367.66 938.53 354.65 850.44 430.51 795.82 546.37 939.67 535.65
00003913 00000004 674.53 172.07 398.83 524.52 769.83 371.97 933.79 360.03 847.45 439.55 793.85 548.03 937.10 538.32
00003914 00000005 675.25 172.40 397.09 533.31 769.54 378.76 928.87 368.48 844.20 451.40 792.73 553.42 935.80 544.52
00003915 00000006 673.64 172.99 399.53 543.15 770.72 384.70 927.37 378.81 845.67 464.24 791.48 559.84 934.55 554.23
00003916 00000007 672.59 178.93 399.63 545.68 768.29 392.23 926.82 384.67 842.69 477.13 787.64 570.57 931.36 563.92
00003917 00000008 671.58 191.42 400.55 540.36 769.02 394.61 927.06 386.39 841.94 481.90 787.11 575.93 929.41 568.92
00003918 00000009 670.19 192.08 401.75 541.15 767.90 396.97 927.33 388.52 841.75 484.04 786.05 578.32 928.29 571.28
00003919 00000010 669.69 189.95 402.60 542.65 768.53 396.87 927.28 388.90 841.86 484.38 786.22 578.76 926.86 571.97
00003920 00000011 671.09 182.18 401.57 547.44 766.67 390.37 927.34 384.62 838.27 476.41 788.07 574.99 917.81 571.46
00003921 00000012 671.76 176.40 400.50 557.16 769.42 388.83 926.29 385.18 839.10 471.85 789.57 575.46 914.24 574.01
00003922 00000013 672.51 178.71 402.36 560.65 771.23 387.90 929.29 385.23 840.90 471.25 789.82 576.89 918.81 576.16
00003923 00000014 673.87 182.91 401.37 546.87 770.82 387.57 932.10 384.97 841.73 473.17 789.13 573.77 922.16 572.80
00003924 00000015 675.49 184.28 402.00 544.85 772.46 388.17 936.91 386.83 845.06 474.18 789.34 573.63 926.54 573.59
00003925 00000016 677.18 191.16 401.85 539.65 775.96 388.17 942.61 388.21 851.06 475.80 792.80 575.79 931.63 576.86
00003926 00000017 678.53 194.92 404.78 538.08 782.47 389.74 950.80 392.74 858.82 479.54 800.12 578.35 939.38 581.66
00003927 00000018 679.12 202.19 407.63 534.97 791.27 391.63 962.29 396.66 873.56 486.70 810.94 583.51 950.18 588.22
00003928 DELETE   685.38 199.78 405.61 539.33 803.49 395.78 972.81 399.17 890.36 493.71 827.39 585.39 966.11 588.38
00003929 DELETE   694.66 204.46 403.01 535.22 820.13 399.39 984.31 401.91 909.42 495.58 843.85 586.64 980.76 588.59
00003930 DELETE   707.41 206.14 399.53 536.16 834.27 404.70 997.81 402.85 929.06 497.65 859.80 592.98 995.20 591.62
00003931 00000022 723.68 215.99 391.65 533.22 847.94 407.12 1013.09 402.48 945.56 496.58 871.32 598.95 1004.85 594.30
00003932 00000023 730.80 206.25 387.87 541.46 859.86 405.71 1023.20 404.58 964.05 494.37 883.44 598.98 1014.76 597.41
00003933 00000024 738.58 211.57 383.14 539.24 868.27 405.73 1031.09 406.68 975.11 490.75 889.73 596.20 1028.29 596.12
00003934 00000025 747.42 218.73 378.73 526.90 876.24 408.46 1038.52 409.54 984.12 487.78 894.53 590.39 1040.34 591.38
00003935 00000026 750.57 216.67 379.62 527.17 880.18 407.39 1043.50 407.15 991.79 485.18 898.33 587.36 1046.77 587.36
00003936 00000027 753.26 211.67 378.59 527.34 883.84 405.96 1046.38 404.80 996.05 483.65 902.41 585.32 1049.67 584.73
00003937 00000028 753.64 205.45 380.09 527.71 886.04 404.60 1048.99 401.63 999.79 480.60 908.23 585.49 1052.04 583.34
00003938 00000029 753.91 203.53 381.58 527.29 887.38 403.47 1051.35 399.98 1002.85 478.77 910.39 584.23 1054.92 581.60
00003939 00000030 755.42 205.53 380.44 520.15 889.70 402.43 1053.97 399.06 1005.27 478.57 911.85 581.67 1056.66 579.18
00003940 00000031 754.18 199.54 384.36 523.55 891.14 394.57 1056.30 395.37 999.90 481.88 915.36 578.35 1057.34 580.54
00003941 00000032 755.19 201.13 384.42 526.59 891.69 393.96 1056.50 394.57 1000.90 483.27 917.08 580.11 1058.94 581.90
00003942 00000033 757.01 198.56 382.30 536.32 893.18 392.03 1055.21 393.70 1003.55 483.58 918.54 583.09 1057.67 585.58
00003943 00000034 756.75 201.10 381.76 538.23 894.89 390.83 1054.32 393.29 1004.41 483.35 918.33 583.80 1055.87 586.91
00003944 00000035 755.49 204.43 382.06 542.47 895.38 388.75 1052.58 392.06 1003.66 481.74 917.02 586.35 1052.95 590.12
00003945 00000036 754.80 200.36 383.23 548.11 895.26 387.37 1051.41 390.86 1002.77 480.07 916.02 586.24 1052.16 590.05
00003946 00000037 754.83 201.51 384.87 534.88 892.55 387.20 1054.92 390.06 1002.51 477.16 916.71 580.70 1056.17 584.25
00003947 00000038 755.40 199.65 385.73 520.69 892.31 388.28 1058.59 390.53 1001.57 471.76 916.77 573.06 1057.51 576.19
00003948 00000039 755.14 194.58 387.63 517.53 892.08 388.02 1058.92 389.86 1000.62 471.40 917.38 569.51 1059.60 572.05
00003949 00000040 755.08 196.27 387.80 519.66 891.08 388.29 1056.08 391.46 996.96 471.88 915.81 570.38 1056.15 574.02
00003950 00000041 754.40 194.35 389.13 527.99 890.39 387.82 1053.39 392.52 994.33 472.98 914.56 572.48 1053.96 577.41
00003951 00000042 753.48 193.76 389.06 533.38 891.36 387.57 1050.76 392.74 992.19 474.63 915.30 576.47 1048.80 581.58
00003952 00000043 753.31 191.27 386.76 539.94 892.53 386.45 1048.42 392.25 992.03 475.34 915.29 580.74 1042.83 586.44
00003953 00000044 753.28 192.87 385.89 542.15 890.18 386.36 1047.36 392.11 990.63 475.28 912.95 582.08 1042.83 587.81
00003954 00000045 752.37 189.84 388.71 541.62 888.20 385.97 1046.57 391.33 987.84 474.04 910.51 578.91 1042.96 584.52
00003955 00000046 751.85 189.35 390.56 537.59 886.27 386.27 1047.00 392.02 986.40 471.91 907.91 575.14 1044.41 581.12
00003956 00000047 751.36 189.11 391.64 533.57 886.44 385.20 1047.58 391.14 986.72 468.77 907.74 570.89 1045.70 576.87
00003957 00000048 751.99 189.22 391.55 530.92 886.03 385.48 1048.91 391.23 986.82 467.89 907.95 569.66 1047.57 575.34
00003958 00000049 751.78 187.61 390.87 529.47 886.03 386.17 1048.83 391.17 986.57 465.81 907.56 568.80 1046.42 573.87
00003959 00000050 752.29 187.90 389.57 528.35 885.29 385.68 1047.89 390.73 985.04 464.67 906.24 568.15 1044.88 573.22
00003960 00000051 751.88 186.68 389.31 529.57 883.83 384.63 1045.83 390.02 983.40 461.85 904.85 567.37 1043.41 572.59
00003961 00000052 752.93 188.70 384.02 522.79 878.07 388.56 1042.96 384.66 989.28 457.54 904.52 569.71 1045.14 566.55
00003962 00000053 751.71 187.01 384.22 525.68 877.26 386.90 1041.04 383.85 987.51 456.26 902.04 568.70 1041.83 566.39
00003963 00000054 749.84 189.64 385.16 527.15 877.40 386.46 1040.05 385.00 987.41 455.52 900.73 568.45 1040.81 567.38
00003964 00000055 750.39 189.89 382.15 528.71 879.65 388.83 1037.15 388.38 987.28 453.86 900.07 567.56 1038.31 567.94
00003965 00000056 747.70 178.68 387.79 551.21 881.27 379.95 1033.49 385.69 977.03 453.62 899.78 569.71 1030.43 575.87
00003966 00000057 751.09 186.45 384.19 563.67 879.61 375.06 1039.71 377.05 989.53 448.21 895.30 575.28 1038.10 578.42
00003967 00000058 747.39 177.02 389.33 559.07 876.30 371.40 1032.17 376.04 975.96 448.66 899.13 570.95 1032.78 575.87
00003968 00000059 747.46 181.82 389.76 535.43 872.92 378.11 1034.56 373.61 981.54 448.97 897.71 564.73 1037.34 560.97
00003969 00000060 751.33 180.01 389.10 527.01 873.65 380.62 1035.85 375.68 980.47 449.44 899.12 562.17 1038.43 557.87
00003970 00000061 753.91 179.67 394.84 533.21 878.88 376.88 1041.69 383.77 972.61 452.87 895.73 558.36 1035.03 564.51
00003971 00000062 755.39 178.91 396.71 540.17 881.94 376.27 1042.99 384.63 974.29 452.41 898.07 559.72 1036.55 567.23
00003972 00000063 755.65 180.46 398.47 540.47 882.05 374.21 1044.43 382.44 975.54 451.70 898.99 559.48 1040.07 566.77
00003973 00000064 757.51 181.30 400.42 535.89 883.21 371.11 1047.08 379.89 976.37 448.22 900.17 554.61 1042.81 562.01
00003974 00000065 759.21 180.11 400.41 531.29 882.88 369.31 1048.94 377.42 976.52 446.78 901.60 551.43 1043.17 558.01
00003975 00000066 760.81 179.25 399.02 525.58 882.84 367.72 1049.90 374.28 976.68 446.32 903.06 550.02 1042.27 555.12
00003976 00000067 761.07 180.91 398.72 521.75 882.27 366.68 1050.82 373.25 975.27 446.35 901.77 549.29 1041.01 554.25
00003977 00000068 760.24 178.59 395.73 528.73 878.97 366.50 1045.51 373.67 971.62 446.42 899.99 552.09 1036.39 557.85
00003978 00000069 755.26 182.76 396.37 526.66 870.36 367.30 1036.26 371.84 959.08 445.65 890.77 554.12 1023.78 558.05
00003979 00000070 751.27 183.98 398.08 526.46 863.11 372.08 1027.37 375.51 946.59 447.23 880.76 556.29 1013.40 559.47
00003980 00000071 747.24 180.85 399.11 531.03 857.74 375.61 1019.50 377.66 938.55 447.98 874.12 557.89 1003.78 560.17
00003981 00000072 748.29 179.68 393.31 535.31 854.46 380.17 1013.89 378.44 934.67 456.27 869.57 563.62 1005.01 562.37
00003982 00000073 746.68 178.77 392.23 541.27 852.76 382.01 1011.66 381.36 932.28 460.45 865.97 564.99 1003.55 564.86
00003983 00000074 747.95 179.83 392.62 541.93 854.55 382.16 1014.75 384.79 933.07 464.43 864.82 566.35 1004.17 568.97
00003984 00000075 746.41 177.83 400.85 545.96 856.00 380.47 1019.64 387.62 934.21 461.04 864.77 565.29 1004.85 571.96
00003985 00000076 748.49 173.67 402.73 564.69 860.65 378.16 1025.98 388.81 940.39 463.72 870.64 573.25 1010.99 582.86
00003986 00000077 752.02 175.93 403.36 574.71 867.96 379.66 1033.75 390.22 949.23 471.26 875.31 580.81 1018.42 590.33
00003987 00000078 755.84 184.95 403.92 569.68 873.96 382.68 1041.43 392.53 956.71 481.60 883.23 586.05 1027.02 594.75
00003988 00000079 758.06 199.54 404.94 555.55 877.99 388.14 1048.89 397.69 963.22 489.07 889.70 587.86 1036.79 595.85
00003989 00000080 761.68 202.99 403.65 536.91 883.17 391.88 1052.58 401.46 970.63 494.41 898.62 582.13 1041.68 590.34
00003990 00000081 767.81 197.79 399.45 537.41 889.36 391.60 1054.58 400.25 976.26 491.91 905.67 580.49 1044.86 587.90
00003991 00000082 771.01 197.72 395.99 533.21 892.56 390.16 1056.69 397.51 980.88 489.43 910.16 578.80 1046.48 585.35
00003992 00000083 770.62 195.00 397.71 532.71 892.82 387.13 1057.36 394.11 981.66 484.84 910.47 574.45 1046.70 580.74
00003993 00000084 773.82 180.92 397.80 543.42 893.34 385.99 1056.17 390.61 984.09 476.05 916.21 572.71 1050.51 576.62
00003994 00000085 776.18 173.13 395.59 544.26 896.54 380.73 1054.87 387.46 984.78 465.73 915.96 566.83 1044.51 572.63
00003995 00000086 780.38 167.22 392.21 548.26 900.57 373.10 1057.57 377.07 989.76 451.95 922.80 561.71 1049.82 565.25
00003996 00000087 788.17 171.73 389.87 544.26 910.16 360.32 1067.34 360.72 1003.33 436.32 932.28 558.16 1057.74 559.29
00003997 00000088 797.22 171.69 383.54 548.13 916.41 351.20 1073.70 348.58 1015.32 415.79 938.99 554.49 1070.14 553.58
00003998 00000089 797.59 161.82 384.16 539.13 919.18 346.11 1079.39 341.36 1024.58 403.92 943.60 543.49 1076.26 540.04
00003999 DELETE   791.22 156.19 389.76 524.79 917.11 339.34 1077.43 334.43 1017.69 397.03 944.80 526.38 1077.07 521.67
00004000 DELETE   789.63 142.14 389.11 518.46 906.06 331.46 1071.90 330.49 1000.64 398.95 927.86 509.11 1070.82 509.01
00004001 DELETE   781.49 136.32 394.20 523.17 898.73 321.80 1065.00 328.54 985.09 391.30 914.62 501.49 1056.07 508.03
00004002 00000093 785.52 123.97 391.67 539.91 900.43 313.20 1063.50 322.56 981.09 384.19 908.14 500.42 1047.44 509.70
00004003 00000094 793.63 127.27 390.54 533.96 906.91 308.80 1073.06 320.40 986.48 380.69 908.73 495.49 1052.15 507.03
00004004 00000095 798.99 127.28 391.45 538.43 915.64 308.29 1083.34 320.41 997.28 383.60 915.79 498.38 1063.21 510.31
00004005 00000096 801.95 123.23 390.67 548.25 921.82 311.21 1087.25 324.75 1003.54 388.93 921.62 501.06 1069.76 513.85
00004006 00000097 803.60 136.84 388.37 532.30 921.91 316.28 1088.62 330.62 1001.41 397.61 920.04 502.68 1069.16 516.12
00004007 DELETE   802.38 137.58 387.03 530.56 912.65 323.49 1078.30 333.39 990.75 407.11 915.63 508.03 1061.36 517.69
00004008 DELETE   796.55 134.31 390.43 538.55 903.69 326.19 1069.94 337.42 977.40 411.56 904.38 512.95 1047.80 524.01
00004009 DELETE   793.07 129.20 387.75 549.45 896.12 324.38 1059.78 334.76 962.05 414.51 895.68 518.69 1034.01 529.14
00004010 00000101 790.67 128.47 387.05 544.21 889.15 319.04 1052.35 331.48 951.76 411.25 890.03 512.62 1026.48 524.73
00004011 00000102 787.68 133.01 386.81 522.74 883.36 316.68 1046.69 329.21 944.71 402.20 884.60 502.40 1017.76 514.73
00004012 00000103 789.25 131.08 388.28 511.85 881.75 313.71 1046.59 326.28 940.73 391.61 882.96 491.42 1019.57 503.66
00004013 00000104 790.53 133.15 392.31 506.02 884.37 312.67 1051.99 325.56 944.19 386.87 884.75 487.84 1023.31 499.94
00004014 00000105 794.83 132.02 392.18 510.62 889.82 312.40 1054.72 325.78 948.46 389.71 887.69 486.67 1027.80 499.27
00004015 00000106 800.44 128.15 390.64 522.22 894.49 317.05 1057.03 326.99 954.90 397.84 893.77 493.66 1034.04 503.76
00004016 00000107 803.94 134.22 388.39 533.71 901.79 322.29 1068.47 336.09 964.62 410.45 897.32 508.69 1037.98 522.14
00004017 00000108 804.94 146.80 387.39 538.66 903.00 329.56 1071.28 335.26 963.43 410.81 902.51 525.68 1026.16 532.93
00004018 00000109 805.29 128.07 384.47 543.18 898.14 318.49 1062.76 324.79 957.77 402.17 896.07 515.28 1027.83 522.98
00004019 00000110 797.79 125.94 388.20 522.16 890.85 310.06 1057.62 321.98 950.26 387.20 889.26 496.35 1021.15 508.54
00004020 00000111 788.81 128.80 394.33 515.74 885.12 309.02 1054.07 322.13 946.15 385.82 885.44 491.25 1019.88 503.68
00004021 00000112 785.56 127.62 392.98 525.68 884.21 312.05 1054.53 328.56 947.17 392.45 881.17 497.32 1020.20 512.66
00004022 00000113 787.05 150.68 389.12 527.11 888.62 324.45 1048.09 332.04 948.46 412.57 889.98 513.66 1017.22 520.90
00004023 00000114 784.84 157.27 388.29 529.92 889.12 333.93 1050.18 342.45 956.44 423.31 893.39 523.04 1021.50 531.35
00004024 00000115 781.04 154.96 390.72 534.00 888.79 341.68 1052.62 351.61 962.84 429.96 894.42 527.63 1027.55 536.75
00004025 00000116 779.28 156.87 391.29 533.70 890.86 344.54 1054.77 354.66 969.11 431.25 898.85 529.49 1032.96 538.77
00004026 00000117 779.60 160.84 391.20 527.85 893.85 344.17 1057.82 354.56 974.35 431.39 902.85 528.76 1035.73 538.18
00004027 00000118 780.58 158.49 389.56 524.45 896.14 343.94 1057.96 354.15 977.15 431.97 906.68 526.20 1036.49 535.24
00004028 00000119 780.91 160.18 386.73 520.36 898.30 343.46 1058.34 352.34 981.52 433.32 910.18 526.15 1039.06 534.12
00004029 00000120 779.69 161.98 385.50 516.89 899.30 343.19 1058.76 350.30 984.97 433.66 913.55 527.73 1039.19 534.12
00004030 00000121 777.55 164.31 388.77 516.53 898.80 344.60 1059.03 349.73 986.10 433.53 915.49 529.53 1041.20 534.12
00004031 00000122 774.42 156.73 388.77 518.61 898.11 344.79 1059.94 352.47 990.28 437.08 913.46 528.94 1043.71 535.62
00004032 00000123 763.38 140.62 390.89 538.90 892.16 345.80 1059.17 359.87 987.81 437.75 908.73 530.11 1045.96 541.96
00004033 00000124 758.61 139.16 390.66 543.87 887.29 346.52 1054.79 358.32 983.15 438.18 906.96 538.19 1038.84 548.80
00004034 00000125 757.39 153.51 386.77 534.52 880.34 346.71 1045.74 352.56 976.80 434.59 905.13 540.39 1025.86 545.11
00004035 DELETE   753.46 151.99 381.32 530.75 866.02 352.52 1036.44 349.28 969.40 428.76 894.71 547.77 1028.65 544.52
CROP_BBOX: 427 0 1500 1042
