Video ID: 	wmHIvY5ZfGE
H: 	1080
W: 	1920
FPS: 	23.976023976023978

FRAME INDEX X0 Y0 W H [Landmarks (5 Points)]

00011620 00000000 766.65 230.73 409.36 566.05 855.04 449.66 1040.96 450.97 937.24 553.14 872.94 653.78 1027.42 654.74
00011621 00000001 766.73 230.62 411.93 573.01 855.55 454.37 1042.10 454.24 938.50 561.88 873.93 660.76 1029.66 660.31
00011622 00000002 765.53 232.87 413.01 581.35 856.04 457.80 1043.77 457.19 941.09 566.54 877.08 667.28 1031.93 666.44
00011623 00000003 765.08 234.87 415.32 582.70 857.44 455.44 1045.80 455.69 943.15 565.10 878.50 667.53 1031.02 667.53
00011624 00000004 766.80 232.32 409.94 564.74 857.24 449.42 1042.14 451.08 941.85 554.71 876.95 654.59 1024.49 656.17
00011625 00000005 767.55 221.37 407.82 560.29 857.47 446.36 1039.67 450.30 940.97 545.33 875.56 644.70 1021.89 648.05
00011626 00000006 768.84 204.03 402.24 568.86 861.87 446.62 1032.70 445.28 934.88 536.02 882.32 639.23 1017.10 639.76
00011627 DELETE   766.21 200.96 406.47 565.26 857.22 440.21 1034.44 433.17 932.32 527.13 882.77 638.05 1019.22 633.24
00011628 00000008 765.56 192.62 406.78 566.34 857.25 426.88 1039.63 423.43 936.58 518.04 881.78 626.61 1025.53 624.12
00011629 00000009 764.76 189.00 409.91 564.17 858.12 421.11 1040.12 414.81 941.21 511.36 886.69 622.36 1029.81 617.30
00011630 00000010 766.39 184.92 409.66 569.15 859.12 420.18 1042.06 412.38 943.75 509.33 890.92 623.62 1034.89 617.04
00011631 00000011 766.35 188.81 410.05 570.31 858.70 422.46 1041.01 414.46 943.00 514.83 892.07 627.09 1036.99 620.25
00011632 00000012 765.78 193.53 410.56 569.61 857.76 427.30 1040.52 418.34 942.04 521.18 891.03 629.91 1038.36 622.33
00011633 00000013 764.32 198.83 410.02 575.75 859.11 433.36 1036.14 424.41 941.78 528.92 891.72 636.40 1034.88 629.39
00011634 00000014 765.76 218.58 406.58 573.99 857.95 438.48 1037.43 431.67 949.35 532.78 891.88 646.81 1029.44 641.01
00011635 00000015 765.74 221.22 406.24 584.44 855.30 443.90 1038.16 435.77 948.67 543.78 890.50 657.38 1034.15 650.14
00011636 00000016 764.34 223.95 408.36 582.58 853.87 450.25 1038.39 439.84 948.38 551.81 888.12 661.18 1037.40 651.83
00011637 00000017 763.42 227.66 408.45 571.51 853.60 452.59 1038.35 443.80 947.16 553.76 885.38 658.03 1036.77 650.12
00011638 00000018 762.80 226.36 407.92 571.79 852.87 451.44 1038.24 444.10 946.10 552.53 883.02 657.12 1034.29 650.55
00011639 00000019 764.08 222.19 405.71 569.80 853.50 455.08 1036.54 447.82 944.48 547.45 881.65 651.80 1035.20 645.27
00011640 00000020 761.26 208.67 406.84 575.02 854.32 461.10 1031.56 451.82 936.21 547.15 880.53 642.54 1035.92 635.43
00011641 00000021 758.19 211.65 408.52 566.50 849.19 459.05 1035.06 449.35 935.39 547.98 874.88 641.79 1037.17 634.19
00011642 00000022 755.81 211.19 409.25 564.27 846.20 455.89 1035.51 446.53 934.99 549.57 870.97 641.23 1035.79 633.92
00011643 00000023 755.49 211.90 409.84 563.32 844.17 454.95 1035.56 444.69 933.93 549.14 871.54 644.47 1036.19 636.35
00011644 00000024 754.68 212.52 412.10 573.43 844.84 450.86 1031.00 440.62 933.29 547.77 874.53 647.17 1034.26 639.32
00011645 00000025 756.80 224.43 407.80 575.95 847.17 450.67 1030.43 443.51 939.36 546.43 876.23 654.45 1025.83 648.43
00011646 00000026 756.71 224.22 408.09 579.41 846.33 450.97 1032.21 443.49 939.05 546.56 874.67 657.00 1028.82 650.55
00011647 00000027 756.79 225.09 408.78 580.48 845.55 449.90 1032.98 442.39 938.54 546.22 875.40 658.64 1028.63 652.13
00011648 00000028 757.05 224.65 408.57 582.78 846.15 449.12 1033.53 442.04 939.30 546.45 876.27 659.44 1028.76 653.30
00011649 00000029 758.04 225.01 407.90 585.75 846.97 448.23 1034.59 441.31 940.40 546.23 877.15 660.85 1030.39 654.84
00011650 00000030 757.64 225.02 408.58 592.25 847.32 447.34 1035.38 440.18 941.35 546.38 877.68 663.74 1031.79 657.55
00011651 00000031 757.27 223.82 409.87 596.28 847.33 447.28 1035.03 439.41 941.74 545.76 878.53 665.02 1033.05 658.07
00011652 00000032 756.99 223.03 409.88 598.85 847.27 445.71 1035.36 437.34 941.62 543.89 879.33 665.25 1034.44 657.76
00011653 00000033 756.34 222.17 409.28 598.67 846.18 445.27 1033.22 435.98 940.27 541.37 879.18 664.31 1032.70 656.11
00011654 00000034 756.03 221.73 409.64 596.64 846.01 444.11 1032.99 435.37 939.80 539.71 879.26 662.12 1031.94 654.30
00011655 00000035 756.49 222.76 408.97 592.04 845.68 443.35 1031.94 434.02 939.06 537.00 878.84 659.29 1031.80 650.94
00011656 00000036 757.34 223.52 407.39 585.68 846.32 441.94 1031.32 432.51 939.34 534.69 878.40 655.70 1031.20 647.32
00011657 00000037 757.03 223.23 407.94 583.88 846.56 441.18 1032.24 431.52 940.25 533.44 879.01 654.35 1031.40 645.67
00011658 00000038 757.88 222.95 407.67 582.46 847.00 440.63 1032.87 430.89 941.53 533.62 880.13 653.75 1030.17 644.99
00011659 00000039 757.51 220.88 409.16 578.59 847.42 441.19 1032.57 429.97 942.93 533.11 881.64 649.86 1029.82 640.01
00011660 00000040 757.40 218.70 407.65 571.12 846.90 440.99 1031.69 430.38 941.85 532.93 880.88 647.68 1026.76 638.71
00011661 00000041 757.80 218.64 407.53 572.49 845.97 441.02 1031.96 429.92 941.40 534.12 880.63 650.47 1026.77 641.19
00011662 00000042 757.71 221.82 406.34 578.17 847.30 438.78 1030.77 430.25 942.33 534.47 883.46 653.55 1020.50 646.15
00011663 00000043 758.25 221.23 406.91 572.37 846.97 441.15 1031.12 430.78 941.62 534.89 882.15 650.81 1024.18 642.17
00011664 00000044 751.56 203.85 411.20 576.61 845.81 437.91 1026.37 428.10 933.47 533.50 879.78 642.35 1025.36 635.23
00011665 00000045 750.40 198.58 407.02 575.39 842.26 435.51 1023.06 429.63 926.53 529.73 870.44 636.11 1015.21 632.31
00011666 00000046 748.89 194.69 398.93 580.96 834.60 442.91 1008.23 438.62 908.35 524.79 854.92 636.49 991.48 634.56
00011667 DELETE   740.71 196.33 402.72 591.30 822.55 439.09 998.44 438.00 891.29 525.43 839.02 640.14 966.65 641.04
00011668 00000048 734.22 214.95 406.33 574.73 810.10 437.64 984.66 439.26 869.98 538.46 823.02 645.86 954.25 648.23
00011669 00000049 728.59 215.58 408.75 576.13 803.51 439.84 982.90 443.97 863.73 543.24 814.06 645.94 957.04 649.57
00011670 00000050 723.21 219.24 410.70 568.92 801.00 439.84 982.39 444.72 864.67 544.20 809.38 642.48 957.28 646.55
00011671 00000051 721.45 221.82 410.09 564.94 801.32 438.55 982.22 443.40 865.74 540.60 809.32 639.48 957.61 644.01
00011672 00000052 719.94 222.54 412.97 570.83 801.84 438.26 983.14 440.20 869.48 536.38 812.42 639.06 964.34 640.93
00011673 00000053 719.12 223.79 414.08 573.18 803.02 439.93 985.12 439.78 873.94 536.09 816.01 637.95 976.13 637.66
00011674 00000054 720.24 224.46 413.09 570.02 804.85 442.14 987.47 441.16 879.09 538.25 818.92 635.91 983.82 634.68
00011675 00000055 723.33 225.06 410.70 568.84 808.31 446.29 991.01 444.47 884.31 542.59 822.82 637.43 991.10 635.61
00011676 00000056 728.14 226.81 409.13 564.69 812.11 450.07 994.80 449.66 886.20 550.89 826.21 639.71 996.08 638.56
00011677 00000057 733.78 227.35 408.90 563.18 818.70 452.45 1001.39 452.86 892.57 557.00 831.55 642.13 999.93 641.46
00011678 00000058 737.65 223.06 413.57 571.13 826.27 452.87 1011.00 452.16 902.59 558.21 843.12 649.07 1003.43 646.98
00011679 00000059 749.95 230.68 405.27 566.40 837.09 461.24 1018.15 458.77 918.03 550.86 855.82 651.68 1005.92 650.26
00011680 DELETE   756.54 212.90 407.26 573.04 845.57 455.79 1025.55 454.62 922.77 547.71 863.68 643.82 1017.49 643.72
00011681 00000061 761.26 223.32 406.78 565.34 852.60 449.68 1033.73 450.48 939.24 543.08 870.84 644.38 1022.89 645.01
00011682 00000062 766.80 222.15 406.91 564.37 859.44 439.63 1040.22 440.39 947.33 539.66 882.85 640.56 1023.42 641.36
00011683 00000063 772.03 220.76 409.97 562.25 865.13 435.68 1045.33 434.92 951.02 535.81 887.62 636.58 1027.66 636.12
00011684 00000064 777.87 215.92 409.03 568.24 870.13 433.73 1050.62 430.47 955.61 533.33 894.09 638.63 1034.52 635.95
00011685 00000065 783.07 210.67 410.18 572.18 875.33 431.93 1058.68 427.51 962.06 529.66 898.86 637.30 1043.49 633.54
00011686 00000066 786.88 209.71 411.45 579.24 881.47 430.63 1065.63 427.51 968.77 527.42 901.55 636.34 1052.57 633.63
00011687 00000067 791.05 211.99 409.52 577.97 885.31 431.37 1070.11 428.19 972.75 527.43 903.54 635.44 1061.38 632.62
00011688 00000068 794.42 212.64 408.39 573.59 889.08 432.08 1074.90 431.00 977.10 529.65 906.04 633.20 1065.62 631.75
00011689 00000069 794.61 213.62 409.47 565.35 891.37 435.82 1076.54 435.63 979.31 534.90 908.87 632.94 1064.44 631.88
00011690 00000070 796.12 213.00 409.05 561.18 893.45 438.39 1078.57 437.34 983.03 537.62 910.50 633.00 1068.22 631.17
00011691 00000071 797.55 213.32 407.12 556.27 895.34 435.47 1080.02 435.19 985.76 536.87 914.19 633.35 1063.94 632.27
00011692 00000072 799.56 210.58 406.06 556.12 898.11 431.65 1081.90 432.74 988.81 533.97 916.85 631.45 1060.77 631.71
00011693 00000073 798.58 210.06 405.63 557.15 898.81 428.84 1081.32 431.94 989.30 532.93 917.39 631.28 1055.53 633.42
00011694 00000074 798.48 210.34 406.03 559.23 899.21 429.25 1080.65 431.88 989.24 533.10 917.35 631.77 1054.81 633.56
00011695 00000075 797.86 215.57 406.43 561.17 897.44 431.85 1078.36 433.97 986.05 535.90 915.13 635.53 1052.86 637.04
00011696 00000076 795.13 214.41 411.14 568.91 895.54 435.17 1077.08 436.12 984.30 539.66 912.58 642.34 1052.85 642.76
00011697 00000077 793.28 217.33 413.18 568.24 893.88 438.91 1077.86 437.74 985.20 542.09 913.38 644.34 1058.67 642.59
00011698 00000078 792.39 216.73 412.78 567.61 893.56 441.09 1076.44 437.67 985.75 541.39 914.69 643.25 1062.50 639.67
00011699 00000079 790.49 216.82 411.25 564.22 892.01 442.79 1076.74 438.47 986.29 540.91 914.12 642.39 1066.76 637.89
00011700 00000080 789.44 214.89 410.26 563.27 889.08 443.84 1076.65 437.58 986.25 541.19 912.52 642.47 1070.35 636.14
00011701 00000081 787.61 215.55 412.37 566.27 889.38 444.77 1075.27 438.31 988.27 545.18 914.93 645.90 1066.98 639.39
00011702 00000082 785.88 220.23 413.80 570.11 890.93 446.20 1074.23 438.84 992.53 552.93 920.78 656.35 1062.07 649.26
00011703 00000083 785.29 218.59 411.44 574.31 891.70 450.69 1073.21 441.62 995.57 556.03 924.03 662.01 1064.38 653.57
00011704 00000084 783.76 224.24 408.50 579.06 894.79 459.73 1075.14 448.97 1001.34 561.67 931.43 670.68 1068.08 660.78
00011705 00000085 782.27 226.91 407.25 583.92 900.76 466.37 1078.96 456.26 1010.17 558.79 934.83 669.85 1078.05 660.35
00011706 DELETE   782.25 223.62 406.76 586.92 902.30 468.31 1085.38 460.03 1015.49 553.86 930.45 664.47 1086.85 656.92
00011707 00000087 782.04 220.49 408.62 577.25 907.81 467.46 1088.66 456.52 1024.26 548.09 938.12 655.49 1094.98 645.26
00011708 DELETE   781.91 213.31 408.54 574.51 912.22 465.95 1095.74 451.52 1036.88 547.30 944.10 651.82 1105.47 638.39
00011709 DELETE   784.83 208.15 406.41 574.09 919.70 461.56 1105.31 446.73 1050.41 543.85 951.66 649.74 1113.41 636.15
00011710 DELETE   788.73 209.66 403.77 564.45 924.66 458.54 1112.59 437.32 1061.00 542.20 962.80 648.87 1124.12 630.26
00011711 00000091 794.19 206.83 399.52 560.01 929.06 457.48 1114.31 430.18 1067.50 537.72 972.61 645.50 1130.39 622.06
00011712 00000092 796.45 205.44 399.55 556.84 933.47 455.67 1114.88 425.03 1073.24 532.74 978.99 642.41 1133.47 616.37
00011713 00000093 797.91 207.35 399.57 553.24 936.09 454.32 1117.02 421.59 1078.13 528.75 980.37 639.83 1135.65 612.45
00011714 00000094 796.32 210.95 400.54 550.31 938.70 454.13 1118.62 418.47 1082.64 525.05 984.49 641.40 1135.80 611.45
00011715 00000095 797.51 207.58 400.34 559.43 942.02 454.62 1119.86 418.94 1087.78 521.98 988.31 643.52 1139.04 613.30
00011716 00000096 794.01 208.22 404.22 572.17 946.65 452.84 1116.72 421.47 1089.85 518.43 993.53 645.91 1137.24 618.75
00011717 00000097 793.58 209.40 404.22 582.16 945.72 450.31 1114.69 419.21 1091.85 518.17 992.35 649.20 1137.80 622.68
00011718 00000098 792.77 208.74 405.05 582.84 946.88 448.66 1116.13 418.89 1094.71 517.66 992.58 648.81 1138.51 623.41
00011719 00000099 793.19 208.62 404.93 580.05 947.48 449.02 1117.76 418.46 1096.38 518.04 993.69 649.07 1139.81 622.98
00011720 00000100 791.84 203.61 405.00 581.65 949.52 450.06 1118.26 421.83 1097.59 519.36 995.04 648.00 1138.47 623.70
00011721 00000101 792.49 202.92 403.83 580.33 949.56 451.34 1119.04 423.54 1097.92 520.39 995.31 648.23 1138.80 624.36
00011722 00000102 792.17 203.23 403.80 578.14 949.02 451.29 1119.44 422.89 1097.10 520.99 995.56 648.82 1138.47 624.38
00011723 00000103 792.75 202.84 402.36 572.25 948.34 452.73 1120.54 423.98 1096.10 522.25 996.18 648.63 1138.32 623.78
00011724 00000104 793.51 204.05 400.95 565.19 947.50 454.12 1121.46 423.22 1094.99 523.96 995.05 647.78 1138.01 621.18
00011725 00000105 793.35 204.12 399.62 561.52 947.47 454.46 1122.25 423.70 1094.90 525.15 993.74 646.53 1137.72 620.18
00011726 00000106 794.81 206.00 397.70 556.47 947.84 455.18 1123.29 422.85 1095.75 526.70 992.80 645.61 1138.36 618.21
00011727 00000107 795.53 207.80 397.33 554.78 948.05 456.54 1123.77 422.45 1096.25 527.72 992.66 645.80 1139.13 617.09
00011728 00000108 796.68 207.90 397.08 556.56 948.59 456.78 1124.24 422.41 1096.94 528.41 992.89 646.37 1139.93 617.56
00011729 00000109 795.30 212.16 399.96 559.70 951.58 458.13 1123.52 424.46 1098.34 528.32 996.61 649.36 1139.74 620.86
00011730 00000110 795.96 211.87 398.49 554.21 952.46 458.58 1127.11 422.48 1101.40 530.90 998.48 648.44 1144.05 618.09
00011731 00000111 796.95 210.97 398.24 555.87 954.05 457.75 1126.68 421.65 1102.56 529.35 998.24 647.10 1143.79 616.92
00011732 00000112 796.34 214.56 400.94 565.67 953.02 458.00 1125.85 424.94 1101.66 529.40 996.66 651.93 1143.04 624.05
00011733 00000113 794.82 219.47 402.63 574.52 951.87 455.18 1119.18 426.55 1097.34 526.27 992.98 653.61 1137.72 629.62
00011734 00000114 794.63 218.58 403.43 571.78 952.23 456.39 1121.28 425.71 1099.19 528.22 991.13 652.72 1138.73 627.19
00011735 00000115 795.54 215.52 402.04 565.80 952.08 457.81 1124.68 426.90 1099.27 530.25 991.85 651.19 1140.02 625.29
00011736 00000116 797.37 213.94 398.57 559.28 952.53 457.78 1126.02 426.35 1099.67 531.29 991.42 648.87 1138.73 622.76
00011737 00000117 797.68 213.40 397.25 553.42 953.05 457.72 1127.03 425.37 1099.74 531.68 993.44 647.14 1139.22 620.20
00011738 00000118 797.94 214.50 397.10 549.85 953.54 458.26 1128.60 425.30 1100.30 532.22 994.94 647.17 1141.14 619.64
CROP_BBOX: 510 0 1402 949
