Video ID: 	YfkyKUecUOc
H: 	1080
W: 	1920
FPS: 	25.0

FRAME INDEX X0 Y0 W H [Landmarks (5 Points)]

00001366 00000000 845.22 187.17 301.29 496.88 1050.01 394.62 1121.16 421.32 1150.57 496.00 1024.24 556.73 1086.94 579.17
00001367 00000001 844.23 184.57 306.37 506.75 1052.62 392.89 1122.90 419.67 1152.94 494.05 1031.68 560.20 1092.40 581.96
00001368 00000002 847.96 178.61 301.53 514.62 1050.09 388.49 1123.28 416.68 1153.50 493.11 1019.32 555.52 1085.20 579.96
00001369 00000003 843.36 168.11 300.93 524.84 1044.02 388.87 1119.24 420.04 1146.67 492.69 1016.68 555.20 1081.41 582.15
00001370 00000004 841.78 166.39 295.62 515.78 1037.65 391.41 1115.95 421.51 1137.54 490.28 1014.92 551.48 1080.04 576.93
00001371 DELETE   835.96 163.40 298.32 522.67 1033.22 389.91 1114.21 418.98 1136.95 489.84 1010.81 551.58 1080.01 577.21
00001372 00000006 829.06 156.65 300.31 533.50 1028.08 384.06 1108.11 412.85 1136.85 488.25 1005.57 553.08 1072.43 578.48
00001373 00000007 818.78 155.92 309.65 536.07 1020.58 380.31 1106.93 404.84 1129.71 484.01 996.74 552.05 1071.83 573.74
00001374 DELETE   810.72 156.70 311.72 532.62 1012.11 375.97 1101.32 399.30 1122.81 478.84 988.53 549.23 1067.86 570.13
00001375 00000009 802.84 162.59 316.82 529.60 1002.32 376.24 1095.60 402.09 1106.55 477.77 978.06 546.91 1062.27 569.58
00001376 DELETE   791.79 164.66 321.93 526.24 995.66 378.15 1089.19 397.66 1098.93 478.58 970.29 548.45 1053.87 566.45
00001377 DELETE   781.63 162.54 329.36 526.34 983.80 373.01 1087.98 394.34 1094.39 475.00 959.82 548.10 1054.29 567.75
00001378 00000012 780.19 167.71 318.78 519.27 984.68 363.81 1084.16 392.78 1097.86 473.30 962.09 538.90 1050.18 566.55
00001379 00000013 771.71 167.32 328.12 520.29 974.20 359.39 1084.20 393.25 1085.76 472.05 955.64 538.05 1051.01 569.22
00001380 00000014 767.17 169.65 335.18 514.19 967.69 356.48 1086.40 391.56 1078.02 469.64 950.23 536.56 1052.61 568.05
00001381 00000015 764.42 167.12 342.36 515.68 963.71 354.62 1083.71 391.64 1069.10 468.40 944.21 532.99 1047.79 565.80
00001382 00000016 763.28 166.80 348.97 519.53 963.95 352.66 1083.83 393.68 1064.54 468.47 938.57 531.25 1041.72 567.62
00001383 00000017 766.62 165.16 349.74 522.00 965.40 352.51 1085.93 395.04 1065.08 468.31 937.98 530.67 1041.93 568.13
00001384 00000018 770.57 162.33 348.13 521.86 968.51 352.28 1088.13 395.58 1065.93 467.18 939.10 528.62 1042.19 566.73
00001385 00000019 778.10 163.24 344.78 520.27 973.00 352.95 1090.71 398.03 1069.00 467.41 940.59 526.51 1044.26 566.00
00001386 00000020 788.41 164.46 341.36 519.05 979.13 353.97 1095.72 398.73 1076.67 467.95 946.28 526.36 1049.35 565.93
00001387 00000021 798.85 165.89 338.08 517.88 987.61 357.43 1104.82 406.81 1085.69 470.19 951.30 528.02 1055.35 571.79
00001388 00000022 808.85 170.31 334.46 511.44 994.54 360.72 1114.19 414.08 1090.12 475.08 953.26 528.91 1059.45 576.13
00001389 00000023 815.94 179.51 344.64 506.22 997.69 358.69 1124.38 410.95 1093.04 462.61 963.64 525.69 1072.61 572.42
00001390 00000024 821.83 180.53 337.90 499.41 1009.70 357.70 1126.73 403.94 1102.32 465.32 976.17 525.86 1081.99 566.82
00001391 00000025 825.22 166.73 338.32 504.27 1007.64 358.34 1125.93 410.77 1105.99 462.38 974.73 523.39 1076.78 567.38
00001392 00000026 827.06 165.22 336.51 500.40 1012.15 354.77 1129.78 405.78 1107.23 458.75 978.40 520.43 1078.59 561.83
00001393 00000027 828.13 165.05 337.63 499.76 1015.37 351.98 1133.31 405.85 1110.00 456.83 979.10 517.33 1080.67 561.35
00001394 00000028 830.04 166.27 335.58 497.90 1016.44 351.47 1132.65 405.08 1109.62 455.88 980.16 516.50 1079.78 560.20
00001395 00000029 828.61 164.73 335.03 499.93 1015.61 351.03 1131.23 403.85 1109.93 454.41 979.07 515.67 1078.79 559.11
00001396 00000030 827.12 165.16 334.60 499.69 1013.85 352.00 1128.45 404.98 1107.28 454.02 978.41 515.43 1076.11 558.86
00001397 00000031 824.40 163.31 333.25 501.52 1009.72 351.37 1123.69 403.10 1103.56 452.42 974.62 513.89 1072.22 556.52
00001398 00000032 819.50 163.12 334.98 500.38 1004.19 348.93 1118.12 400.57 1097.46 450.67 968.86 511.56 1066.91 553.98
00001399 00000033 813.16 158.29 333.57 503.53 997.31 347.70 1111.18 397.22 1092.55 450.26 964.62 511.58 1062.94 551.96
00001400 00000034 809.79 157.99 329.84 500.31 992.58 345.76 1104.67 395.97 1087.43 449.50 960.01 509.54 1056.24 550.09
00001401 00000035 801.59 150.56 333.19 510.17 989.88 344.98 1104.22 393.11 1083.94 448.86 957.14 509.94 1053.87 549.35
00001402 00000036 799.20 148.23 332.13 513.01 985.80 342.67 1100.87 388.66 1080.29 447.02 955.25 510.27 1052.62 547.66
00001403 00000037 796.68 145.96 332.87 513.21 983.43 341.79 1099.17 386.91 1077.83 447.31 953.22 510.00 1051.42 546.78
00001404 00000038 793.84 142.75 335.08 514.74 982.44 341.08 1098.00 385.42 1077.04 445.56 954.00 509.35 1051.41 545.30
00001405 00000039 792.73 139.28 335.58 517.13 982.67 340.36 1097.56 383.55 1077.58 444.69 955.34 509.05 1051.98 543.99
00001406 00000040 792.15 139.98 337.04 516.44 983.00 340.14 1097.66 383.21 1077.61 445.11 954.59 508.91 1051.29 543.82
00001407 00000041 792.43 140.24 337.62 516.84 983.81 340.52 1098.06 382.40 1077.53 446.34 953.76 509.26 1050.53 543.32
00001408 00000042 794.24 139.61 336.77 519.20 984.96 340.58 1099.57 384.23 1079.30 446.89 954.52 509.33 1051.45 544.90
00001409 00000043 798.15 152.05 327.65 501.14 992.33 336.77 1101.94 392.61 1085.59 451.17 948.41 502.55 1043.31 550.80
00001410 00000044 802.62 150.08 327.70 501.70 995.22 337.07 1107.68 394.00 1089.51 452.23 952.25 502.81 1049.82 551.77
00001411 00000045 811.47 152.80 326.25 502.00 1002.15 340.73 1112.21 397.65 1094.44 458.38 958.54 507.57 1051.90 556.27
00001412 00000046 815.17 151.78 331.05 511.68 1004.26 349.70 1113.27 396.73 1100.56 453.57 972.50 514.22 1064.26 552.22
00001413 00000047 818.04 155.41 333.51 510.21 1008.86 352.09 1118.02 401.76 1103.36 456.56 975.46 517.35 1065.69 557.18
00001414 00000048 822.37 154.63 331.04 511.12 1010.31 352.67 1119.63 402.08 1104.68 456.52 977.13 518.46 1067.03 558.23
00001415 00000049 822.90 153.31 332.59 513.50 1013.20 351.38 1122.67 402.49 1107.64 455.63 979.76 517.22 1069.61 558.32
00001416 00000050 824.88 150.34 332.81 515.84 1014.83 350.62 1125.41 400.39 1110.32 455.82 982.86 518.36 1073.43 558.15
00001417 00000051 824.57 149.64 335.21 516.69 1016.81 350.31 1126.89 400.52 1111.72 456.25 984.12 518.64 1073.89 558.78
00001418 00000052 826.74 150.90 333.44 513.07 1017.95 350.70 1128.08 401.56 1112.32 456.36 985.11 518.42 1075.09 559.14
00001419 00000053 826.69 151.23 333.44 508.32 1017.05 351.27 1128.84 401.84 1112.95 455.91 987.75 518.78 1078.09 559.06
00001420 00000054 829.98 149.06 328.09 510.87 1021.17 353.28 1129.94 401.86 1118.35 454.74 996.83 519.56 1084.21 558.02
00001421 00000055 836.44 145.85 321.44 513.44 1031.09 358.47 1132.44 396.06 1131.24 457.38 1013.58 525.58 1094.52 555.14
00001422 DELETE   847.73 149.55 319.60 510.05 1050.46 355.35 1142.35 390.48 1156.59 458.06 1029.35 526.36 1106.87 553.75
00001423 DELETE   863.07 147.30 316.02 521.90 1069.15 361.65 1149.57 390.07 1170.56 461.86 1049.78 531.19 1114.99 554.02
00001424 00000058 871.18 149.32 312.63 515.58 1077.21 361.75 1153.59 390.77 1179.16 459.53 1059.06 529.36 1120.04 552.77
00001425 00000059 871.05 151.42 314.58 514.69 1078.74 358.50 1158.15 396.13 1183.14 457.49 1058.49 525.32 1123.71 555.98
00001426 00000060 873.88 145.71 310.72 526.41 1077.63 349.19 1158.97 391.54 1182.38 455.07 1049.18 519.67 1119.84 555.09
00001427 00000061 871.12 145.75 311.02 515.67 1076.22 346.05 1158.07 384.81 1180.16 451.56 1049.91 514.69 1121.74 547.34
00001428 00000062 869.23 150.47 309.42 505.30 1073.87 342.04 1156.74 383.66 1175.71 448.10 1046.84 510.33 1121.67 545.67
00001429 00000063 868.38 154.88 310.87 496.27 1073.03 339.42 1159.50 388.57 1174.59 447.98 1040.66 507.02 1119.45 548.34
00001430 00000064 866.00 157.92 312.63 487.76 1069.80 338.77 1158.45 390.21 1171.00 446.29 1038.53 504.25 1118.03 547.04
00001431 00000065 863.18 156.42 315.96 488.68 1068.22 337.06 1158.34 388.87 1168.24 444.37 1037.27 502.38 1116.44 545.08
00001432 00000066 862.34 154.94 314.91 489.59 1065.59 335.20 1156.72 388.52 1166.47 442.97 1035.16 502.10 1115.05 545.91
00001433 00000067 861.47 152.66 315.72 491.55 1064.27 333.60 1157.10 387.85 1165.48 442.43 1032.56 501.39 1114.36 546.03
00001434 00000068 858.58 149.13 316.51 498.87 1063.40 333.83 1154.06 383.34 1165.68 442.90 1033.78 504.90 1113.88 545.53
00001435 00000069 855.97 142.80 316.73 511.87 1061.03 333.65 1151.26 375.64 1164.92 445.29 1029.19 509.03 1110.85 543.65
00001436 00000070 852.82 143.52 317.40 509.46 1060.40 334.87 1147.08 372.99 1164.58 444.70 1032.65 509.98 1109.77 541.00
00001437 00000071 850.28 144.64 317.88 505.84 1059.88 336.29 1144.16 370.88 1165.55 444.08 1036.36 511.33 1110.87 539.41
00001438 00000072 846.75 140.49 319.27 505.65 1056.89 336.85 1142.79 369.75 1163.70 445.02 1038.12 513.00 1111.77 539.02
00001439 00000073 842.65 139.10 321.47 504.86 1054.24 337.85 1141.00 370.76 1159.81 445.49 1036.78 512.58 1108.98 538.11
00001440 00000074 840.20 138.02 320.45 504.68 1050.09 340.18 1136.84 368.59 1154.12 447.00 1030.98 512.82 1104.90 534.74
00001441 00000075 840.63 132.16 311.93 511.66 1039.14 352.93 1128.92 382.44 1140.70 446.71 1027.02 512.87 1098.68 537.12
00001442 00000076 835.87 135.32 315.80 508.48 1031.87 351.90 1126.28 383.92 1135.14 446.25 1021.35 512.56 1096.01 538.49
00001443 00000077 824.15 134.48 326.36 515.55 1023.43 348.20 1122.60 382.63 1130.34 445.26 1015.59 515.48 1093.59 542.81
00001444 00000078 821.93 138.27 323.71 520.68 1019.03 345.42 1120.34 388.18 1126.62 449.38 997.28 515.74 1081.21 549.59
00001445 00000079 818.54 142.09 323.59 519.64 1013.75 344.58 1116.82 388.69 1119.15 449.44 989.60 516.42 1076.10 551.21
00001446 00000080 817.20 145.47 320.97 519.08 1009.62 346.90 1111.69 389.22 1112.93 449.61 986.49 517.80 1071.31 550.77
00001447 00000081 811.55 146.29 323.31 519.42 1003.24 348.19 1106.97 389.66 1107.33 449.69 984.02 520.23 1067.82 551.93
00001448 00000082 809.01 146.82 321.51 513.33 999.89 349.62 1105.96 393.22 1105.89 452.91 980.51 519.31 1069.23 553.64
00001449 00000083 800.76 142.93 323.95 513.02 993.23 349.34 1103.57 392.86 1099.63 448.99 978.41 516.71 1069.80 551.83
00001450 00000084 795.79 142.98 327.07 518.36 991.02 351.19 1100.60 392.38 1098.26 450.78 984.40 523.09 1070.30 555.50
00001451 00000085 792.37 145.34 329.65 517.80 991.10 353.36 1098.92 392.77 1095.02 455.82 983.67 528.04 1064.99 557.84
00001452 00000086 792.39 147.55 328.50 514.74 990.59 354.23 1097.10 392.44 1093.39 456.60 983.80 527.73 1063.40 556.18
00001453 00000087 793.88 144.56 327.72 520.01 987.83 351.19 1094.56 394.25 1089.83 455.64 985.32 529.15 1063.19 560.93
00001454 00000088 792.75 144.95 329.07 528.45 988.57 351.59 1093.81 394.99 1089.54 455.76 983.08 530.35 1062.06 562.88
00001455 00000089 794.37 145.13 328.70 529.70 989.04 351.43 1094.87 394.97 1089.76 454.92 982.07 529.43 1062.78 562.40
00001456 00000090 795.25 147.73 326.77 520.54 991.44 353.46 1098.72 394.53 1096.11 455.18 984.43 529.16 1065.43 560.16
00001457 00000091 797.69 148.90 324.87 512.29 992.73 353.10 1100.63 393.31 1097.53 453.17 983.95 523.90 1068.54 554.84
00001458 00000092 803.91 147.77 323.15 509.99 996.32 353.24 1105.21 394.79 1101.18 450.97 987.05 520.59 1072.52 553.05
00001459 00000093 807.58 148.97 323.20 509.60 1001.16 353.08 1106.18 392.97 1105.71 453.54 991.83 523.02 1072.78 553.23
00001460 00000094 811.86 146.49 322.88 513.25 1004.03 352.38 1108.88 393.21 1109.16 451.16 994.96 521.21 1076.02 552.50
00001461 00000095 815.64 146.05 324.46 511.52 1008.42 353.83 1114.16 396.03 1113.42 451.43 999.79 521.16 1080.56 553.88
00001462 00000096 819.45 145.49 325.26 510.12 1013.25 352.87 1118.87 397.72 1117.69 453.29 1001.51 520.46 1083.69 555.51
00001463 00000097 823.28 146.95 327.08 506.67 1016.93 350.13 1124.30 396.84 1122.72 452.53 1003.26 517.93 1089.36 555.15
00001464 00000098 827.49 150.28 326.62 501.75 1021.38 351.03 1128.70 401.06 1127.94 453.44 1011.10 518.71 1095.44 558.52
00001465 00000099 833.88 147.95 324.49 504.56 1027.34 352.85 1134.92 401.28 1132.98 453.45 1018.07 519.69 1101.37 558.33
00001466 00000100 841.16 152.30 321.89 500.18 1032.89 351.65 1139.44 396.92 1138.99 456.02 1022.85 522.25 1106.57 557.84
00001467 00000101 842.67 152.67 327.68 510.19 1042.32 353.76 1145.15 397.96 1147.97 458.80 1033.53 527.91 1112.08 562.19
00001468 00000102 852.19 154.02 323.64 509.75 1049.81 355.22 1151.18 397.85 1154.38 459.47 1040.28 530.31 1117.32 563.15
00001469 00000103 859.11 152.62 329.72 512.22 1056.85 354.68 1159.40 400.58 1160.96 465.39 1041.45 529.91 1121.58 565.15
00001470 00000104 870.69 154.64 324.36 512.28 1064.48 359.92 1166.27 399.19 1164.50 468.83 1047.34 532.51 1127.51 562.95
00001471 00000105 881.70 161.34 315.58 504.00 1074.42 359.05 1171.35 403.41 1175.13 467.80 1049.41 529.51 1128.06 564.02
00001472 00000106 884.84 163.25 320.58 501.42 1083.24 361.26 1178.79 404.34 1184.70 469.38 1059.80 531.06 1135.79 564.04
00001473 00000107 895.07 158.60 314.69 506.79 1089.33 362.27 1183.23 409.18 1190.54 472.64 1062.16 531.19 1137.91 568.44
00001474 00000108 898.85 160.04 315.71 509.48 1091.51 366.67 1189.09 413.80 1194.81 474.74 1068.02 535.61 1146.14 573.16
CROP_BBOX: 598 0 1383 805
