Video ID: 	5Zr7xZJxyF0
H: 	1080
W: 	1920
FPS: 	23.976023976023978

FRAME INDEX X0 Y0 W H [Landmarks (5 Points)]

00024818 00000000 471.13 242.05 375.92 524.40 610.40 436.17 777.41 428.90 726.74 549.90 632.80 641.86 766.57 636.56
00024819 DELETE   466.65 238.79 377.18 524.30 599.00 436.53 770.38 427.35 716.30 549.59 622.80 637.07 764.85 629.81
00024820 DELETE   452.17 233.85 381.22 530.43 577.49 439.19 749.48 429.85 693.39 555.02 604.99 638.92 746.44 630.92
00024821 DELETE   439.52 239.45 380.95 532.47 561.19 437.25 731.07 437.28 663.19 556.64 582.34 640.80 717.46 640.74
00024822 00000004 432.38 236.90 384.12 544.25 557.27 437.93 726.12 439.60 655.43 558.04 579.81 647.03 706.91 648.07
00024823 00000005 430.15 242.62 383.78 539.89 562.18 437.89 729.12 436.44 664.27 559.73 587.50 649.29 712.65 647.86
00024824 00000006 430.56 244.27 380.72 539.20 570.06 439.83 733.64 433.97 679.67 558.57 601.09 652.83 722.74 647.54
00024825 00000007 429.74 245.77 376.55 532.01 570.71 441.18 733.84 432.42 683.10 560.13 604.33 652.14 725.53 644.54
00024826 00000008 425.98 248.33 376.66 530.61 566.24 444.69 729.84 435.45 677.06 561.83 598.73 651.06 723.30 643.28
00024827 00000009 420.93 252.86 380.30 527.67 559.40 447.14 728.57 437.66 671.76 565.26 588.85 649.97 723.47 642.59
00024828 00000010 419.94 254.46 378.66 523.89 560.46 448.77 728.73 437.81 674.51 565.26 592.30 650.26 724.74 641.66
00024829 00000011 423.03 254.13 374.92 521.02 565.62 448.94 729.98 434.22 682.33 564.11 601.72 651.12 727.92 639.26
00024830 00000012 425.48 253.97 372.88 516.41 567.64 448.77 732.07 431.44 686.68 562.58 606.69 651.00 731.08 636.95
00024831 00000013 426.20 252.81 372.46 513.40 566.86 449.05 732.00 430.36 686.52 561.32 606.83 650.38 731.69 635.31
00024832 00000014 428.86 252.53 370.73 509.47 566.18 449.85 733.05 430.06 686.40 560.26 605.33 650.18 732.10 634.30
00024833 00000015 435.56 250.68 367.66 508.66 570.62 449.88 738.08 428.26 692.41 558.24 611.55 648.61 738.91 630.86
00024834 00000016 445.72 247.19 366.61 510.67 578.83 452.70 748.66 427.32 703.94 554.24 618.74 646.33 752.68 625.54
00024835 00000017 453.60 242.99 366.90 513.32 584.58 452.17 756.75 427.86 708.79 554.32 624.94 648.12 760.43 628.13
00024836 00000018 458.52 244.40 366.96 512.28 587.47 451.75 759.96 428.18 709.95 555.10 627.33 649.66 761.84 630.29
00024837 00000019 461.71 242.11 366.87 514.19 587.95 451.33 762.04 428.82 710.44 556.57 626.84 650.02 763.39 631.62
00024838 00000020 464.32 241.04 367.54 517.87 589.57 450.25 763.67 429.89 712.04 556.97 626.46 649.95 764.04 633.51
00024839 00000021 465.40 242.87 370.90 522.80 592.85 448.68 762.59 431.24 713.40 555.63 626.17 649.77 761.46 635.93
00024840 00000022 466.77 240.54 369.74 519.52 591.51 447.24 765.61 431.02 712.60 556.94 623.56 647.27 763.17 634.70
00024841 00000023 465.29 239.55 371.34 518.89 588.78 446.05 765.31 430.31 710.73 557.93 620.81 646.31 762.71 634.01
00024842 00000024 466.19 240.13 370.86 518.78 589.64 445.87 765.45 430.30 710.24 557.03 620.93 644.73 763.81 632.59
00024843 00000025 466.53 242.75 374.15 520.82 596.19 442.85 766.91 426.99 716.65 550.63 627.25 643.48 766.20 630.59
00024844 00000026 467.02 242.06 373.73 518.16 600.42 441.88 768.26 423.17 721.66 545.71 631.87 640.21 768.49 625.12
00024845 00000027 466.23 239.54 373.37 514.87 599.98 440.95 768.89 420.27 721.79 543.57 632.31 635.93 771.06 619.06
00024846 00000028 466.88 235.86 369.88 512.81 596.15 439.49 766.07 419.36 717.83 539.76 628.19 630.74 769.55 614.55
00024847 00000029 464.64 232.34 369.56 515.82 591.77 439.00 762.60 418.63 713.22 537.86 625.11 630.80 766.79 614.25
00024848 00000030 463.44 230.79 369.81 518.90 590.88 438.60 760.86 418.64 711.36 536.85 624.93 632.23 764.36 615.88
00024849 00000031 462.49 231.47 369.02 520.67 591.10 439.51 759.63 419.33 710.57 538.48 626.46 635.99 762.22 619.36
00024850 00000032 462.20 231.81 367.45 518.71 589.94 440.59 759.51 420.05 709.86 540.10 625.95 636.86 762.13 620.10
00024851 00000033 461.80 230.80 366.67 517.10 588.65 440.18 758.83 418.72 709.27 539.68 625.82 636.22 761.81 618.75
00024852 00000034 461.52 231.83 366.38 515.34 587.57 440.85 757.98 418.88 708.22 539.89 625.51 636.06 762.07 618.17
00024853 00000035 461.22 233.44 366.27 515.87 587.58 441.50 757.29 420.00 707.75 540.55 625.65 637.37 761.11 619.79
00024854 00000036 461.92 233.58 366.74 516.33 587.95 442.28 759.29 420.40 708.68 542.38 625.91 638.69 762.96 620.77
00024855 00000037 462.57 233.17 367.53 516.66 588.56 442.88 760.94 420.28 710.73 543.72 626.56 639.04 765.24 620.56
00024856 00000038 463.28 234.02 367.55 516.11 589.43 443.13 761.82 420.31 711.90 543.79 626.92 638.76 766.14 620.19
00024857 00000039 463.82 235.20 368.34 518.76 590.62 443.44 761.91 421.73 711.73 544.41 626.45 640.08 765.35 622.42
00024858 00000040 463.21 237.42 369.51 518.12 590.44 444.38 762.42 421.93 712.24 546.18 625.49 640.62 766.11 622.27
00024859 00000041 463.96 238.88 369.48 517.55 590.36 445.36 762.36 423.27 712.07 546.51 624.66 640.60 766.43 622.65
00024860 00000042 463.40 240.32 369.47 517.16 591.07 445.34 761.85 424.19 711.38 546.92 625.17 641.56 764.43 624.39
00024861 00000043 462.47 240.71 369.71 517.82 590.36 446.34 760.58 425.01 710.57 548.65 624.69 642.94 762.67 625.63
00024862 00000044 461.20 242.81 370.58 516.89 589.18 447.55 758.36 426.52 707.97 549.97 623.32 643.93 760.51 626.83
00024863 00000045 460.21 242.68 370.87 517.00 587.21 447.77 756.83 426.20 706.18 550.63 622.26 644.48 759.53 626.81
00024864 00000046 458.94 239.44 369.62 521.31 584.40 450.20 752.66 428.44 703.13 551.23 621.14 646.07 756.39 628.35
00024865 00000047 454.84 236.63 371.58 529.41 579.89 454.02 745.03 432.65 697.80 551.87 617.92 647.47 750.89 629.86
00024866 00000048 450.47 234.36 372.34 528.07 572.11 456.17 740.38 433.78 690.18 555.35 613.21 650.44 744.99 631.83
00024867 00000049 446.79 234.96 373.69 525.01 564.42 456.45 732.69 433.56 679.51 556.80 607.67 650.90 738.39 631.86
00024868 00000050 443.04 236.07 376.70 524.27 560.04 455.49 729.01 434.85 672.70 556.79 602.61 650.43 734.03 633.04
00024869 00000051 441.89 236.09 376.91 523.28 558.06 455.05 727.65 436.86 668.83 557.18 598.76 649.32 730.48 634.03
00024870 00000052 441.25 238.42 378.00 522.66 556.45 454.91 726.14 438.55 665.31 558.80 596.90 650.62 727.65 636.69
00024871 00000053 438.09 241.30 380.74 523.78 552.61 456.25 722.05 441.74 658.15 560.34 592.36 652.26 722.45 639.79
00024872 00000054 432.23 247.80 381.77 521.19 544.14 458.70 713.58 445.99 647.19 562.23 583.51 654.35 712.98 643.59
00024873 00000055 427.80 252.22 381.19 517.89 535.92 459.80 704.29 451.89 633.08 568.08 572.25 655.30 699.41 648.78
00024874 00000056 421.55 259.30 383.72 513.06 528.74 461.43 696.86 457.10 619.12 569.97 558.20 653.07 687.64 649.87
00024875 00000057 414.95 256.16 385.60 514.80 516.83 459.69 689.17 457.77 604.80 572.49 542.71 653.00 674.35 651.71
00024876 00000058 411.06 257.36 384.56 510.45 506.91 459.07 679.46 457.28 592.33 570.35 530.41 651.31 666.06 650.07
00024877 00000059 401.22 252.68 391.27 512.66 496.80 456.17 673.95 456.21 580.06 569.84 524.47 642.86 661.92 643.78
00024878 00000060 397.79 246.64 390.72 521.26 490.95 452.87 667.78 455.93 572.01 566.34 518.15 640.52 656.73 643.95
00024879 00000061 397.68 238.52 390.40 528.31 485.99 453.96 660.18 451.28 571.92 565.45 514.24 645.21 657.19 643.20
00024880 00000062 395.38 235.19 389.90 531.12 482.25 452.25 653.83 448.80 567.68 564.45 510.94 641.05 655.55 637.88
00024881 00000063 393.74 233.84 387.78 530.28 478.76 452.28 649.39 447.16 564.78 561.36 508.14 638.47 654.27 634.09
00024882 00000064 394.17 233.12 386.07 532.46 479.40 450.82 648.03 446.15 564.50 557.67 507.74 635.92 654.17 632.01
00024883 00000065 394.61 230.63 381.81 530.75 478.84 447.85 648.32 444.62 564.29 553.83 504.69 632.77 651.91 630.50
00024884 00000066 394.01 230.34 380.33 528.02 478.24 445.11 648.02 443.91 563.48 551.21 501.19 630.18 648.32 629.99
00024885 00000067 394.17 228.44 378.91 525.48 477.36 443.21 648.50 442.13 562.73 550.22 501.28 631.79 644.97 631.66
00024886 00000068 394.20 227.51 378.51 524.66 477.08 443.05 648.46 441.01 562.90 549.91 502.88 633.21 644.35 632.04
00024887 00000069 395.63 227.28 378.00 523.58 478.06 443.25 648.95 439.99 564.62 549.56 505.99 633.56 645.48 631.13
00024888 00000070 395.24 229.44 379.30 521.78 480.26 443.30 650.41 439.73 568.59 550.22 508.49 632.66 647.78 630.03
00024889 00000071 395.83 229.05 379.76 523.47 482.37 443.55 652.75 440.79 571.65 551.02 508.91 631.19 651.46 629.39
00024890 00000072 396.62 228.95 380.38 525.57 483.72 443.72 654.37 440.58 573.53 550.69 510.33 631.95 653.51 629.77
00024891 00000073 397.13 226.89 381.17 527.06 484.23 442.95 655.16 437.94 574.30 549.13 515.02 636.68 651.78 632.93
00024892 00000074 394.62 230.95 384.57 525.59 488.83 432.89 657.64 436.03 568.68 546.37 518.16 628.88 648.61 631.85
00024893 00000075 394.65 225.55 387.63 533.93 483.03 443.06 651.12 437.60 571.51 551.70 518.01 639.37 650.53 634.44
00024894 00000076 392.38 228.06 391.77 537.03 480.45 449.58 649.88 443.60 567.28 562.84 517.55 648.78 648.04 642.74
00024895 00000077 392.00 235.29 394.29 531.56 480.42 454.94 654.30 448.74 568.27 567.45 517.08 653.80 650.43 648.04
00024896 00000078 392.59 241.39 395.19 528.24 482.32 457.04 657.17 452.03 569.90 569.97 516.84 654.17 653.28 649.40
00024897 00000079 393.15 242.59 394.80 526.79 482.81 457.37 658.44 453.10 569.97 571.81 516.02 653.37 654.19 649.34
00024898 00000080 391.42 245.26 395.80 525.69 481.15 458.60 656.84 455.13 566.98 574.00 511.14 652.04 652.10 648.89
00024899 00000081 389.89 249.70 395.87 520.16 479.24 460.43 653.64 456.94 563.74 576.90 509.48 653.28 647.78 650.16
00024900 00000082 389.10 253.05 395.78 520.49 478.72 461.28 651.79 457.84 561.14 578.46 508.85 655.00 645.24 651.81
00024901 00000083 388.39 257.74 395.58 518.19 478.57 463.35 650.29 458.83 560.56 581.18 509.69 656.90 644.40 652.93
00024902 00000084 389.13 258.49 395.12 518.52 478.94 464.73 650.64 459.78 561.41 581.72 509.93 655.82 648.12 651.52
00024903 00000085 389.57 259.31 394.52 519.35 480.23 464.94 651.15 460.19 562.68 581.24 510.59 654.81 649.91 650.72
00024904 00000086 389.50 259.86 394.64 519.76 480.82 465.46 651.43 459.92 563.52 581.14 512.42 656.93 649.35 652.19
00024905 00000087 388.58 259.07 395.40 521.34 479.50 466.01 648.97 458.93 561.00 579.90 513.24 659.28 646.15 653.12
00024906 00000088 386.53 258.11 396.10 518.91 476.50 465.49 646.30 457.60 558.90 580.61 511.04 658.73 643.70 651.92
00024907 00000089 385.55 257.05 396.02 516.91 474.13 464.40 644.45 457.70 557.06 581.67 506.35 654.88 642.33 649.24
00024908 00000090 385.86 256.67 393.94 514.97 472.25 463.80 642.90 459.00 554.05 583.19 500.75 650.10 642.87 646.57
00024909 00000091 385.62 255.32 394.31 517.06 471.02 463.81 642.35 458.58 552.80 581.38 499.73 649.92 643.41 645.91
00024910 00000092 385.98 256.03 394.81 520.91 472.65 462.18 642.16 456.14 553.17 577.97 504.69 654.48 639.79 649.24
00024911 00000093 386.25 256.80 393.13 522.38 474.49 462.45 640.74 455.97 553.14 577.48 508.52 658.08 635.38 652.32
00024912 00000094 385.75 253.58 391.99 521.43 471.30 462.97 638.86 457.26 549.69 579.57 503.46 656.44 633.79 651.61
00024913 00000095 386.00 253.77 390.47 519.74 469.32 462.75 635.42 458.05 544.77 579.86 499.91 656.01 628.67 652.27
00024914 00000096 386.13 255.77 389.05 518.25 468.12 463.76 630.67 458.82 540.01 578.89 498.38 655.13 624.95 651.30
00024915 00000097 386.26 256.56 386.60 517.05 465.43 462.76 626.37 458.61 534.60 576.53 494.58 653.63 620.63 650.63
00024916 00000098 385.87 251.97 385.14 520.46 461.14 461.85 621.51 458.69 527.58 573.16 489.24 651.83 616.41 649.48
00024917 00000099 386.40 249.36 381.36 520.09 458.78 459.55 620.42 458.99 522.52 572.31 484.73 650.38 613.59 650.24
00024918 00000100 385.94 249.80 381.66 519.52 457.87 458.80 619.46 458.40 520.19 572.48 484.30 651.31 612.27 651.32
00024919 00000101 385.03 250.38 383.57 523.75 457.24 458.51 618.08 456.48 520.32 570.90 484.28 650.81 612.95 649.15
00024920 00000102 384.39 249.34 384.37 528.88 456.89 458.55 616.46 455.08 520.31 570.30 484.82 649.92 615.53 646.87
00024921 00000103 384.54 249.07 383.51 529.04 455.95 458.22 615.36 455.18 518.87 569.95 482.88 648.76 614.95 646.12
00024922 00000104 384.08 249.98 383.16 526.77 455.74 458.90 615.07 456.18 518.99 570.45 481.91 648.21 614.16 645.85
00024923 00000105 382.71 252.30 384.43 524.22 455.29 459.38 615.83 456.25 518.96 570.34 481.19 648.19 614.26 645.47
00024924 00000106 381.61 252.90 385.00 523.53 454.13 460.24 614.46 456.94 517.51 571.03 480.35 648.68 613.26 645.80
00024925 00000107 380.00 254.28 385.97 521.88 452.44 460.70 612.84 457.12 515.53 571.34 479.46 649.53 612.10 646.33
00024926 00000108 379.31 256.63 385.46 518.55 451.38 461.77 611.36 458.57 513.64 571.66 478.33 649.70 610.42 646.87
00024927 00000109 378.30 258.41 385.06 516.73 450.91 462.24 610.34 459.73 511.99 571.88 477.00 649.91 607.77 647.80
00024928 00000110 377.27 259.65 385.33 515.81 450.04 463.56 608.62 460.45 511.22 573.34 476.79 650.52 607.02 647.98
00024929 00000111 376.85 262.19 384.86 512.80 449.71 463.93 608.48 460.96 510.76 574.23 476.50 651.03 606.02 648.77
00024930 00000112 377.11 261.25 383.18 511.34 449.07 463.51 608.30 461.26 509.57 574.31 475.08 650.79 604.83 649.16
00024931 00000113 377.16 258.50 382.28 513.55 448.04 462.57 607.55 460.89 508.00 573.49 473.66 650.45 603.72 649.25
00024932 00000114 377.71 258.05 381.95 514.33 448.57 462.42 608.16 460.83 508.08 572.92 473.54 650.54 603.58 649.46
00024933 00000115 377.66 260.08 383.02 512.68 449.21 462.27 609.42 460.21 509.60 572.73 474.77 649.91 605.82 648.32
00024934 00000116 377.00 267.38 383.63 500.69 452.28 463.13 617.15 464.50 515.41 573.86 476.03 647.07 610.85 648.36
CROP_BBOX: 109 0 1000 914
