Video ID: 	TcDFFj9JlNI
H: 	1080
W: 	1920
FPS: 	29.97002997002997

FRAME INDEX X0 Y0 W H [Landmarks (5 Points)]

00005425 00000000 960.78 96.14 481.95 682.59 1068.13 349.69 1291.87 387.69 1142.23 484.57 1049.67 594.92 1224.27 625.94
00005426 DELETE   957.12 99.39 484.28 685.36 1066.10 358.43 1286.93 395.12 1138.84 489.54 1047.43 602.21 1219.51 632.21
00005427 00000002 957.60 107.85 477.47 682.35 1061.94 367.97 1276.74 397.93 1134.08 494.58 1046.87 609.26 1216.21 636.21
00005428 DELETE   954.27 118.00 479.95 674.72 1059.20 373.84 1274.88 400.55 1132.91 503.31 1049.08 616.60 1212.50 640.91
00005429 00000004 953.72 121.11 479.68 681.16 1059.40 379.27 1274.29 402.73 1133.54 512.35 1051.39 631.05 1205.26 653.03
00005430 00000005 951.10 127.24 479.43 679.23 1058.66 385.41 1273.78 411.34 1133.15 522.74 1049.09 639.16 1199.83 663.37
00005431 00000006 954.07 137.66 475.30 672.13 1053.52 394.16 1271.44 420.84 1128.45 539.05 1047.33 649.05 1199.02 673.86
00005432 00000007 952.52 141.89 474.72 669.30 1047.95 399.97 1266.86 428.40 1125.07 549.26 1042.30 653.45 1195.84 679.71
00005433 00000008 950.02 146.70 476.25 670.31 1044.65 406.89 1265.46 434.44 1123.76 555.36 1041.06 659.59 1196.16 685.02
00005434 00000009 947.97 150.99 477.38 673.70 1043.18 412.33 1263.61 439.60 1121.08 559.46 1041.41 664.63 1197.20 689.55
00005435 00000010 947.67 154.68 477.97 674.87 1042.30 415.22 1264.75 443.35 1120.16 561.58 1039.78 667.58 1198.86 693.26
00005436 00000011 948.62 155.93 476.52 671.41 1040.41 415.65 1266.44 444.75 1120.62 563.37 1036.18 667.10 1203.42 693.47
00005437 00000012 949.35 155.19 476.42 668.76 1039.93 415.07 1267.31 444.47 1121.48 563.82 1034.80 665.30 1204.71 691.92
00005438 00000013 950.58 153.79 475.48 671.77 1040.08 414.28 1268.63 443.53 1121.60 562.67 1034.71 665.30 1207.96 691.78
00005439 00000014 950.12 153.16 476.62 673.97 1040.85 412.52 1269.92 441.87 1122.58 561.23 1034.77 663.37 1210.35 689.99
00005440 00000015 950.43 151.84 476.57 675.80 1044.43 410.73 1269.93 438.85 1123.91 557.32 1039.15 660.85 1209.50 686.42
00005441 00000016 951.52 149.95 476.52 674.79 1046.53 409.22 1271.45 437.23 1126.48 555.13 1040.59 657.05 1211.49 682.53
00005442 00000017 952.46 148.22 475.50 675.09 1048.70 407.17 1273.37 435.73 1128.63 552.79 1040.46 652.78 1214.45 678.72
00005443 00000018 954.30 151.86 473.82 670.19 1054.86 403.07 1276.57 437.04 1130.94 552.31 1042.20 649.66 1216.03 678.10
00005444 00000019 955.18 149.56 473.70 669.85 1055.73 400.36 1277.32 434.81 1131.51 549.75 1042.94 647.23 1216.30 675.98
00005445 00000020 955.96 147.02 473.44 671.02 1055.84 397.90 1277.71 432.82 1131.07 548.31 1043.25 645.22 1216.53 674.27
00005446 00000021 955.66 145.54 474.39 671.21 1056.40 395.84 1278.62 431.86 1131.63 546.43 1043.32 642.74 1217.56 672.53
00005447 00000022 956.20 144.49 474.04 671.11 1056.95 394.44 1278.47 430.42 1131.68 544.93 1043.37 641.03 1217.51 670.75
00005448 00000023 955.87 143.51 474.63 671.87 1057.49 393.46 1278.66 429.45 1132.03 543.61 1043.61 640.22 1217.32 669.93
00005449 00000024 955.82 142.76 475.00 672.33 1058.05 392.61 1279.02 428.60 1132.27 542.42 1043.85 639.67 1217.10 669.40
00005450 00000025 955.69 142.15 475.01 672.48 1058.36 391.96 1278.94 427.96 1132.19 540.90 1043.75 639.05 1216.15 668.77
00005451 00000026 955.81 141.91 475.13 672.20 1058.46 390.54 1278.97 426.74 1132.18 539.88 1043.95 638.22 1215.46 668.17
00005452 00000027 955.99 141.48 474.85 671.56 1059.17 389.50 1279.26 425.84 1132.62 538.15 1044.23 637.28 1215.05 667.34
00005453 00000028 956.38 141.32 475.07 671.59 1059.74 389.41 1279.39 425.20 1133.24 536.28 1044.67 637.00 1214.66 666.68
00005454 00000029 956.55 139.59 474.50 672.69 1060.00 388.52 1279.76 424.41 1134.04 534.54 1044.83 636.46 1214.66 666.29
00005455 00000030 957.31 138.79 473.73 671.96 1060.37 388.72 1280.06 423.98 1134.96 533.38 1045.59 636.17 1214.03 665.53
00005456 00000031 956.91 137.42 475.07 673.40 1060.66 388.60 1280.37 423.27 1135.57 532.16 1046.39 636.06 1213.95 664.93
00005457 00000032 957.71 130.43 475.66 677.57 1056.28 389.23 1277.46 415.95 1132.53 530.38 1047.62 638.15 1215.32 662.59
00005458 00000033 952.38 128.89 478.84 684.44 1057.98 395.86 1273.79 431.57 1131.21 525.86 1047.67 634.82 1215.22 666.12
00005459 00000034 954.56 128.14 475.85 683.84 1058.62 397.13 1272.18 431.02 1131.69 524.73 1049.18 634.68 1214.40 664.56
00005460 00000035 953.67 128.25 477.90 681.31 1057.21 391.82 1273.01 427.24 1130.25 523.58 1048.55 634.02 1212.83 665.15
00005461 00000036 955.66 124.58 477.94 684.93 1057.15 388.14 1273.75 421.66 1129.19 523.45 1051.03 634.29 1214.31 663.80
00005462 00000037 957.47 124.48 476.64 676.94 1056.81 386.47 1275.53 408.80 1132.16 520.22 1050.14 635.03 1212.25 655.88
00005463 00000038 957.20 122.42 478.16 677.96 1056.97 381.39 1275.71 403.30 1131.62 515.66 1050.87 632.83 1212.03 653.37
00005464 00000039 958.34 119.20 476.73 680.31 1057.34 378.01 1275.34 400.47 1131.09 510.98 1050.65 630.51 1210.13 651.63
00005465 00000040 958.27 115.21 476.69 683.92 1056.69 375.01 1273.80 398.31 1127.76 506.55 1049.30 627.04 1210.14 648.82
00005466 00000041 958.78 113.33 475.80 686.72 1060.04 370.67 1274.06 393.59 1129.74 499.97 1053.30 623.65 1209.66 645.08
00005467 00000042 958.56 111.91 476.03 687.63 1060.05 365.66 1274.53 392.46 1128.59 498.33 1050.25 619.90 1210.64 644.57
00005468 00000043 957.53 108.99 476.94 684.60 1059.56 364.27 1274.70 392.39 1128.58 496.55 1049.47 613.49 1216.04 638.86
00005469 00000044 954.00 103.58 482.15 685.47 1053.25 367.07 1275.90 399.14 1126.60 498.37 1043.29 610.73 1219.69 638.62
00005470 00000045 954.03 102.89 480.54 678.28 1052.98 372.41 1273.32 403.31 1127.13 494.26 1040.91 607.08 1221.43 633.81
00005471 DELETE   954.31 101.97 480.11 678.35 1053.04 369.06 1275.72 400.69 1128.33 491.84 1039.43 604.97 1221.82 632.44
00005472 00000047 955.70 101.04 479.94 681.58 1055.49 366.33 1277.95 396.71 1130.35 491.23 1042.98 606.86 1220.95 633.47
00005473 00000048 957.77 105.33 481.01 677.31 1063.14 359.43 1283.70 395.16 1134.74 493.36 1047.63 603.51 1221.76 632.57
00005474 00000049 958.88 104.09 479.96 681.08 1063.97 356.67 1284.27 392.76 1134.52 492.74 1048.07 603.63 1221.87 633.15
00005475 00000050 958.96 103.84 479.81 681.55 1064.31 355.43 1284.28 392.17 1134.56 492.43 1047.66 602.66 1222.57 632.71
00005476 00000051 959.06 104.33 479.71 681.43 1063.89 355.21 1284.47 391.77 1134.38 492.79 1047.12 602.52 1224.54 632.39
00005477 00000052 958.70 105.39 479.88 682.54 1064.03 355.46 1284.31 392.24 1134.25 493.39 1046.40 603.02 1225.23 633.07
00005478 00000053 958.42 106.56 480.07 682.00 1063.79 357.79 1283.74 394.47 1134.05 496.28 1045.76 604.16 1226.09 634.03
00005479 00000054 957.68 109.10 480.71 676.00 1063.65 359.89 1282.71 396.81 1133.63 499.49 1045.90 603.98 1224.69 634.01
00005480 00000055 957.98 111.85 479.79 669.37 1063.89 361.07 1281.28 399.52 1132.26 502.13 1046.17 604.45 1217.78 635.96
00005481 00000056 954.17 109.95 483.53 678.89 1058.76 365.79 1279.54 404.21 1131.54 506.25 1045.99 609.30 1216.46 642.75
00005482 00000057 955.35 110.99 481.35 677.06 1058.69 368.41 1278.86 406.87 1131.35 508.22 1046.85 611.40 1215.20 644.96
00005483 00000058 954.50 111.92 482.27 677.61 1059.34 369.62 1278.62 408.59 1131.75 510.18 1047.99 612.65 1215.02 646.61
00005484 00000059 954.74 112.31 481.67 678.16 1058.68 370.46 1277.92 409.10 1130.57 511.54 1048.11 614.33 1214.95 648.09
00005485 00000060 953.75 114.20 481.77 679.49 1058.93 371.66 1276.93 409.95 1130.22 513.30 1049.37 617.19 1213.66 650.75
00005486 00000061 954.04 117.33 481.62 680.18 1058.04 373.35 1276.03 412.45 1128.09 517.17 1049.19 621.31 1211.81 655.59
00005487 00000062 954.41 120.63 480.39 679.45 1057.78 376.62 1274.66 415.71 1127.95 522.64 1051.08 625.32 1210.81 659.53
00005488 00000063 954.37 124.46 479.99 677.47 1056.65 378.82 1275.69 419.28 1127.87 525.05 1048.36 627.13 1211.68 662.52
00005489 00000064 953.90 126.23 479.77 675.99 1055.37 381.07 1275.47 421.97 1127.74 527.46 1046.87 627.77 1214.39 663.54
00005490 00000065 954.41 127.63 477.94 675.58 1054.96 383.42 1275.12 424.43 1127.26 530.05 1046.03 629.00 1215.93 664.84
00005491 00000066 953.43 131.29 477.77 673.47 1055.15 384.67 1275.67 426.29 1127.68 531.00 1045.58 630.95 1213.58 667.22
00005492 00000067 953.69 131.03 477.45 678.74 1056.51 386.10 1276.24 428.10 1128.47 531.94 1045.68 632.30 1214.98 668.87
00005493 00000068 953.10 130.95 478.00 683.33 1056.47 385.85 1276.68 428.89 1128.28 532.32 1044.05 633.27 1216.37 670.72
00005494 00000069 952.34 130.36 479.17 687.71 1056.93 386.05 1276.95 428.91 1128.71 532.45 1044.27 633.44 1218.92 670.73
00005495 00000070 955.23 132.08 475.87 681.47 1054.40 389.12 1275.87 420.52 1128.09 534.11 1040.04 636.09 1217.02 664.44
00005496 00000071 953.72 136.86 477.18 678.49 1058.74 387.84 1278.05 426.01 1130.86 535.57 1041.33 634.20 1216.45 665.60
00005497 00000072 952.15 130.75 479.38 685.44 1056.82 385.96 1277.44 429.06 1129.15 533.49 1044.45 632.74 1220.50 670.27
00005498 00000073 952.65 131.55 479.06 678.78 1056.48 386.50 1277.65 429.43 1129.25 534.28 1044.67 631.12 1221.89 668.40
00005499 00000074 953.22 132.10 478.68 673.46 1055.91 386.94 1278.02 430.08 1129.45 535.30 1044.19 629.86 1223.10 667.24
00005500 00000075 953.39 132.05 479.15 672.35 1056.10 386.84 1277.98 430.26 1129.48 535.83 1044.48 628.24 1224.52 665.78
00005501 00000076 954.01 132.18 478.57 670.83 1056.28 387.11 1277.96 430.28 1129.77 536.51 1045.34 627.51 1225.67 664.79
00005502 00000077 953.94 132.78 478.63 669.06 1056.41 386.91 1277.96 430.54 1129.85 537.45 1044.86 626.11 1226.41 663.74
00005503 00000078 953.60 132.64 479.05 668.05 1057.01 386.97 1277.86 430.45 1130.40 537.87 1045.62 624.89 1226.46 662.35
00005504 00000079 953.23 132.22 478.52 668.53 1057.40 386.71 1278.05 430.86 1130.81 537.46 1044.95 622.91 1227.21 660.96
00005505 00000080 953.24 132.30 477.96 667.49 1056.91 386.80 1277.24 430.74 1130.42 538.01 1045.15 622.21 1227.52 660.08
00005506 00000081 953.11 132.02 478.64 667.67 1056.82 386.75 1277.31 430.65 1130.17 538.00 1045.39 622.56 1227.21 660.39
00005507 00000082 953.10 132.54 478.73 666.88 1056.69 387.01 1277.30 430.51 1130.41 537.74 1045.54 622.48 1227.30 659.98
00005508 00000083 953.11 131.45 478.74 667.18 1056.45 387.11 1277.04 430.07 1130.45 537.39 1045.70 622.56 1226.80 659.62
00005509 00000084 953.01 131.00 478.80 667.25 1056.45 387.01 1276.93 429.98 1130.31 536.87 1045.65 621.86 1226.82 658.90
00005510 00000085 952.65 130.52 478.61 667.52 1056.24 386.69 1276.46 429.47 1130.17 536.29 1045.61 621.61 1226.17 658.49
00005511 00000086 952.28 130.51 479.00 666.76 1055.87 386.65 1276.36 429.43 1129.90 535.95 1045.30 621.72 1225.48 658.60
00005512 00000087 951.65 130.18 479.54 667.17 1055.61 386.17 1276.27 428.84 1129.82 535.24 1045.06 621.60 1225.18 658.38
00005513 00000088 951.79 128.31 479.53 668.27 1054.88 385.58 1275.62 427.81 1128.71 534.97 1045.03 621.28 1225.65 657.66
00005514 00000089 950.75 128.01 480.81 666.96 1053.74 385.42 1275.28 426.27 1128.24 533.70 1045.35 621.39 1226.61 656.53
00005515 00000090 950.61 126.32 481.07 667.43 1052.67 384.12 1274.62 423.74 1127.32 531.75 1046.22 621.40 1226.85 655.46
00005516 00000091 949.97 124.75 482.83 666.14 1052.13 381.59 1273.17 420.89 1126.14 528.64 1046.78 619.42 1224.16 653.14
00005517 00000092 949.56 121.54 483.98 665.18 1050.55 379.54 1273.03 417.07 1125.03 524.41 1045.89 617.54 1225.04 649.71
00005518 00000093 949.83 116.65 485.01 662.93 1049.94 376.31 1273.21 412.12 1125.37 519.04 1045.87 613.76 1225.47 644.46
00005519 00000094 948.81 109.65 486.46 664.12 1048.12 371.94 1273.50 408.19 1124.75 514.12 1042.28 608.01 1225.15 639.01
00005520 00000095 951.19 103.64 485.62 664.05 1046.59 367.86 1273.27 400.13 1123.73 505.33 1041.54 603.76 1226.22 631.48
00005521 00000096 956.68 102.02 474.37 660.80 1053.93 360.10 1276.53 392.62 1124.95 495.62 1040.14 597.48 1222.58 624.14
00005522 00000097 956.41 98.09 473.20 650.44 1054.54 353.77 1277.89 382.67 1127.65 482.79 1041.77 587.17 1225.12 610.76
00005523 00000098 956.44 92.66 472.53 645.75 1050.90 347.13 1272.46 370.04 1125.32 470.34 1042.64 576.78 1228.45 595.31
00005524 00000099 953.99 89.74 469.50 639.50 1047.27 343.80 1268.97 362.43 1124.37 456.89 1041.52 570.03 1229.99 584.57
00005525 00000100 952.08 80.23 473.71 643.35 1042.97 343.34 1261.52 363.39 1116.04 442.90 1041.90 564.06 1221.80 581.41
00005526 DELETE   950.28 76.11 471.18 642.67 1037.82 336.41 1257.08 351.74 1111.27 438.19 1040.07 560.13 1221.47 573.61
00005527 00000102 946.76 70.31 471.04 645.04 1032.38 328.74 1252.93 336.32 1110.51 436.20 1036.19 555.10 1220.80 561.90
00005528 00000103 938.89 62.47 472.59 641.40 1022.04 323.15 1244.82 329.88 1103.87 434.63 1035.59 552.88 1215.72 559.64
00005529 00000104 930.30 58.79 473.31 640.10 1011.05 319.37 1235.96 322.70 1094.73 433.01 1029.94 550.64 1207.53 554.61
00005530 00000105 925.22 57.60 472.66 638.48 1003.14 317.63 1225.81 316.16 1083.53 427.34 1024.82 548.08 1198.76 548.08
00005531 00000106 916.42 65.33 465.23 634.71 991.26 318.19 1218.00 311.82 1073.53 424.51 1010.01 549.16 1201.72 542.23
00005532 DELETE   910.01 64.79 467.47 638.11 983.07 318.17 1213.45 310.88 1066.94 425.67 1003.65 552.33 1196.38 544.59
CROP_BBOX: 625 0 1705 983
