Video ID: 	mqnLEJuOrOo
H: 	1080
W: 	1920
FPS: 	25.0

FRAME INDEX X0 Y0 W H [Landmarks (5 Points)]

00007610 00000000 845.71 194.73 428.49 626.88 892.43 433.64 1042.46 451.61 894.07 555.70 912.40 645.50 1043.02 659.77
00007611 DELETE   843.83 191.85 428.34 623.21 895.58 429.68 1059.83 446.87 899.59 550.20 906.65 646.21 1042.34 658.67
00007612 00000002 856.57 190.52 420.89 627.32 898.40 418.23 1060.70 443.17 909.52 554.61 911.79 644.68 1038.86 666.02
00007613 00000003 859.35 188.24 420.35 630.60 901.18 416.87 1063.45 440.15 915.05 553.25 913.01 645.45 1040.62 665.56
00007614 00000004 851.97 190.65 432.84 631.87 904.35 422.29 1075.84 438.30 922.07 549.73 918.55 652.30 1053.77 664.93
00007615 00000005 856.73 192.14 433.19 634.44 909.42 423.58 1081.22 438.71 928.31 552.15 925.28 653.46 1063.81 665.47
00007616 00000006 857.78 191.81 433.66 629.31 910.61 422.08 1085.67 437.60 934.11 551.95 925.69 653.84 1066.56 666.33
00007617 00000007 855.13 190.82 437.61 618.72 912.38 418.90 1092.26 437.75 941.16 549.70 923.29 646.24 1066.87 661.57
00007618 00000008 857.33 189.97 436.84 618.70 916.48 416.78 1097.08 436.80 947.51 547.03 925.80 641.99 1071.57 658.42
00007619 00000009 857.30 189.02 438.15 622.28 920.54 417.56 1101.92 435.49 955.99 545.46 930.13 642.47 1076.07 657.62
00007620 00000010 857.23 191.25 440.21 626.25 924.09 419.07 1107.84 435.04 963.93 546.00 934.42 646.06 1081.17 659.92
00007621 00000011 856.05 195.41 443.67 629.25 926.23 425.30 1111.09 435.84 969.18 548.50 943.05 652.46 1089.63 661.71
00007622 00000012 853.05 198.09 445.02 630.66 925.87 430.29 1115.64 438.44 976.27 558.78 947.42 656.55 1104.04 663.25
00007623 00000013 852.24 200.96 445.73 628.40 927.59 433.82 1118.86 439.45 983.02 563.26 952.31 657.71 1111.36 662.08
00007624 00000014 853.90 204.60 440.23 621.48 925.13 439.38 1112.35 436.01 986.79 563.32 954.26 662.48 1114.60 657.65
00007625 00000015 853.07 204.98 440.97 617.86 925.56 438.64 1113.04 434.11 989.26 562.08 955.71 660.41 1116.16 654.61
00007626 00000016 852.99 204.33 440.79 616.96 925.23 437.42 1112.99 432.64 989.45 560.21 955.24 658.96 1115.48 653.09
00007627 00000017 853.35 204.13 440.06 617.07 925.02 436.83 1112.24 431.95 988.91 559.23 954.52 658.16 1114.51 652.23
00007628 00000018 854.86 205.17 438.74 617.11 925.41 435.51 1110.38 430.76 986.67 557.92 955.46 658.56 1110.92 652.60
00007629 00000019 851.36 199.82 446.84 625.61 928.24 430.10 1116.44 433.34 982.07 552.20 954.99 654.02 1105.54 656.85
00007630 00000020 853.73 197.29 444.17 629.02 929.49 429.15 1115.98 434.44 979.52 549.27 952.47 654.26 1100.60 659.04
00007631 00000021 855.91 195.78 443.42 629.81 929.36 426.97 1115.48 433.55 977.17 546.97 949.62 652.30 1097.60 658.36
00007632 00000022 858.12 195.85 442.09 629.26 930.13 425.65 1114.89 433.29 975.05 545.11 948.74 650.18 1096.50 657.24
00007633 00000023 860.23 196.52 440.79 628.39 930.05 424.52 1113.23 432.41 972.39 544.82 949.00 650.35 1095.22 657.62
00007634 00000024 859.76 197.64 441.97 626.58 928.89 424.58 1112.59 432.75 970.67 544.26 947.51 650.38 1093.15 657.76
00007635 00000025 859.87 192.66 442.70 625.74 927.68 421.31 1111.90 433.50 968.31 544.54 941.47 644.63 1090.67 655.38
00007636 00000026 859.59 192.68 443.10 617.66 927.00 419.21 1112.02 433.03 969.28 544.41 939.06 639.43 1089.98 651.51
00007637 00000027 860.95 191.22 441.07 617.20 926.54 416.34 1112.23 432.52 968.03 542.01 935.69 636.39 1088.41 650.47
00007638 00000028 861.64 189.67 439.62 621.05 926.31 413.96 1111.29 432.62 964.36 537.99 931.81 634.58 1086.05 650.73
00007639 00000029 863.06 188.95 437.72 622.57 926.66 412.41 1108.29 434.19 958.97 536.55 929.40 633.14 1081.73 651.91
00007640 00000030 863.96 188.59 436.48 621.68 925.75 411.98 1105.02 435.16 954.30 537.42 928.52 632.55 1077.70 652.39
00007641 00000031 865.04 188.41 434.19 617.63 923.59 412.83 1100.89 438.22 949.84 540.38 925.87 634.88 1067.38 656.58
00007642 00000032 867.34 189.40 431.38 622.60 922.06 414.74 1095.87 438.33 943.31 538.45 924.79 642.62 1057.34 663.02
00007643 00000033 869.16 188.25 428.54 629.92 920.42 415.45 1091.97 439.68 937.27 539.89 924.52 648.49 1052.46 669.33
00007644 00000034 870.34 192.21 425.17 624.85 918.43 415.97 1087.25 441.11 931.53 542.89 923.47 649.52 1048.54 670.79
00007645 00000035 867.99 194.68 425.80 624.10 916.50 417.61 1082.76 442.48 926.44 544.15 921.07 651.07 1044.56 671.83
00007646 00000036 870.07 192.08 423.45 625.89 918.61 418.47 1079.48 444.42 922.92 543.85 923.32 648.91 1043.57 670.29
00007647 00000037 869.61 189.10 423.88 624.09 917.95 414.52 1079.01 443.62 921.06 542.03 921.48 642.97 1045.05 666.55
00007648 00000038 867.27 189.16 426.63 620.41 913.29 409.33 1076.74 439.24 914.43 538.01 916.01 636.35 1046.79 660.44
00007649 00000039 867.42 188.03 425.86 617.79 912.51 405.59 1075.37 437.37 911.58 533.56 912.15 629.89 1044.72 655.57
00007650 00000040 865.65 184.74 425.30 617.24 911.68 400.37 1072.59 435.58 905.68 529.92 909.42 624.35 1040.34 652.60
00007651 00000041 860.04 184.39 427.38 612.47 906.87 397.42 1069.05 435.32 896.68 530.54 903.91 622.44 1034.15 652.41
00007652 00000042 868.00 182.65 420.91 610.36 902.25 396.54 1056.85 434.10 892.60 533.70 901.05 621.66 1023.79 652.74
00007653 00000043 868.20 183.60 418.00 609.56 901.58 397.21 1056.07 434.34 891.64 534.41 899.59 623.49 1021.02 654.30
00007654 00000044 856.95 186.68 426.13 609.76 897.85 407.96 1060.69 431.72 893.27 532.14 896.67 636.52 1027.72 654.55
00007655 00000045 856.50 186.15 425.65 609.54 897.66 407.91 1060.25 432.14 893.21 532.78 896.24 636.41 1027.24 654.83
00007656 00000046 867.34 181.58 418.28 609.92 900.81 397.67 1053.85 435.22 890.16 534.55 898.15 623.78 1017.00 654.98
00007657 00000047 867.70 181.59 419.34 609.96 901.15 396.20 1053.62 431.62 891.38 531.88 898.82 623.83 1016.07 653.31
00007658 00000048 868.50 180.61 419.63 622.37 903.17 397.32 1051.61 428.11 893.80 528.34 901.55 628.13 1015.38 653.99
00007659 00000049 867.44 180.96 419.50 626.52 903.74 396.86 1050.85 428.12 892.80 528.01 903.88 628.18 1018.60 654.59
00007660 00000050 865.79 182.56 420.09 627.48 903.11 398.35 1050.48 429.98 890.86 528.38 902.55 629.06 1018.73 655.73
00007661 00000051 865.10 181.17 419.56 628.51 903.06 398.52 1049.36 432.05 890.78 530.44 901.07 630.14 1014.87 658.27
00007662 00000052 863.94 180.35 417.90 628.63 903.68 400.39 1046.27 433.88 891.10 532.39 900.67 633.24 1007.41 661.39
00007663 00000053 860.66 177.81 419.57 633.15 901.80 401.18 1042.10 436.64 888.17 535.50 898.40 636.49 1001.69 666.14
00007664 00000054 853.09 181.52 422.44 630.34 895.11 402.76 1036.50 438.33 881.94 537.64 892.78 640.45 995.05 670.07
00007665 00000055 844.97 179.27 422.55 628.57 887.51 402.34 1028.21 438.69 873.07 538.20 885.32 638.66 985.75 669.29
00007666 00000056 837.53 176.07 423.55 628.67 884.83 401.84 1030.95 432.23 856.66 528.78 876.29 636.35 982.12 660.63
00007667 00000057 833.97 179.08 425.07 621.49 879.92 399.76 1026.25 427.34 850.93 524.44 868.99 633.82 977.60 656.21
00007668 00000058 830.84 179.21 423.27 621.21 877.87 398.12 1021.72 424.53 844.43 520.42 865.89 630.95 976.81 651.56
00007669 00000059 830.33 177.92 423.42 618.83 876.48 396.78 1018.54 423.65 841.16 521.59 865.65 630.91 974.61 651.75
00007670 00000060 828.45 179.49 423.59 620.81 875.96 400.07 1014.93 424.51 838.16 524.36 867.08 634.17 974.74 652.59
00007671 00000061 828.49 179.68 425.69 627.11 877.12 404.99 1011.23 426.73 835.76 528.60 871.20 638.74 977.26 654.35
00007672 00000062 826.75 180.16 426.23 636.65 873.96 407.73 1007.37 429.24 832.77 536.04 872.67 645.99 979.67 660.88
00007673 00000063 823.33 179.61 427.88 641.85 871.98 406.76 1003.98 429.35 830.44 536.03 874.91 644.91 982.72 659.97
00007674 00000064 817.92 183.89 433.04 633.93 869.05 410.45 1000.57 440.10 835.74 533.43 875.99 638.24 985.38 661.77
00007675 00000065 818.38 181.24 424.68 626.91 868.21 396.84 1002.43 424.17 825.97 524.17 866.25 629.62 981.47 647.99
00007676 00000066 818.20 178.77 424.00 617.78 870.18 393.00 1001.45 421.21 823.81 517.28 861.08 621.95 974.07 641.06
00007677 00000067 818.15 178.52 423.52 613.81 870.53 391.21 1001.95 421.34 824.53 516.22 859.21 618.91 971.51 639.97
00007678 00000068 819.21 182.08 422.75 612.06 870.78 393.74 1003.35 424.32 826.71 520.16 860.36 620.90 973.38 642.55
00007679 00000069 818.48 180.00 422.71 616.52 868.53 395.50 1003.00 426.86 827.44 524.18 861.57 623.10 975.45 645.39
00007680 00000070 819.86 178.82 423.50 622.60 868.06 398.76 1001.20 428.81 827.10 528.14 865.41 627.48 978.27 648.46
00007681 00000071 819.83 178.27 423.54 624.93 867.21 401.49 1000.84 429.25 827.24 529.99 865.91 630.47 979.05 649.62
00007682 00000072 819.54 178.45 423.92 625.91 866.26 401.64 1000.36 429.60 826.63 530.40 866.88 630.78 980.87 649.94
00007683 00000073 819.83 177.77 424.66 627.69 866.34 401.36 1000.73 428.99 826.93 529.99 868.35 630.20 983.53 648.94
00007684 00000074 819.96 179.19 425.11 627.50 866.55 400.96 1001.88 427.55 827.79 529.04 869.80 630.18 986.16 648.08
00007685 00000075 818.92 184.87 432.33 622.17 867.03 404.64 1002.75 437.57 836.21 527.46 871.40 625.32 987.06 651.76
00007686 00000076 819.19 183.18 433.27 627.07 867.19 404.84 1003.46 436.62 835.95 525.94 870.56 625.98 987.29 651.67
00007687 00000077 819.26 182.91 432.89 627.32 867.27 404.84 1003.32 436.37 835.87 525.86 870.54 625.83 987.42 651.33
00007688 00000078 819.04 182.45 433.40 628.78 866.85 404.13 1002.22 435.77 834.01 524.62 869.97 625.08 987.04 650.64
00007689 00000079 818.25 182.35 434.32 628.97 867.01 405.06 1001.62 437.00 834.01 524.70 868.93 625.43 985.23 651.26
00007690 00000080 818.99 181.24 427.18 626.66 867.54 401.43 1002.26 426.16 827.76 526.09 868.70 629.78 984.79 646.30
00007691 00000081 819.79 179.68 425.52 625.15 866.33 401.76 1002.00 427.27 828.33 527.55 867.89 629.23 984.33 646.52
00007692 00000082 819.97 180.55 424.39 623.30 866.55 401.99 1001.94 427.35 828.39 527.35 868.01 628.83 984.40 645.98
00007693 00000083 819.61 178.99 425.14 625.52 866.13 402.20 1001.98 426.92 828.46 525.86 867.62 628.79 984.53 645.39
00007694 00000084 817.51 180.92 434.38 630.05 865.94 406.56 1002.17 438.37 833.83 525.59 868.05 625.91 984.88 651.72
00007695 00000085 819.28 177.88 436.61 645.68 878.00 408.59 1001.29 431.93 841.26 532.50 882.33 637.11 995.60 652.57
00007696 00000086 819.80 179.03 435.27 644.39 880.06 412.99 997.83 435.45 840.67 538.55 888.14 641.41 996.45 655.96
00007697 00000087 817.40 185.59 432.11 629.40 865.80 416.35 997.98 446.56 835.64 541.86 878.60 638.20 991.36 661.86
00007698 00000088 813.31 186.08 432.28 623.69 864.02 415.50 997.71 448.44 834.16 542.05 870.88 636.08 980.56 662.11
00007699 00000089 816.29 182.63 419.55 620.30 866.03 408.09 994.49 437.95 827.07 534.69 860.83 632.80 967.89 654.47
00007700 00000090 808.80 176.54 432.26 624.24 864.51 409.73 992.78 444.88 825.54 532.93 858.38 631.02 958.69 658.93
00007701 00000091 809.99 177.68 430.91 625.51 864.92 409.06 992.56 443.48 825.62 531.83 858.86 631.37 959.10 658.92
00007702 00000092 815.32 180.25 422.66 625.46 869.06 404.47 993.27 432.50 822.41 531.13 860.65 633.23 965.70 652.90
00007703 00000093 815.80 178.86 422.50 626.96 866.18 404.53 994.64 432.12 823.05 531.54 861.17 633.11 969.88 652.56
00007704 00000094 816.52 179.41 422.07 626.96 865.69 404.31 994.48 431.97 823.20 531.80 862.66 632.38 972.60 651.73
00007705 00000095 813.25 179.47 431.80 632.04 865.68 410.05 994.81 442.28 828.60 532.74 867.57 630.74 975.73 656.26
00007706 00000096 816.61 177.75 423.41 632.50 866.39 404.59 994.50 430.85 823.51 533.19 866.81 634.44 976.72 652.29
00007707 00000097 815.77 177.83 423.32 628.71 866.50 404.00 994.13 431.97 822.92 533.05 864.25 632.97 973.19 652.40
00007708 00000098 814.85 177.53 422.89 627.52 866.44 403.61 993.95 431.51 821.90 531.79 861.29 632.81 969.02 652.34
00007709 00000099 815.27 179.59 422.78 626.55 866.64 403.88 994.16 430.01 822.01 531.66 862.40 633.71 970.82 651.75
00007710 00000100 811.81 178.88 432.58 628.58 864.82 409.15 994.09 439.43 828.12 531.42 865.91 630.82 971.74 655.01
00007711 00000101 811.81 182.39 431.78 623.47 864.75 407.72 994.88 437.99 828.65 529.86 865.43 629.40 971.37 653.71
00007712 00000102 811.61 179.88 432.35 624.20 863.75 407.80 995.33 438.27 828.44 529.71 864.85 628.52 972.05 653.05
00007713 00000103 810.92 179.55 431.86 622.66 863.71 407.57 994.58 438.53 827.70 529.35 863.67 628.13 970.04 653.05
00007714 00000104 810.24 179.27 431.84 621.71 863.65 407.51 993.25 439.38 826.36 530.28 861.07 629.27 964.22 654.95
00007715 00000105 813.86 181.34 422.94 619.04 868.81 403.88 993.37 429.51 819.67 530.40 858.89 634.02 961.84 651.82
00007716 00000106 810.14 181.24 431.89 622.48 863.35 409.78 991.74 441.11 823.96 532.92 860.05 633.43 961.54 658.54
00007717 00000107 810.99 180.58 431.55 630.63 864.46 411.49 991.16 440.87 824.79 534.43 862.87 638.50 962.27 662.08
00007718 00000108 811.20 180.76 433.29 638.67 867.61 412.49 991.67 441.62 826.91 533.54 869.11 639.21 968.45 662.41
00007719 00000109 818.42 176.43 430.08 645.15 875.01 412.88 991.26 436.78 836.28 539.07 881.15 643.84 978.38 660.26
00007720 00000110 811.62 181.79 431.01 637.85 866.31 413.63 992.26 443.31 828.53 536.45 871.68 638.86 975.80 662.09
00007721 00000111 810.79 181.07 429.14 632.61 865.91 413.84 992.46 444.97 829.02 537.38 868.84 636.66 971.12 661.06
00007722 00000112 809.89 186.06 428.46 625.08 862.09 415.23 991.31 446.73 827.83 541.89 864.98 639.50 965.89 664.11
00007723 00000113 806.88 185.12 431.46 627.79 858.66 417.02 989.77 446.75 826.01 545.40 864.61 642.32 965.72 665.36
00007724 00000114 806.19 184.93 431.71 631.39 858.48 416.29 986.69 444.54 823.80 545.50 865.07 643.83 963.89 665.55
00007725 00000115 804.65 185.31 432.85 632.15 857.51 415.12 985.71 442.56 823.25 544.00 864.90 644.08 963.48 665.27
00007726 00000116 812.42 184.54 429.18 634.44 864.68 413.88 980.99 439.69 829.70 545.71 873.03 644.87 963.12 664.04
00007727 00000117 811.72 182.18 428.26 639.35 865.41 413.49 981.28 441.33 829.23 546.66 873.27 645.34 962.87 666.40
00007728 00000118 808.98 184.01 428.16 638.65 865.67 418.29 978.15 448.64 826.77 548.89 875.05 644.18 966.01 666.53
00007729 00000119 802.69 187.83 431.00 630.14 857.12 421.50 985.19 451.16 820.29 547.36 866.86 641.34 967.79 663.43
00007730 00000120 803.68 183.11 431.87 633.76 858.21 419.22 988.34 450.51 822.62 546.28 865.11 642.49 966.87 666.49
00007731 00000121 806.10 185.99 432.44 634.86 860.19 415.91 987.77 444.97 824.56 546.26 866.51 647.68 963.71 670.30
00007732 00000122 806.07 186.88 433.27 635.85 859.85 416.92 987.65 443.90 824.21 545.83 867.58 649.00 966.97 669.78
00007733 00000123 805.33 186.50 432.67 633.49 858.36 415.12 986.40 443.18 821.76 545.72 866.13 646.14 967.30 667.56
00007734 00000124 805.53 187.20 432.02 630.36 858.53 414.86 986.21 442.99 821.87 544.74 864.92 645.50 964.28 667.12
00007735 00000125 805.77 186.84 431.24 630.22 858.09 416.32 987.64 444.20 824.39 546.07 865.50 646.28 965.10 667.82
00007736 00000126 805.84 187.16 430.79 630.55 857.28 417.36 987.33 445.35 824.93 547.81 866.19 646.68 965.60 668.30
00007737 00000127 806.04 189.44 431.15 632.10 857.26 419.06 986.57 446.03 824.27 549.63 867.98 649.56 966.81 670.08
00007738 00000128 806.24 190.84 431.33 633.93 857.03 420.98 986.73 446.30 824.44 550.94 869.93 650.95 970.55 670.01
00007739 00000129 804.38 187.43 433.93 640.59 854.33 423.66 985.51 445.64 823.26 552.96 870.15 654.12 972.81 670.46
00007740 00000130 803.35 190.71 434.19 641.04 851.80 429.09 982.54 446.75 820.67 557.16 871.62 660.52 974.10 672.73
00007741 00000131 802.15 192.77 433.92 639.84 850.78 433.17 981.01 448.48 817.54 559.18 871.73 664.25 974.25 674.20
00007742 00000132 801.98 197.58 432.14 635.71 849.20 434.70 979.25 447.79 816.11 561.26 871.65 667.78 973.15 675.71
00007743 00000133 801.82 199.59 430.59 633.00 847.91 436.46 979.28 448.39 816.12 562.43 870.50 668.99 972.81 675.98
00007744 00000134 800.76 199.75 430.59 632.64 848.10 436.13 978.42 448.75 815.30 562.19 870.19 668.28 972.13 675.72
00007745 00000135 799.07 197.89 429.14 633.37 847.02 436.58 975.58 448.46 813.12 561.00 869.55 667.62 970.68 674.21
00007746 00000136 796.98 201.54 429.64 628.79 843.44 436.36 972.03 446.61 809.21 561.36 868.71 669.03 968.62 673.96
00007747 00000137 793.33 195.66 430.24 634.50 840.15 437.29 969.70 446.67 805.74 560.75 866.61 668.80 967.63 672.99
00007748 00000138 792.63 195.67 429.02 635.05 840.18 437.57 968.64 447.40 802.89 561.23 865.91 669.03 966.75 673.60
00007749 00000139 790.71 197.72 428.07 632.60 838.16 438.21 966.30 447.41 801.85 561.09 862.85 669.64 962.19 674.06
00007750 00000140 789.58 197.21 427.28 631.45 837.34 437.65 965.50 447.92 801.05 560.43 859.41 668.40 957.86 673.85
00007751 00000141 787.52 195.40 428.10 631.77 836.90 437.51 964.00 448.24 800.49 557.41 855.04 666.70 951.09 672.74
00007752 00000142 786.18 192.66 428.34 633.81 835.00 436.35 963.01 447.17 799.27 555.49 852.53 665.18 949.58 671.45
00007753 00000143 785.52 192.56 428.83 632.04 833.84 436.05 963.77 447.45 799.76 554.28 850.65 663.57 948.80 670.53
00007754 00000144 786.02 191.65 428.95 631.80 834.61 436.34 964.38 448.01 800.19 553.41 850.03 662.49 948.06 669.74
00007755 00000145 786.95 190.54 430.00 632.38 836.21 435.28 965.04 448.06 801.85 552.83 849.66 661.87 945.81 670.23
00007756 00000146 788.56 189.65 429.34 633.14 837.64 434.49 965.38 447.37 803.61 552.28 850.56 661.62 944.86 670.20
00007757 00000147 789.58 186.94 429.69 635.01 839.79 432.88 967.06 447.86 805.78 551.25 850.96 660.05 944.63 670.42
00007758 00000148 791.21 186.27 431.12 635.81 841.62 431.37 969.56 447.89 808.11 550.74 851.83 658.21 946.38 669.91
00007759 00000149 792.80 186.87 431.15 634.57 843.64 434.52 974.43 451.91 811.69 551.89 852.60 657.59 950.95 670.30
00007760 00000150 801.59 183.01 427.62 641.12 856.28 433.03 966.79 456.62 822.43 557.08 868.68 652.47 955.88 669.96
00007761 00000151 799.32 185.89 430.89 637.90 848.55 437.36 978.62 450.23 818.40 553.30 868.18 657.08 969.46 665.66
00007762 00000152 801.05 188.08 432.53 642.53 849.85 435.95 985.05 447.82 824.72 555.00 870.74 661.50 976.35 669.59
00007763 00000153 803.57 187.86 432.50 648.88 851.32 436.30 986.26 446.10 825.82 557.33 877.24 665.30 985.93 671.27
00007764 00000154 807.13 192.16 432.91 651.22 852.72 437.90 989.09 446.65 829.18 560.58 882.94 671.28 993.77 676.23
00007765 00000155 808.89 197.72 432.54 645.11 851.10 438.74 992.09 448.56 831.17 562.22 881.37 670.47 997.20 676.33
00007766 00000156 808.20 197.86 433.63 634.63 848.46 436.38 996.28 450.96 832.95 559.97 872.60 660.89 996.02 671.05
00007767 00000157 810.89 193.79 434.70 636.13 850.93 432.59 999.29 452.34 835.76 558.42 871.22 655.50 995.46 670.40
00007768 00000158 814.85 191.73 433.12 636.06 855.33 429.04 1001.07 452.68 839.99 557.10 871.55 652.79 991.88 671.41
00007769 00000159 818.56 191.62 433.27 631.73 857.84 425.07 1002.83 448.72 843.48 552.20 870.55 651.85 986.03 671.14
00007770 00000160 820.20 188.65 432.18 631.06 861.95 419.87 1002.50 444.21 843.49 546.16 869.36 649.49 978.96 669.52
00007771 00000161 820.92 188.97 431.93 627.83 863.11 418.95 1003.63 443.34 844.72 544.21 868.44 648.31 977.31 668.47
00007772 00000162 822.52 188.73 429.42 624.76 861.95 419.43 1004.32 444.37 846.10 545.63 868.67 647.31 978.42 667.98
00007773 00000163 823.07 187.17 429.63 629.19 862.33 421.16 1004.59 444.17 846.97 545.84 871.96 648.66 983.95 667.66
00007774 00000164 823.50 189.24 430.15 630.34 863.23 423.48 1005.60 444.78 848.19 547.53 876.43 650.39 991.01 667.85
00007775 00000165 824.30 189.21 433.51 633.92 864.19 425.96 1006.87 443.74 849.32 549.65 880.18 656.63 994.62 671.17
00007776 00000166 826.08 186.74 435.71 634.49 865.42 423.58 1009.62 443.75 849.91 550.99 880.96 653.36 999.10 669.95
00007777 00000167 828.48 183.42 434.10 633.21 865.29 420.95 1011.34 441.34 853.15 548.91 880.84 650.74 999.52 667.84
00007778 00000168 831.98 184.54 432.93 630.26 869.73 417.95 1013.55 437.01 857.04 546.02 884.66 650.38 998.81 666.48
00007779 00000169 832.55 183.71 429.54 633.31 871.10 414.87 1012.95 435.77 856.45 543.64 886.59 646.83 1002.66 664.13
