Video ID: 	fv8NzuRou18
H: 	1080
W: 	1920
FPS: 	25.0

FRAME INDEX X0 Y0 W H [Landmarks (5 Points)]

00020461 00000000 700.64 172.34 384.16 565.06 854.11 408.77 1030.45 418.00 981.01 496.54 890.55 613.15 1021.24 620.50
00020462 DELETE   717.30 176.52 381.90 557.27 872.58 409.82 1050.63 419.50 1000.13 496.46 902.13 610.47 1038.35 618.44
00020463 00000002 726.69 178.65 386.63 552.46 892.74 404.42 1073.63 419.00 1023.74 489.08 915.78 606.11 1055.55 618.00
00020464 00000003 743.25 179.51 386.69 552.34 910.47 400.79 1095.76 414.88 1046.55 490.77 931.65 606.28 1076.13 617.81
00020465 00000004 751.67 180.09 391.94 555.57 921.64 407.34 1100.80 427.73 1052.16 495.00 945.35 601.19 1082.74 618.12
00020466 00000005 763.19 181.76 390.33 558.05 936.70 412.27 1113.95 428.72 1070.16 500.50 959.20 607.23 1095.01 621.43
00020467 00000006 771.40 182.20 388.86 556.34 946.70 413.68 1123.63 430.55 1078.98 504.08 967.55 609.43 1101.53 623.67
00020468 00000007 775.92 187.75 391.72 555.34 959.39 415.92 1137.95 436.41 1095.65 507.85 976.96 614.16 1111.94 631.07
00020469 00000008 776.63 194.12 394.95 551.87 963.57 416.15 1142.15 438.28 1098.88 511.87 979.73 616.90 1113.01 634.97
00020470 00000009 773.79 202.30 398.16 549.49 961.90 413.52 1135.49 440.12 1094.85 514.05 976.16 619.18 1104.78 639.53
00020471 00000010 763.42 198.61 397.67 552.34 947.29 421.81 1122.09 440.66 1076.14 518.99 961.69 618.19 1092.93 634.10
00020472 00000011 753.70 195.45 397.51 554.98 936.12 420.17 1107.90 440.19 1060.82 518.42 947.14 617.89 1074.90 635.22
00020473 00000012 739.79 198.46 399.06 552.45 922.98 415.65 1093.29 436.25 1045.11 516.22 929.34 615.09 1059.71 633.83
00020474 00000013 729.42 203.72 394.56 548.08 910.25 415.02 1088.42 437.16 1038.28 518.00 917.57 619.66 1054.41 637.86
00020475 00000014 714.01 198.83 395.28 552.84 894.11 414.02 1073.96 435.73 1023.43 516.97 905.79 617.83 1043.02 635.74
00020476 00000015 703.07 201.36 396.73 552.25 880.49 414.08 1059.77 433.42 1013.20 517.25 894.10 621.48 1029.75 636.85
00020477 00000016 697.95 201.73 395.90 553.42 872.24 415.24 1051.81 433.74 1005.22 516.12 887.36 622.30 1024.50 637.06
00020478 00000017 691.39 193.20 394.49 559.79 862.15 418.61 1041.94 434.35 992.00 517.11 882.15 622.52 1017.21 636.54
00020479 00000018 690.14 194.58 393.13 562.49 858.80 420.83 1037.77 434.94 988.89 517.68 880.73 624.54 1016.42 637.12
00020480 00000019 689.07 196.93 392.37 560.32 858.53 422.83 1035.31 433.96 987.49 520.65 881.96 626.18 1015.27 636.23
00020481 00000020 696.40 202.03 390.81 555.59 865.01 418.11 1038.94 426.61 996.17 518.09 889.80 627.81 1020.81 634.43
00020482 00000021 699.42 202.92 391.23 556.03 868.27 420.32 1041.92 426.61 998.96 519.06 894.95 630.10 1024.04 634.67
00020483 00000022 705.19 205.56 390.49 554.39 870.75 421.10 1050.80 426.48 1003.65 521.00 899.47 634.19 1030.88 637.69
00020484 00000023 711.95 203.06 387.95 552.55 876.47 419.56 1056.45 423.73 1010.07 521.00 905.89 634.40 1036.77 637.05
00020485 00000024 720.13 197.82 385.39 554.10 881.41 420.53 1060.84 422.82 1013.41 521.52 907.83 633.17 1041.53 634.69
00020486 00000025 723.66 195.98 388.46 559.49 887.91 419.49 1067.85 428.00 1014.69 521.26 914.94 629.67 1050.83 635.79
00020487 00000026 729.69 197.33 388.43 558.11 893.11 417.94 1075.30 427.54 1022.03 517.70 918.59 629.56 1057.09 636.72
00020488 00000027 735.97 198.52 387.42 558.00 898.87 417.78 1081.77 426.50 1029.42 518.91 923.55 630.90 1062.36 637.38
00020489 00000028 738.12 202.24 389.56 557.89 903.36 421.39 1082.25 429.61 1030.26 523.32 926.14 633.88 1062.08 639.80
00020490 00000029 745.93 208.39 382.91 553.53 908.43 427.77 1084.76 435.86 1035.47 536.03 923.60 641.90 1057.64 649.34
00020491 00000030 746.64 213.58 386.96 554.25 908.76 432.93 1086.82 441.55 1034.84 542.74 922.49 648.11 1058.16 655.82
00020492 00000031 747.06 213.37 389.01 555.19 906.23 432.17 1090.22 443.87 1032.55 546.54 916.26 648.32 1059.13 658.69
00020493 00000032 747.28 211.59 391.77 554.24 903.81 429.09 1092.82 444.18 1029.50 546.66 909.21 646.40 1056.88 659.86
00020494 00000033 743.76 205.62 401.85 565.99 908.41 423.71 1088.55 441.50 1024.69 540.95 909.62 636.16 1046.25 653.30
00020495 00000034 741.78 206.67 406.29 566.85 907.53 421.81 1086.49 443.42 1019.11 538.69 901.52 630.95 1039.65 651.36
00020496 00000035 741.04 206.81 411.74 570.39 905.78 421.69 1083.20 447.64 1011.70 539.38 892.47 628.73 1031.54 652.75
00020497 00000036 741.05 215.10 408.84 560.30 897.89 421.25 1080.25 452.43 1004.78 550.48 884.56 638.36 1027.95 665.45
00020498 00000037 741.13 219.03 410.34 560.51 895.08 424.11 1077.00 459.17 997.26 555.51 877.08 640.78 1021.81 670.95
00020499 00000038 741.08 222.51 419.75 565.99 899.18 428.88 1077.17 464.16 992.68 555.21 873.53 635.50 1011.24 667.35
00020500 00000039 744.50 222.67 418.84 565.44 903.72 432.48 1082.80 469.80 997.71 559.84 876.60 636.36 1015.72 669.85
00020501 00000040 747.77 224.03 418.72 562.51 909.38 434.07 1087.12 473.80 1002.44 560.82 880.58 635.40 1018.31 670.85
00020502 00000041 750.62 229.11 416.37 555.98 915.12 434.66 1091.44 476.83 1006.11 561.10 884.79 635.62 1020.74 672.92
00020503 00000042 752.65 227.93 418.72 556.29 923.31 433.89 1096.87 479.30 1013.47 561.85 888.54 633.65 1023.30 673.71
00020504 00000043 755.92 228.95 420.74 551.38 928.41 432.64 1100.55 478.20 1015.47 559.94 891.85 632.33 1025.13 672.46
00020505 00000044 762.34 232.80 418.84 546.42 929.97 429.76 1103.03 477.58 1016.78 553.52 892.08 634.89 1027.97 673.89
00020506 00000045 764.33 230.09 419.78 549.99 933.25 426.69 1105.57 475.22 1020.91 552.20 895.28 634.00 1028.84 673.79
00020507 00000046 765.93 231.39 418.38 547.78 934.83 424.61 1106.85 472.01 1023.44 550.19 897.48 634.00 1029.59 672.95
00020508 00000047 766.82 229.43 420.62 550.40 936.18 423.67 1108.48 468.77 1026.10 548.65 901.70 635.08 1030.86 671.99
00020509 00000048 768.47 230.62 419.28 548.90 938.32 424.69 1110.96 468.87 1030.46 549.67 905.66 636.99 1034.04 672.96
00020510 00000049 769.17 231.49 417.58 547.57 939.04 425.21 1113.52 469.14 1033.77 548.88 908.83 636.78 1040.25 672.51
00020511 00000050 769.58 231.30 416.64 546.69 938.27 424.36 1114.46 467.34 1034.37 548.35 908.25 636.08 1041.80 671.10
00020512 00000051 769.47 228.05 415.08 547.38 935.20 421.19 1111.14 463.36 1030.80 544.82 904.32 632.46 1038.36 666.99
00020513 00000052 767.58 226.58 414.32 547.82 931.94 419.38 1107.81 461.30 1027.28 543.33 898.35 629.73 1035.31 664.32
00020514 00000053 763.91 223.79 414.03 551.02 925.64 418.46 1101.86 459.92 1021.44 541.84 892.40 629.90 1031.21 664.27
00020515 00000054 762.13 220.08 412.63 554.49 921.59 418.23 1097.13 459.06 1017.96 540.08 889.74 628.75 1028.66 662.82
00020516 00000055 755.81 216.02 414.55 562.26 919.90 416.90 1096.24 458.49 1014.25 536.39 890.37 621.98 1030.20 658.87
00020517 00000056 754.00 217.14 412.95 555.62 915.10 416.04 1093.94 456.52 1010.33 532.28 887.40 619.04 1029.55 654.75
00020518 00000057 752.44 214.72 414.04 557.20 912.71 414.37 1092.27 455.73 1007.46 529.76 884.82 617.46 1027.17 653.70
00020519 00000058 749.62 210.70 417.93 564.38 909.04 413.73 1088.65 456.96 1001.70 529.97 878.26 616.81 1021.60 654.58
00020520 00000059 748.31 209.28 418.37 563.46 905.25 413.15 1086.71 457.07 997.18 526.91 873.87 615.32 1019.86 653.52
00020521 00000060 747.08 211.03 416.95 561.32 903.22 413.33 1084.28 457.44 994.28 524.86 870.85 613.43 1018.72 651.78
00020522 00000061 745.07 214.15 417.97 557.59 899.76 414.52 1081.31 456.65 989.94 524.31 866.92 612.84 1017.55 649.54
00020523 00000062 744.35 213.45 416.47 557.86 897.19 413.18 1079.26 455.45 986.52 522.42 863.15 611.47 1016.12 648.28
00020524 00000063 742.28 213.11 418.08 563.96 893.44 409.59 1076.16 449.90 984.35 520.73 862.01 612.14 1017.55 647.27
00020525 00000064 740.86 212.78 416.50 567.19 888.36 410.48 1071.25 448.53 978.59 521.95 858.57 612.60 1015.23 645.86
00020526 00000065 735.19 208.43 414.52 564.93 875.46 410.53 1062.38 447.03 974.40 521.93 857.21 616.80 1016.34 647.86
00020527 00000066 728.01 211.44 415.22 562.61 865.17 411.00 1052.00 446.79 961.65 522.54 847.08 615.80 1007.90 646.35
00020528 00000067 724.75 217.15 411.65 558.73 860.14 414.59 1046.20 451.41 952.50 526.31 838.17 616.62 1000.40 648.28
00020529 00000068 722.43 217.90 408.05 561.80 853.38 417.31 1039.06 454.37 943.79 527.99 831.32 619.82 994.00 651.54
00020530 00000069 717.38 220.24 409.19 557.19 846.71 418.33 1033.40 456.86 935.60 529.68 823.44 620.16 987.96 653.07
00020531 00000070 710.32 222.38 412.09 553.36 841.45 418.44 1027.93 459.24 928.57 530.67 815.27 618.61 980.83 653.40
00020532 00000071 703.99 223.66 412.88 555.39 835.50 419.36 1021.43 457.75 921.09 532.38 810.28 621.07 973.17 653.71
00020533 00000072 698.30 226.36 413.90 553.63 830.54 417.93 1016.15 456.52 914.17 530.86 803.38 618.83 966.46 651.41
00020534 00000073 693.17 226.93 416.62 551.95 824.52 417.71 1010.26 454.50 909.16 528.97 796.62 618.45 962.03 649.42
00020535 00000074 689.70 229.07 417.30 550.81 821.55 418.79 1005.56 454.09 906.71 528.60 793.48 618.99 958.40 648.76
00020536 00000075 688.63 227.94 416.46 551.99 821.06 418.90 1004.52 454.12 907.05 529.10 793.84 620.08 956.66 649.58
00020537 00000076 688.49 228.77 415.84 548.14 821.90 419.32 1003.12 453.39 908.99 529.96 797.02 619.06 956.62 647.63
00020538 00000077 690.08 226.91 415.29 546.66 826.27 422.07 1007.19 459.21 913.00 532.02 800.60 620.70 957.18 651.57
00020539 00000078 693.31 230.51 414.77 541.95 830.68 425.10 1014.05 466.69 915.96 536.24 801.94 623.36 963.02 657.82
00020540 00000079 699.93 228.75 410.22 544.86 834.05 425.10 1018.58 467.09 918.94 539.47 806.64 627.82 966.97 662.35
00020541 00000080 703.42 227.92 410.53 547.20 837.22 426.12 1021.89 468.75 922.50 543.21 812.17 632.60 969.53 667.56
00020542 00000081 708.83 231.72 412.16 550.22 843.21 427.01 1025.53 469.40 929.20 545.65 820.59 637.36 970.75 672.48
00020543 00000082 712.20 233.22 415.02 560.58 849.26 427.94 1028.98 471.99 932.35 548.84 826.02 642.32 968.37 679.01
00020544 00000083 715.12 236.22 415.74 567.26 856.76 431.24 1031.62 473.93 936.42 553.60 832.80 646.89 970.29 682.43
00020545 00000084 718.03 237.59 417.34 570.90 860.95 433.03 1038.63 475.41 940.05 554.15 834.27 648.52 978.00 683.91
00020546 00000085 721.88 238.48 423.46 570.07 865.92 432.58 1045.20 475.26 943.30 551.20 836.35 643.50 986.53 678.93
00020547 00000086 727.45 238.93 420.38 570.89 873.44 434.33 1048.78 479.20 949.60 545.76 839.71 635.70 992.61 673.24
00020548 00000087 734.65 241.28 414.21 561.58 880.41 438.15 1051.55 483.54 955.11 545.17 844.70 631.65 996.19 670.46
00020549 00000088 734.43 238.84 420.55 565.70 880.28 437.51 1054.46 482.89 957.94 550.18 839.92 629.96 992.88 667.84
00020550 00000089 738.13 236.99 424.54 562.52 880.43 430.90 1058.42 477.61 957.54 545.43 840.26 624.35 995.92 663.37
00020551 00000090 741.80 235.52 422.37 558.58 880.42 426.09 1059.68 470.75 958.53 540.34 842.55 618.86 1001.36 656.36
00020552 00000091 744.47 234.17 416.07 560.22 883.11 426.73 1061.23 469.41 964.57 541.02 847.44 620.74 1007.62 656.73
00020553 00000092 747.67 236.83 413.63 560.50 885.94 432.15 1064.80 472.70 971.40 544.20 853.15 626.69 1015.97 660.66
00020554 00000093 749.77 240.02 412.87 560.69 888.02 437.13 1067.34 475.56 976.20 548.23 857.51 633.83 1020.13 665.96
00020555 00000094 752.66 243.44 410.85 564.87 890.58 440.57 1075.13 480.06 983.14 553.62 863.02 642.99 1029.06 675.94
00020556 00000095 757.07 242.64 409.06 570.36 893.54 446.14 1079.79 485.81 987.41 559.00 870.92 651.27 1033.57 684.40
00020557 00000096 760.14 240.48 407.33 572.49 896.79 447.45 1084.84 486.36 993.47 559.98 876.47 654.63 1038.47 687.22
00020558 00000097 762.27 240.17 406.43 570.93 901.21 446.69 1086.16 482.83 999.23 557.51 884.54 655.84 1039.10 686.55
00020559 00000098 764.04 236.95 404.90 571.11 904.47 445.65 1089.77 480.82 1005.31 556.59 890.91 659.12 1040.43 688.92
00020560 00000099 765.20 238.81 401.56 561.71 903.57 446.20 1091.40 483.58 1005.38 554.83 889.34 661.13 1042.20 692.60
00020561 00000100 764.13 239.36 401.98 557.99 902.33 447.51 1088.48 482.35 1003.47 554.21 889.72 660.12 1040.40 689.37
00020562 00000101 760.00 240.76 403.97 555.70 898.86 446.71 1082.83 480.16 998.61 551.37 882.74 657.63 1034.65 685.91
00020563 00000102 757.98 244.41 400.36 551.07 898.33 452.07 1077.57 486.36 993.53 552.82 879.98 654.66 1029.45 683.90
00020564 00000103 755.64 247.10 399.59 548.65 894.22 457.28 1070.92 491.43 987.85 554.96 876.51 654.68 1024.46 683.76
00020565 00000104 752.01 248.23 400.34 550.20 884.96 456.24 1063.42 485.01 980.10 556.01 870.33 655.48 1021.68 679.91
00020566 00000105 748.72 247.01 402.33 553.55 878.93 456.63 1059.22 479.28 976.45 557.21 866.94 658.13 1019.90 677.78
00020567 00000106 746.38 242.01 397.49 548.37 866.47 455.27 1052.81 475.59 964.39 554.15 869.18 658.69 1018.60 676.10
00020568 00000107 740.28 239.61 397.22 552.15 862.27 455.02 1046.88 473.22 961.56 555.05 866.88 660.04 1013.60 675.57
00020569 00000108 734.72 240.27 397.94 555.70 858.85 457.37 1042.62 477.26 958.86 556.35 862.78 662.16 1008.79 679.10
00020570 00000109 729.69 243.91 398.98 557.93 854.98 462.26 1040.22 482.20 956.71 560.98 859.42 666.42 1008.25 683.77
00020571 00000110 726.36 243.67 398.77 564.65 851.47 462.10 1033.45 481.69 951.64 561.51 856.26 667.24 1003.87 684.20
00020572 00000111 724.00 244.62 399.26 565.70 848.95 461.63 1032.25 480.61 950.30 561.50 854.44 667.43 1002.98 683.81
00020573 00000112 721.54 242.59 398.03 568.86 846.03 461.64 1029.35 480.44 948.16 563.01 853.21 668.46 1002.16 684.25
00020574 00000113 719.18 242.61 396.13 571.47 841.67 462.66 1026.60 480.52 944.17 564.28 848.57 670.52 1000.16 685.50
00020575 00000114 716.42 244.45 394.98 574.01 837.12 466.82 1022.94 483.08 940.83 567.96 845.06 674.67 998.55 688.32
00020576 00000115 713.86 249.84 396.65 575.71 833.34 473.50 1019.37 486.77 938.27 576.70 845.41 682.49 998.24 693.44
00020577 00000116 713.31 256.27 396.09 573.79 830.43 478.29 1019.36 489.93 936.05 582.05 843.82 687.38 998.97 697.24
00020578 00000117 710.96 259.35 397.65 572.42 828.53 480.51 1018.52 492.16 934.24 584.76 842.56 689.48 997.71 699.36
00020579 00000118 710.84 257.22 396.15 571.68 827.66 479.14 1016.69 490.39 932.92 583.35 842.71 687.73 997.16 697.14
00020580 00000119 709.79 252.86 396.01 573.57 826.65 476.66 1012.98 487.17 931.51 580.40 842.00 685.33 994.57 693.88
00020581 00000120 706.61 250.07 397.09 575.29 823.93 474.59 1009.55 483.70 929.59 578.61 839.08 683.72 992.39 690.91
00020582 00000121 703.84 248.64 398.12 576.54 821.40 474.15 1006.94 482.85 926.35 579.84 836.71 683.05 990.87 689.87
00020583 00000122 699.04 250.07 399.37 576.95 818.32 473.92 1004.08 484.10 922.56 581.65 832.79 682.77 987.33 690.97
00020584 00000123 696.76 248.93 399.32 576.59 816.28 474.16 1002.11 484.78 920.80 581.36 830.75 682.40 985.70 691.04
00020585 00000124 695.57 249.09 399.15 573.43 814.75 472.17 1001.85 482.02 920.07 577.57 830.65 680.37 987.38 688.39
00020586 00000125 695.88 246.41 398.85 574.12 814.22 471.09 1001.68 480.34 920.22 573.45 830.65 678.44 989.69 685.83
00020587 00000126 696.17 244.48 395.85 573.88 815.55 474.18 998.98 482.94 919.80 569.90 834.05 676.40 988.50 683.37
00020588 00000127 696.59 242.38 395.89 574.64 809.53 470.89 998.23 477.16 914.70 566.54 830.35 675.19 990.03 679.97
00020589 00000128 696.09 239.34 397.42 575.34 803.01 465.56 992.42 468.45 906.31 565.91 825.68 674.20 985.35 676.05
00020590 00000129 693.45 241.02 397.77 572.76 795.69 465.64 983.84 467.99 895.04 566.93 817.91 674.98 974.80 676.62
00020591 00000130 691.00 239.15 398.29 574.53 792.47 463.65 980.21 468.08 890.15 565.55 813.23 674.33 968.06 677.77
00020592 00000131 692.15 237.61 398.57 573.86 794.88 458.62 983.49 463.55 894.14 562.55 816.81 670.78 970.89 674.48
00020593 00000132 694.94 232.04 398.84 577.50 802.06 453.12 992.13 457.78 906.19 558.94 823.02 667.27 979.57 670.82
00020594 00000133 698.34 228.80 396.41 582.23 809.61 450.76 997.66 455.18 917.37 557.68 830.42 668.65 984.00 671.91
00020595 00000134 702.07 226.06 396.69 587.37 819.32 451.21 1006.23 456.69 931.04 554.65 838.31 668.85 993.36 672.41
00020596 00000135 707.88 227.69 395.46 578.78 830.26 449.58 1014.84 456.30 942.91 552.51 852.45 669.13 998.68 673.76
00020597 00000136 713.53 226.48 397.41 573.39 839.32 447.74 1023.06 457.75 951.44 549.81 858.28 663.81 1004.27 671.00
00020598 00000137 720.14 224.91 393.00 564.13 846.12 446.12 1031.56 456.18 960.97 547.58 864.50 660.22 1011.06 667.68
00020599 00000138 725.81 223.29 392.80 561.49 854.89 444.99 1042.13 456.34 972.51 546.17 870.51 656.24 1019.35 665.13
00020600 00000139 732.09 218.80 391.33 558.20 859.67 441.50 1049.86 448.98 980.60 544.33 875.32 651.96 1027.90 658.09
00020601 00000140 736.45 215.89 390.24 557.19 865.45 435.18 1056.33 442.06 986.62 537.38 878.92 644.89 1033.31 650.91
00020602 00000141 740.07 209.92 390.85 556.61 870.25 427.98 1059.12 438.06 988.92 529.38 878.94 634.77 1034.76 644.14
00020603 00000142 741.58 205.19 389.50 558.02 869.27 421.72 1060.01 433.51 985.87 524.67 874.38 628.93 1033.56 640.50
00020604 00000143 739.94 201.40 391.57 562.60 867.75 419.76 1057.93 431.76 982.47 524.19 871.21 626.31 1031.61 638.27
00020605 00000144 736.29 202.03 394.03 561.54 864.24 418.76 1055.11 431.61 977.40 521.93 866.85 624.89 1028.86 637.38
00020606 00000145 733.37 202.32 396.02 562.30 860.85 417.90 1051.52 430.90 972.06 521.04 863.52 625.08 1024.69 637.55
00020607 00000146 729.85 203.73 397.99 561.33 857.89 418.44 1048.08 431.29 969.10 521.11 861.92 625.69 1021.69 637.19
00020608 00000147 726.43 199.93 397.19 565.03 853.96 415.40 1042.99 429.02 965.13 516.79 858.22 622.72 1017.72 634.62
00020609 00000148 722.85 195.67 398.54 568.98 851.18 411.71 1038.56 424.72 962.83 512.03 856.27 621.87 1012.66 632.90
CROP_BBOX: 414 0 1378 969
