Video ID: 	p-ITY5YiaVQ
H: 	1080
W: 	1920
FPS: 	29.97002997002997

FRAME INDEX X0 Y0 W H [Landmarks (5 Points)]

00002683 00000000 893.83 163.04 354.58 516.14 918.75 389.49 1052.57 363.59 922.90 459.72 949.24 568.06 1056.56 547.66
00002684 00000001 899.64 164.99 350.19 510.71 922.08 388.20 1057.18 364.33 928.45 458.43 950.58 565.32 1059.76 546.83
00002685 DELETE   908.60 161.02 342.46 501.77 928.61 391.15 1064.36 371.96 935.34 457.75 951.41 564.65 1059.23 547.67
00002686 00000003 912.24 153.72 338.62 506.68 933.71 384.56 1070.95 375.75 942.40 458.70 947.79 560.43 1054.07 552.65
00002687 00000004 916.18 150.15 336.47 510.29 940.47 378.34 1076.04 376.65 949.08 454.92 948.86 556.23 1051.48 554.08
00002688 00000005 919.24 147.50 337.48 514.37 943.03 376.75 1080.97 376.69 952.62 453.81 949.03 554.97 1053.16 554.33
00002689 00000006 920.00 143.63 339.31 524.30 946.22 376.35 1085.77 372.97 955.99 450.19 952.89 559.10 1056.28 555.85
00002690 DELETE   921.51 142.96 338.79 531.89 949.15 377.34 1089.01 370.21 959.51 445.35 957.40 562.05 1057.19 555.56
00002691 00000008 924.01 138.51 338.19 548.06 949.16 376.97 1094.56 368.39 959.46 444.43 959.84 564.53 1067.18 557.20
00002692 DELETE   922.97 121.38 343.49 572.12 956.46 370.08 1097.49 361.84 967.13 443.34 969.36 562.71 1084.64 554.55
00002693 00000010 923.32 122.40 343.67 578.62 956.74 370.09 1099.85 361.82 969.89 447.38 971.77 563.68 1091.16 555.55
00002694 DELETE   920.63 143.12 343.95 553.55 947.23 384.84 1097.43 366.70 962.81 454.66 958.84 564.46 1097.70 551.30
00002695 00000012 916.81 146.86 350.13 550.94 946.97 390.76 1098.79 375.43 965.78 464.59 959.65 568.36 1099.24 556.44
00002696 DELETE   920.43 133.42 352.10 573.60 953.38 391.11 1103.66 386.29 979.53 471.28 972.43 572.16 1100.28 566.90
00002697 DELETE   918.67 144.85 350.82 563.69 950.96 398.00 1100.97 398.33 979.58 483.16 972.15 575.54 1097.80 574.74
00002698 DELETE   914.68 155.57 351.45 557.28 948.85 407.01 1102.95 407.03 973.40 496.83 961.71 586.39 1096.08 586.00
00002699 00000016 909.11 156.19 358.99 574.63 956.92 411.48 1109.42 413.49 981.55 510.44 966.75 595.83 1098.09 596.63
00002700 00000017 908.69 161.78 359.98 577.46 957.25 417.56 1111.65 425.45 982.35 520.56 968.67 601.88 1102.49 607.07
00002701 00000018 909.57 172.08 364.23 554.40 954.92 420.98 1115.65 432.05 987.03 530.14 970.77 597.83 1113.80 606.13
00002702 00000019 906.66 177.20 369.62 550.32 955.26 424.50 1119.41 436.57 991.55 536.65 970.59 598.67 1117.71 607.88
00002703 00000020 908.90 172.38 365.84 568.46 961.28 431.64 1126.42 447.26 1004.94 548.31 968.66 608.93 1125.23 620.45
00002704 00000021 907.47 175.43 370.49 567.56 960.48 440.33 1129.98 456.36 1011.47 557.13 969.53 615.06 1131.32 626.95
00002705 00000022 905.08 180.08 375.93 567.66 963.63 446.67 1132.76 464.77 1018.31 569.01 973.00 616.20 1136.99 629.60
00002706 00000023 900.72 190.60 384.72 563.74 966.70 449.73 1135.55 468.81 1020.83 576.52 981.74 622.35 1135.61 636.29
00002707 00000024 899.81 193.79 384.02 567.03 965.55 452.66 1137.72 476.01 1022.75 587.25 978.50 626.52 1134.73 644.19
00002708 00000025 909.78 204.43 380.97 558.74 968.55 458.35 1140.69 484.62 1019.53 583.46 991.63 635.45 1138.96 655.77
00002709 00000026 901.85 207.38 394.95 569.04 970.31 466.19 1150.36 492.38 1023.81 606.00 982.74 650.75 1139.42 671.52
00002710 00000027 906.89 217.67 394.48 568.92 977.45 471.26 1161.25 501.14 1034.24 611.90 981.99 652.40 1144.70 676.32
00002711 00000028 920.88 227.63 392.82 564.72 986.20 478.13 1168.04 509.93 1038.72 611.10 996.88 656.67 1150.65 683.66
00002712 00000029 920.74 227.59 398.22 575.64 995.35 481.02 1174.27 510.42 1051.43 621.36 994.51 657.31 1155.67 679.88
00002713 00000030 921.80 228.42 403.63 581.29 1000.40 482.98 1177.54 513.15 1056.48 622.97 996.67 654.59 1157.50 677.38
00002714 00000031 923.86 230.72 402.74 576.08 999.26 482.07 1181.80 518.09 1054.10 626.89 1000.42 652.43 1169.70 683.17
00002715 00000032 925.69 233.23 403.45 576.67 1001.27 480.41 1185.65 517.78 1057.49 630.51 1000.33 651.47 1174.19 683.47
00002716 00000033 927.25 233.09 404.81 578.93 1004.82 478.46 1190.67 515.55 1062.29 632.96 1002.94 651.25 1181.00 682.88
00002717 00000034 929.50 231.26 404.48 579.33 1009.79 479.35 1192.89 514.27 1066.69 630.40 1008.42 651.36 1183.87 680.92
00002718 00000035 934.24 230.06 402.20 580.73 1015.27 479.05 1197.06 514.36 1072.64 629.82 1013.01 651.30 1188.00 681.01
00002719 00000036 935.26 230.49 405.39 576.85 1018.39 476.95 1201.29 511.18 1076.21 627.61 1015.01 650.09 1189.28 679.18
00002720 00000037 939.37 224.47 403.13 584.02 1022.44 475.45 1205.32 508.77 1080.51 626.32 1017.08 649.42 1193.45 677.76
00002721 00000038 941.05 224.82 403.42 582.28 1026.04 472.58 1209.21 506.98 1084.98 625.57 1017.57 645.32 1196.83 674.64
00002722 00000039 942.26 221.60 405.26 585.29 1028.31 471.00 1211.80 505.98 1087.61 623.69 1019.63 646.03 1196.39 675.51
00002723 00000040 941.08 217.35 409.33 584.86 1030.73 470.42 1215.78 505.97 1091.51 619.44 1022.02 647.02 1195.53 676.70
00002724 00000041 941.74 218.26 410.20 581.26 1033.80 469.80 1218.96 505.37 1095.33 617.77 1024.24 647.15 1195.87 676.81
00002725 00000042 943.34 215.98 409.71 583.98 1035.89 470.20 1221.19 505.09 1098.84 617.59 1026.94 651.08 1194.80 680.00
00002726 00000043 943.29 216.42 410.34 582.20 1036.39 470.29 1221.66 504.69 1100.03 617.44 1028.43 652.95 1193.17 681.48
00002727 00000044 943.71 216.01 409.95 581.90 1036.65 470.11 1220.40 504.14 1099.21 616.41 1031.04 655.53 1189.42 683.65
00002728 00000045 942.29 218.48 409.33 578.92 1035.92 469.32 1219.21 501.11 1100.00 614.02 1030.00 653.50 1188.13 680.00
00002729 00000046 940.02 222.97 406.45 572.53 1034.60 462.44 1218.91 498.32 1097.65 612.22 1024.31 645.60 1187.53 675.70
00002730 00000047 936.82 221.73 410.77 572.04 1031.85 452.93 1218.44 492.35 1092.27 608.89 1018.28 637.41 1186.64 670.82
00002731 00000048 934.27 211.84 408.36 578.21 1029.91 446.82 1214.68 485.09 1089.90 598.46 1016.13 631.02 1183.57 663.74
00002732 00000049 936.80 191.05 405.66 594.71 1030.02 441.65 1215.15 477.80 1096.42 590.97 1018.53 625.78 1180.37 656.68
00002733 00000050 930.21 196.82 407.23 586.66 1028.78 435.41 1209.12 472.24 1088.33 574.48 1014.13 619.18 1177.08 650.57
00002734 00000051 929.44 193.25 405.33 585.66 1026.59 433.98 1205.90 469.42 1085.54 564.18 1012.30 620.58 1166.75 650.62
00002735 00000052 927.90 192.58 404.57 586.30 1020.24 435.88 1202.92 471.05 1079.95 567.41 1008.19 627.03 1160.47 656.85
00002736 00000053 920.42 191.37 408.70 586.33 1012.46 441.71 1198.77 476.03 1075.66 573.48 1004.62 632.41 1156.72 661.32
00002737 00000054 912.63 195.68 411.02 581.30 1006.49 449.44 1190.48 481.44 1071.54 582.77 1001.84 637.87 1152.38 664.73
00002738 DELETE   911.49 208.69 408.88 572.82 1001.19 459.57 1189.18 490.85 1068.03 594.13 999.13 644.17 1153.06 670.94
00002739 DELETE   905.06 221.27 408.76 559.17 996.21 468.51 1183.33 497.20 1062.73 600.56 999.82 645.53 1151.76 670.05
00002740 00000057 902.20 229.19 404.40 557.62 991.48 470.20 1177.92 501.81 1057.76 610.66 995.57 646.28 1149.70 673.95
00002741 00000058 899.25 226.24 397.82 558.43 986.35 468.57 1171.29 497.79 1053.64 607.17 994.04 642.42 1149.19 667.94
00002742 00000059 885.41 220.63 407.12 564.43 977.71 465.37 1162.33 495.39 1048.14 611.40 977.16 637.79 1135.46 662.49
00002743 00000060 892.06 214.10 396.19 555.90 978.41 456.93 1162.70 488.33 1044.02 594.31 981.55 625.27 1143.84 651.38
00002744 00000061 878.63 203.47 405.94 569.50 969.58 447.17 1151.61 478.99 1043.25 598.01 968.71 614.88 1141.28 639.03
00002745 DELETE   881.25 198.30 401.53 561.46 965.98 445.34 1148.94 478.15 1030.22 589.06 965.88 611.13 1134.60 637.88
00002746 00000063 875.17 193.60 404.62 565.08 960.43 442.76 1143.92 476.56 1024.03 586.21 957.96 610.08 1127.92 637.68
00002747 00000064 867.49 188.29 408.33 570.57 953.73 443.51 1138.86 476.75 1018.92 587.38 950.54 611.45 1122.31 638.64
00002748 00000065 861.16 194.32 408.53 572.86 951.45 446.56 1132.66 478.04 1011.09 583.45 945.48 613.96 1117.46 640.17
00002749 00000066 855.57 195.38 409.21 571.35 946.62 448.75 1130.86 479.01 1011.07 584.89 939.70 615.77 1117.28 641.44
00002750 00000067 849.89 200.94 414.52 565.21 942.24 449.62 1130.04 480.91 1008.73 586.09 936.79 618.52 1113.06 644.99
00002751 00000068 844.85 202.62 417.11 564.30 939.57 451.25 1127.04 484.62 1006.87 587.30 933.38 617.42 1110.33 645.39
00002752 00000069 842.86 208.22 416.63 560.15 936.69 452.13 1124.45 487.76 1002.91 592.28 929.79 618.84 1106.20 648.77
00002753 00000070 842.69 208.27 414.04 561.98 934.11 453.90 1123.98 489.96 1000.74 596.19 927.96 621.19 1106.49 651.46
00002754 00000071 840.73 209.68 413.88 560.50 932.11 454.67 1121.85 490.01 998.94 596.95 926.15 621.57 1105.18 651.16
00002755 00000072 838.15 210.97 414.24 558.19 931.31 454.03 1122.19 489.24 999.18 596.01 924.82 621.47 1103.59 650.95
00002756 00000073 834.23 209.01 416.05 558.56 929.37 452.13 1119.48 486.43 998.03 594.96 923.54 619.04 1102.73 647.65
00002757 00000074 832.94 206.57 414.29 560.12 926.04 449.59 1117.26 484.38 994.78 595.61 920.97 617.46 1102.29 646.55
00002758 00000075 830.57 199.24 415.00 566.89 924.12 449.20 1115.76 481.85 994.59 593.29 920.41 618.39 1100.40 645.78
00002759 00000076 830.26 196.50 411.12 569.01 921.29 449.79 1112.27 480.71 991.80 593.76 919.62 618.23 1099.35 644.34
00002760 00000077 828.76 200.86 409.14 562.78 918.77 448.51 1109.63 480.49 988.14 594.16 918.23 616.33 1098.35 643.34
00002761 00000078 828.10 202.89 408.34 559.65 917.59 449.13 1107.95 481.36 986.37 594.00 917.64 615.27 1097.50 642.38
00002762 00000079 828.04 202.72 406.27 557.57 916.71 449.56 1106.37 481.24 985.69 592.85 918.52 614.61 1097.55 641.04
00002763 00000080 827.31 201.20 404.00 555.89 914.53 449.67 1103.96 479.80 984.52 592.17 918.28 612.27 1098.41 637.27
00002764 00000081 826.15 198.91 404.81 553.25 913.10 450.29 1102.37 477.92 985.19 589.64 918.97 610.76 1099.54 633.57
00002765 00000082 826.69 197.56 404.51 551.79 911.85 449.10 1102.22 476.75 984.08 588.32 919.89 610.34 1100.16 633.04
00002766 00000083 827.47 195.94 405.18 553.16 911.45 448.77 1103.08 475.42 984.33 586.79 921.07 610.72 1102.14 632.40
00002767 00000084 828.80 192.20 403.02 556.45 911.51 447.16 1104.69 475.13 984.10 585.88 921.94 610.88 1102.43 633.51
00002768 00000085 829.73 191.43 404.65 555.65 911.41 446.79 1103.66 473.94 983.01 584.79 923.27 613.34 1099.53 635.11
00002769 00000086 830.33 190.21 404.30 558.12 911.02 446.87 1103.54 474.42 981.78 584.81 922.59 612.93 1100.06 634.99
00002770 00000087 830.50 189.49 405.56 559.10 910.39 447.32 1103.75 474.25 980.85 584.72 923.42 614.41 1100.39 635.86
00002771 00000088 830.91 187.95 405.66 560.25 909.96 446.60 1104.00 473.47 980.94 585.47 924.59 615.57 1101.55 636.92
00002772 00000089 832.27 190.06 405.01 557.54 910.54 446.25 1105.48 473.35 981.50 585.76 924.49 615.62 1102.73 637.18
00002773 00000090 833.41 192.18 405.90 554.84 912.33 445.27 1106.87 473.78 982.49 585.10 925.75 614.31 1104.50 637.02
00002774 00000091 833.65 192.30 409.04 553.49 913.93 443.73 1108.51 472.66 983.69 584.12 926.94 613.58 1104.37 636.70
00002775 00000092 837.02 188.66 407.50 559.39 915.57 442.70 1110.74 470.33 986.18 582.67 930.49 615.33 1108.49 637.22
00002776 00000093 839.34 183.79 410.85 572.75 919.38 442.32 1114.22 468.96 990.61 582.51 932.50 617.81 1111.43 639.00
00002777 00000094 841.70 181.17 409.71 579.70 923.39 443.79 1114.45 468.83 993.35 579.30 935.66 622.05 1106.41 641.99
00002778 00000095 845.76 181.41 407.99 584.22 927.54 444.13 1114.27 469.21 994.13 577.17 938.52 623.29 1103.97 643.49
00002779 00000096 848.21 185.85 405.57 583.60 931.16 443.86 1116.08 469.77 997.35 577.32 939.19 621.18 1106.13 642.56
00002780 00000097 851.00 185.49 403.65 583.93 932.32 443.39 1117.72 468.06 998.85 576.98 939.77 619.35 1110.29 639.70
00002781 00000098 853.59 186.78 401.87 583.08 934.43 441.92 1118.90 466.96 999.47 576.26 940.05 615.23 1113.02 635.87
00002782 00000099 856.72 186.83 398.03 581.38 936.76 440.92 1119.20 465.64 1000.49 574.75 941.65 612.56 1113.95 632.78
00002783 00000100 859.63 187.35 396.31 581.02 938.73 439.04 1119.80 464.72 999.79 574.28 940.99 608.81 1116.09 629.92
00002784 00000101 859.86 186.07 397.29 581.51 940.54 436.54 1121.36 462.77 1001.06 573.37 941.77 606.97 1117.06 628.64
00002785 00000102 860.04 185.01 398.27 581.40 941.22 436.22 1121.48 461.92 1001.63 572.88 942.77 606.04 1117.80 627.30
00002786 00000103 859.94 186.18 400.04 576.46 941.48 436.96 1122.05 462.87 1001.77 572.85 943.57 606.45 1116.39 627.90
00002787 00000104 859.38 185.42 401.51 571.89 940.94 436.04 1122.28 463.43 1000.67 573.06 943.86 608.42 1110.40 630.96
00002788 00000105 860.62 181.68 399.56 570.51 940.36 431.88 1120.37 459.46 997.49 565.82 943.46 609.27 1103.63 631.74
00002789 DELETE   856.34 173.83 401.17 573.22 938.25 419.49 1114.47 448.44 991.23 554.83 937.11 604.25 1090.40 627.94
00002790 00000107 853.09 164.80 392.65 572.90 930.16 408.59 1100.95 440.02 976.64 538.32 930.56 594.33 1078.96 618.87
00002791 DELETE   857.52 163.98 379.12 566.21 915.57 400.78 1077.05 425.02 949.33 522.25 919.42 582.47 1057.02 603.95
00002792 DELETE   853.14 155.85 369.70 563.37 904.31 387.22 1060.25 411.77 929.72 508.16 914.24 571.23 1047.56 591.49
00002793 DELETE   851.00 150.54 368.17 552.08 894.49 380.35 1051.64 393.99 922.56 486.73 907.45 565.08 1039.23 575.50
00002794 00000111 853.52 150.32 362.37 541.54 891.68 370.87 1043.46 385.11 914.67 478.69 904.86 557.17 1034.46 567.44
00002795 00000112 857.20 158.66 355.43 526.29 886.67 369.15 1040.27 386.50 906.47 479.27 889.88 551.39 1022.39 563.96
00002796 00000113 857.42 159.11 356.24 520.49 885.45 360.61 1039.90 380.42 903.56 472.77 886.15 547.23 1017.34 561.95
00002797 00000114 856.92 160.98 355.77 518.35 885.77 356.23 1041.27 380.26 903.38 471.25 883.19 544.11 1014.01 562.56
00002798 00000115 859.09 163.01 353.63 513.78 886.36 357.02 1039.52 382.61 903.85 471.25 884.81 545.51 1004.67 565.30
00002799 00000116 858.10 167.20 356.24 512.03 896.86 354.08 1049.54 387.87 908.85 472.74 884.74 540.64 1016.09 569.73
00002800 00000117 858.97 174.38 355.06 504.66 897.00 353.99 1049.99 388.77 909.30 474.33 884.66 541.27 1017.49 571.20
00002801 00000118 858.36 171.36 357.91 506.34 895.37 349.22 1047.93 380.84 908.03 468.55 885.54 541.24 1014.07 568.58
00002802 00000119 860.76 170.34 349.26 505.84 889.42 348.62 1039.61 373.05 903.73 460.63 887.43 542.16 1005.31 561.05
00002803 00000120 862.47 158.86 342.10 512.12 890.54 347.95 1036.62 367.75 900.40 453.04 890.13 541.08 1004.23 556.45
00002804 DELETE   860.70 153.22 342.96 509.84 889.61 345.19 1036.50 363.00 900.14 447.92 887.77 535.34 1006.72 549.31
00002805 00000122 859.82 154.18 343.59 505.09 888.99 342.59 1036.05 359.84 898.57 445.03 886.12 533.00 1005.46 546.70
00002806 00000123 860.08 150.17 345.57 512.38 887.94 341.06 1036.27 360.53 897.14 445.84 885.68 535.62 1002.84 550.91
00002807 00000124 861.91 157.70 345.30 510.60 888.73 340.02 1037.50 362.86 897.33 451.16 887.00 539.29 1002.94 557.13
00002808 00000125 858.82 164.89 349.81 511.50 888.17 340.24 1037.46 366.96 897.15 457.55 885.26 540.79 1002.75 561.74
00002809 00000126 856.26 169.71 360.28 517.65 890.11 342.49 1042.36 373.02 898.13 463.79 883.57 545.04 1011.50 571.69
00002810 00000127 855.83 173.43 357.81 520.11 889.46 354.99 1042.91 383.96 897.55 476.58 884.96 558.35 1010.69 583.71
00002811 00000128 854.61 178.83 351.45 521.43 893.82 369.96 1040.22 388.99 904.25 482.62 888.46 564.39 1013.67 580.12
CROP_BBOX: 606 0 1573 950
