Video ID: 	XBQTXJHzUgY
H: 	1080
W: 	1920
FPS: 	25.0

FRAME INDEX X0 Y0 W H [Landmarks (5 Points)]

00001551 00000000 443.29 197.73 351.10 546.14 622.55 444.16 760.70 402.41 763.09 519.61 653.88 628.24 763.19 594.55
00001552 00000001 447.42 198.81 352.22 552.43 626.98 440.71 762.16 412.08 764.08 524.11 656.24 633.84 761.92 612.74
00001553 00000002 449.52 206.58 351.80 546.54 630.46 446.05 765.10 416.81 767.20 527.94 657.06 635.53 764.10 614.51
00001554 00000003 451.81 211.92 351.17 543.47 633.41 449.91 767.80 419.90 769.16 530.44 657.53 636.69 766.48 615.36
00001555 00000004 454.22 214.47 349.06 540.68 633.76 451.54 769.10 421.02 768.82 530.90 658.78 637.54 768.04 615.74
00001556 00000005 452.02 212.89 350.15 541.30 633.60 453.05 768.67 420.90 769.11 532.36 660.06 639.13 767.70 616.02
00001557 00000006 451.65 211.11 351.34 544.42 633.00 455.26 768.99 420.65 769.39 535.97 659.32 641.94 767.78 617.04
00001558 00000007 451.62 214.44 350.74 541.54 629.44 461.03 766.74 421.85 765.35 540.78 657.79 645.60 766.75 616.91
00001559 00000008 450.00 214.02 351.09 544.51 627.26 460.68 763.01 422.70 762.13 539.29 657.94 647.33 764.05 619.09
00001560 00000009 445.92 211.18 352.83 548.40 625.72 452.15 760.67 420.83 759.20 535.72 654.17 642.74 760.05 619.42
00001561 00000010 440.65 208.45 355.85 545.98 618.08 442.08 757.02 413.18 753.88 523.96 652.42 635.69 759.60 613.38
00001562 00000011 440.09 200.85 356.32 550.37 614.98 433.79 756.04 406.20 752.89 518.16 650.73 631.65 759.47 610.12
00001563 00000012 440.19 201.41 355.80 549.80 612.78 432.15 754.86 405.41 750.46 517.41 648.07 630.25 758.41 609.20
00001564 00000013 439.07 204.11 356.47 547.92 611.46 436.83 754.44 408.35 748.64 523.12 646.57 633.91 756.25 611.56
00001565 00000014 441.22 207.86 354.07 543.61 611.80 440.92 755.16 412.57 746.74 527.31 646.85 636.34 755.83 614.25
00001566 00000015 440.65 208.46 354.37 537.87 612.69 442.01 756.28 412.89 747.85 526.09 649.70 635.13 757.28 612.21
00001567 DELETE   440.72 212.19 355.75 532.58 615.68 445.57 756.87 413.34 750.14 528.00 650.09 634.62 757.09 609.59
00001568 00000017 442.01 217.41 354.68 530.93 616.38 440.37 757.76 413.29 745.19 528.62 644.60 634.37 751.13 613.56
00001569 DELETE   443.06 221.47 356.14 526.86 613.20 440.02 758.77 415.43 742.09 530.92 639.44 634.69 749.28 616.07
00001570 00000019 445.16 216.73 355.13 530.26 609.18 434.53 760.34 413.98 740.81 530.78 635.54 633.33 750.07 618.12
00001571 00000020 446.63 214.25 355.06 533.37 611.50 433.66 762.91 414.88 741.69 532.47 635.62 633.93 749.82 620.31
00001572 00000021 447.11 213.42 356.55 534.56 614.34 435.48 765.54 417.80 743.27 536.05 635.78 634.85 750.00 622.40
00001573 00000022 447.54 215.04 356.90 533.52 616.72 438.50 767.92 419.89 744.50 540.27 636.96 637.24 750.48 624.18
00001574 00000023 447.69 213.97 356.83 535.85 617.58 438.85 768.04 421.79 744.60 541.66 637.85 639.15 748.98 627.32
00001575 00000024 447.38 214.31 356.91 535.91 616.03 438.10 767.94 421.31 743.23 542.85 636.91 639.89 747.96 628.08
00001576 00000025 447.55 211.74 358.30 536.61 614.80 435.21 768.28 418.80 742.12 540.84 636.05 637.26 749.49 625.57
00001577 00000026 450.97 213.87 354.58 528.00 619.02 437.77 769.66 413.53 747.71 540.72 640.62 632.85 750.59 613.39
00001578 00000027 453.57 210.58 355.25 530.59 621.34 431.99 771.52 411.53 747.94 537.01 642.56 630.26 752.07 613.84
00001579 00000028 455.32 209.27 356.42 533.64 621.49 430.26 774.29 409.22 750.09 535.98 643.77 631.25 755.95 614.29
00001580 00000029 456.57 211.42 354.34 536.60 623.05 431.64 772.91 411.27 750.25 536.55 642.22 632.29 753.90 615.98
00001581 00000030 455.81 214.07 355.40 532.12 622.80 433.56 773.25 409.94 751.61 537.82 641.94 632.89 753.68 614.19
00001582 00000031 456.55 210.97 358.80 534.17 623.85 433.09 776.07 408.95 753.18 536.90 642.61 631.72 757.06 612.60
00001583 00000032 457.52 211.47 359.06 533.09 623.60 430.30 777.00 407.72 752.12 535.73 642.51 630.05 757.68 612.05
00001584 00000033 457.57 211.82 359.88 533.00 623.57 429.08 777.38 406.76 752.73 534.46 641.76 628.72 757.99 610.92
00001585 00000034 458.13 211.69 360.93 532.81 622.50 428.00 777.72 405.36 751.22 534.50 641.65 628.67 758.59 610.52
00001586 00000035 457.92 209.76 361.83 534.42 621.92 427.38 777.85 404.39 751.13 534.24 641.36 628.21 759.45 609.82
00001587 00000036 458.40 210.56 362.90 532.56 621.00 426.03 778.36 403.71 750.43 533.74 641.17 627.35 760.11 609.39
00001588 00000037 459.36 210.37 363.06 532.42 621.78 423.86 779.42 402.49 751.18 531.85 642.18 625.63 761.88 608.40
00001589 00000038 460.99 206.98 363.41 534.83 624.47 421.31 781.95 400.84 753.18 530.17 643.18 623.15 764.15 606.92
00001590 00000039 461.20 206.57 364.05 533.13 626.19 416.93 783.36 398.95 753.58 528.05 644.43 620.59 764.47 606.37
00001591 00000040 462.66 204.84 363.98 533.21 625.79 413.91 783.75 398.11 752.25 525.38 645.22 618.22 765.94 605.70
00001592 00000041 462.65 206.64 364.24 531.56 625.64 413.38 782.55 398.39 750.78 524.25 644.56 616.95 765.10 605.05
00001593 00000042 462.81 203.34 364.18 533.20 624.79 412.50 782.06 398.63 749.06 523.24 642.83 614.26 765.14 603.44
00001594 00000043 464.52 199.47 363.38 536.49 624.94 411.35 782.21 399.02 748.11 520.18 643.28 612.08 766.79 602.66
00001595 00000044 464.87 197.56 363.07 537.25 624.22 410.38 781.72 399.20 746.54 518.01 642.29 610.06 766.43 601.61
00001596 00000045 463.12 197.01 364.11 534.73 622.38 409.76 779.50 398.95 743.29 517.23 640.32 608.78 763.00 600.57
00001597 00000046 460.64 194.67 364.81 532.51 619.40 410.89 779.09 398.64 740.70 516.83 638.53 608.78 761.38 599.27
00001598 00000047 459.43 194.85 364.69 531.42 617.81 413.24 778.01 400.34 738.32 517.86 637.99 610.09 760.29 599.83
00001599 00000048 459.10 196.05 364.16 529.38 616.18 414.68 776.55 400.78 736.69 518.93 637.41 611.03 759.24 599.89
00001600 00000049 457.64 192.92 364.29 530.59 615.49 414.40 775.84 400.31 735.61 517.72 636.64 609.59 758.68 598.29
00001601 00000050 456.53 190.70 365.02 534.07 614.63 414.27 773.76 399.04 734.90 515.62 635.99 608.92 757.86 596.66
00001602 00000051 455.16 188.68 365.42 537.66 612.28 412.81 772.26 399.79 732.12 515.16 633.67 609.09 756.19 598.61
00001603 00000052 455.57 193.45 364.39 540.15 609.41 412.53 768.90 402.08 727.75 516.16 630.58 611.13 753.66 602.66
00001604 00000053 456.29 197.44 362.88 542.73 608.18 415.07 766.97 403.89 726.52 519.24 627.07 612.72 752.84 603.71
00001605 00000054 456.38 198.81 363.04 538.77 607.36 416.09 766.98 403.40 725.50 521.86 627.26 614.24 751.95 603.98
00001606 00000055 455.87 196.19 362.42 534.77 606.21 415.26 767.41 401.83 724.90 517.90 628.68 611.53 753.21 600.57
00001607 00000056 454.96 193.08 362.07 530.33 606.71 413.53 765.72 400.56 723.49 512.37 628.05 604.89 751.83 594.60
00001608 00000057 453.45 189.12 362.22 533.71 605.78 412.46 765.07 399.82 722.52 510.44 627.37 603.89 751.34 593.96
00001609 00000058 453.83 189.62 361.62 535.36 605.42 412.15 763.81 400.28 722.03 509.80 627.03 603.78 751.37 594.51
00001610 00000059 453.69 189.81 361.49 534.69 604.18 413.18 763.40 400.55 720.64 511.11 626.20 604.79 750.47 594.90
00001611 00000060 453.48 195.37 360.40 532.82 602.28 414.54 759.75 401.76 717.67 513.05 625.32 607.36 748.15 597.22
00001612 00000061 453.15 197.23 362.18 530.99 599.80 417.43 761.63 402.50 716.00 518.28 625.93 612.55 749.75 600.36
00001613 00000062 450.22 197.29 363.37 530.70 598.28 420.72 762.08 405.36 715.31 523.23 626.18 616.53 748.10 603.73
00001614 00000063 450.26 198.67 363.40 538.65 596.54 421.06 761.08 405.91 714.92 525.97 625.34 621.17 749.22 608.34
00001615 00000064 449.88 201.13 360.73 546.34 597.29 420.57 753.74 406.65 712.52 525.14 619.56 618.05 744.05 606.27
00001616 00000065 448.54 199.94 359.45 546.34 596.25 418.28 750.36 406.70 709.63 520.41 616.25 612.34 741.78 602.64
00001617 00000066 448.08 197.79 357.48 544.03 594.83 417.08 747.70 405.56 706.61 517.82 615.40 609.51 738.95 600.01
00001618 00000067 446.93 196.89 357.12 536.11 593.04 416.58 748.36 404.61 706.18 517.55 615.98 607.76 737.79 598.20
00001619 00000068 445.42 196.33 358.45 533.33 591.41 417.50 750.71 404.69 706.51 518.31 617.00 608.69 740.24 598.33
00001620 00000069 446.80 199.55 358.61 530.87 592.42 418.65 751.80 405.21 707.34 519.62 617.64 610.06 740.49 599.11
00001621 00000070 447.36 200.63 358.96 531.13 592.93 419.30 752.89 406.93 708.08 520.42 617.23 610.84 740.75 600.79
00001622 00000071 447.37 200.56 358.15 527.83 593.02 419.02 753.33 405.95 708.52 519.37 618.41 610.13 740.88 599.51
00001623 00000072 447.17 198.73 356.86 526.94 592.55 420.92 752.03 406.71 707.30 518.45 619.70 610.37 740.72 598.78
00001624 00000073 444.91 198.23 357.60 525.69 589.86 421.10 750.87 406.45 705.49 519.00 618.96 609.87 740.48 597.92
00001625 00000074 442.45 197.95 360.12 532.96 588.72 422.98 749.82 408.72 704.29 521.64 616.50 612.84 740.26 601.08
00001626 00000075 440.81 199.13 360.86 534.90 588.02 424.71 748.26 410.70 702.87 523.96 615.06 615.39 737.76 603.84
00001627 00000076 439.71 199.51 361.07 533.92 587.42 424.18 747.44 410.72 701.94 523.02 613.80 613.73 736.59 602.67
00001628 00000077 439.07 196.03 360.81 535.21 586.76 422.46 746.36 408.92 701.17 520.87 613.85 611.69 736.21 600.63
00001629 00000078 438.92 194.99 359.51 539.78 587.05 420.89 743.04 408.16 699.09 520.02 611.82 610.16 733.74 599.78
00001630 00000079 440.26 196.08 359.43 547.11 587.80 421.76 742.10 408.42 699.64 521.36 609.79 612.56 734.06 601.56
00001631 00000080 443.18 198.66 360.07 548.69 590.10 422.58 744.45 410.47 702.11 521.16 609.84 612.79 736.80 602.77
00001632 00000081 444.88 200.55 359.46 546.44 592.01 421.69 746.17 408.85 705.21 519.46 612.35 612.16 738.78 601.47
00001633 00000082 444.99 196.08 359.44 535.83 592.18 417.37 749.07 404.13 707.50 514.08 616.94 606.93 740.44 596.22
00001634 00000083 446.74 188.31 360.34 529.19 596.11 412.62 753.77 397.46 712.76 505.41 621.78 598.17 745.60 586.19
00001635 00000084 446.02 179.07 361.07 531.47 597.83 407.72 755.92 390.35 716.79 499.10 624.80 594.15 748.47 580.40
00001636 00000085 445.18 177.22 360.35 534.69 597.65 407.73 754.84 390.67 716.87 499.32 626.13 595.98 747.18 582.49
00001637 00000086 445.33 183.18 357.25 525.89 594.06 410.26 752.40 395.00 710.37 502.53 626.53 600.05 743.09 587.76
00001638 00000087 444.29 186.03 358.37 531.10 593.87 414.62 750.81 398.45 709.78 508.70 626.23 605.56 742.28 592.30
00001639 00000088 444.49 187.69 357.72 541.99 594.20 415.65 748.84 400.44 710.54 509.09 626.18 610.42 742.77 597.67
00001640 00000089 444.24 180.38 359.44 543.70 594.30 412.02 749.68 396.85 711.77 504.43 626.13 606.19 742.64 593.87
00001641 00000090 443.51 175.18 360.26 539.06 593.53 406.05 750.71 390.76 712.32 498.12 626.23 600.14 742.37 587.92
00001642 00000091 443.42 175.53 359.88 540.39 592.63 407.26 749.71 391.57 710.57 499.45 625.33 601.18 741.79 588.58
00001643 00000092 443.34 181.57 358.41 550.68 590.91 413.29 744.77 400.00 706.72 507.08 619.49 606.87 739.25 595.97
00001644 00000093 441.37 190.04 358.98 552.56 589.04 418.13 742.88 403.36 702.31 518.12 614.25 611.75 737.45 599.21
00001645 00000094 441.61 198.62 368.90 549.56 583.04 419.11 749.60 405.53 707.45 526.10 612.14 623.82 742.30 612.47
00001646 00000095 442.65 199.96 369.09 547.47 583.68 422.16 750.46 407.91 708.56 528.82 614.04 626.01 744.26 614.31
00001647 00000096 443.66 204.43 363.23 540.48 589.70 429.19 750.40 411.65 707.39 530.01 617.92 622.32 744.32 607.55
00001648 00000097 444.42 205.34 362.58 539.78 591.12 428.98 751.40 411.81 708.81 530.58 619.01 622.20 745.04 607.68
00001649 00000098 444.74 205.01 363.32 540.50 591.08 430.96 751.99 412.78 709.40 531.89 620.01 623.72 746.79 608.38
00001650 00000099 445.76 201.20 367.45 546.43 586.91 427.60 753.36 412.18 711.26 533.04 618.69 629.83 748.15 617.58
00001651 00000100 445.21 201.82 367.30 547.07 590.02 432.48 755.06 417.04 711.63 537.12 619.86 633.93 746.24 622.02
00001652 00000101 446.67 202.22 367.03 546.84 592.80 434.50 757.14 418.95 713.86 537.04 620.95 634.90 747.22 623.05
00001653 00000102 448.78 204.58 366.13 544.57 593.18 435.49 756.66 420.64 713.77 535.87 622.29 635.13 747.93 623.72
00001654 00000103 450.06 208.22 365.35 542.45 593.60 436.12 755.30 421.89 712.78 536.15 622.69 635.34 747.16 624.34
00001655 00000104 451.54 210.92 365.03 546.23 594.51 437.73 754.11 424.43 712.39 537.37 623.51 637.18 747.54 626.50
00001656 00000105 451.25 213.65 365.32 547.11 593.90 440.99 752.45 427.77 710.49 540.99 621.80 638.61 746.28 627.96
00001657 00000106 450.83 216.26 365.66 547.25 593.27 445.04 751.49 431.34 708.86 544.87 620.91 641.35 745.18 630.19
00001658 00000107 450.34 219.55 366.42 549.10 594.89 447.23 750.53 434.71 709.32 548.33 620.73 644.08 742.04 634.02
00001659 00000108 449.53 223.06 369.20 551.62 596.28 451.09 751.83 439.63 710.53 558.44 619.00 648.37 741.88 639.12
00001660 00000109 446.86 223.03 370.32 557.27 597.57 455.50 750.30 444.58 711.80 564.11 618.63 650.59 741.59 641.81
00001661 00000110 445.31 226.24 371.14 551.73 595.66 453.86 750.47 442.53 709.83 563.45 617.79 649.61 741.50 640.28
00001662 00000111 444.64 220.64 368.47 551.12 592.37 448.42 749.20 435.39 707.60 554.81 617.94 647.35 738.91 636.38
00001663 00000112 444.92 214.81 366.89 549.86 590.77 444.33 749.61 429.56 707.80 545.13 620.48 642.56 743.55 630.10
00001664 00000113 444.05 211.35 365.76 550.06 590.17 440.32 749.60 425.50 709.07 540.50 620.47 639.25 744.40 626.95
00001665 00000114 442.50 210.19 367.06 554.46 590.15 439.85 748.51 426.42 707.78 541.08 618.08 639.15 741.61 627.72
00001666 DELETE   440.31 205.42 367.98 561.48 591.25 439.30 749.08 426.03 708.41 542.56 618.78 641.38 739.28 629.98
00001667 00000116 436.14 209.31 368.80 542.37 586.27 438.60 747.10 418.71 706.55 539.01 620.31 640.09 739.28 623.69
00001668 00000117 434.90 203.81 367.72 548.63 584.68 431.97 746.55 413.41 708.64 532.72 619.67 635.04 742.59 619.35
00001669 00000118 432.17 203.76 368.44 547.89 581.59 426.02 743.87 408.30 705.61 529.61 618.31 633.21 738.50 617.95
00001670 00000119 432.33 206.54 366.95 547.52 582.82 424.67 743.06 408.38 705.57 528.69 618.82 634.73 734.46 620.75
00001671 00000120 430.93 202.98 365.78 555.27 582.88 429.38 741.24 411.30 706.26 531.95 621.74 639.97 733.64 624.47
00001672 00000121 431.47 207.23 365.51 555.71 582.95 436.64 738.57 417.72 702.86 538.41 623.46 644.28 732.47 628.02
00001673 00000122 428.28 215.61 368.09 554.18 582.48 440.27 734.83 423.92 697.29 546.42 621.18 647.17 726.06 632.72
00001674 00000123 426.51 218.61 367.76 556.50 581.54 440.65 731.96 427.92 693.62 550.21 615.15 648.09 719.71 636.96
CROP_BBOX: 145 0 1092 942
