Video ID: 	Jp-ZCY3d-4k
H: 	1080
W: 	1920
FPS: 	29.97002997002997

FRAME INDEX X0 Y0 W H [Landmarks (5 Points)]

00008619 00000000 414.56 169.84 459.38 684.10 590.33 440.85 790.05 410.96 757.14 543.11 655.95 683.33 822.79 658.54
00008620 00000001 412.54 169.98 456.39 686.10 587.71 440.43 786.32 411.49 754.39 541.76 652.77 682.57 820.00 658.44
00008621 00000002 409.31 170.24 456.61 687.58 585.09 440.88 783.75 411.83 751.27 541.81 651.20 684.04 817.70 659.57
00008622 DELETE   409.31 170.24 456.61 687.58 585.09 440.88 783.75 411.83 751.27 541.81 651.20 684.04 817.70 659.57
00008623 00000004 402.87 168.74 458.01 687.21 580.42 441.87 778.95 412.39 746.75 540.58 647.59 683.42 813.38 658.31
00008624 00000005 389.42 172.41 466.91 676.87 570.29 441.63 776.47 405.38 743.76 533.96 640.52 694.66 803.02 662.12
00008625 00000006 379.22 168.12 467.18 682.28 557.49 438.81 767.46 400.61 732.30 532.59 628.59 692.99 793.42 658.71
00008626 00000007 369.00 164.31 468.23 686.61 547.77 439.31 756.94 402.94 721.35 530.97 618.93 691.24 782.90 658.64
00008627 00000008 360.72 170.82 468.74 680.80 540.12 444.62 744.66 407.90 711.52 538.81 609.76 688.15 777.28 658.33
00008628 00000009 349.91 174.54 474.40 680.64 529.48 442.73 734.41 408.62 701.73 538.94 601.16 687.57 770.43 659.59
00008629 00000010 342.29 174.34 473.35 683.31 519.73 443.67 721.71 408.16 689.99 540.68 593.43 688.13 761.90 658.82
00008630 00000011 338.18 174.18 467.28 687.56 512.78 444.84 712.67 409.05 681.57 537.92 589.77 690.64 754.94 660.85
00008631 00000012 335.74 174.74 464.52 686.68 509.28 445.29 707.69 408.59 677.10 537.00 587.18 689.71 751.28 659.13
00008632 00000013 331.76 171.13 463.45 685.66 502.86 444.55 702.84 407.48 669.70 532.54 582.95 689.22 747.22 658.21
00008633 00000014 329.61 167.88 461.82 689.11 500.39 442.66 698.76 405.73 666.86 527.79 580.29 687.75 744.81 656.87
00008634 00000015 325.62 166.83 462.94 689.14 498.58 441.82 696.01 406.21 664.43 525.90 578.87 686.98 741.38 657.19
00008635 00000016 323.83 167.88 463.49 688.29 496.17 441.13 694.19 405.51 662.95 526.41 576.35 687.63 739.01 657.76
00008636 00000017 322.47 167.69 464.71 691.19 495.68 441.77 694.03 405.35 662.81 526.60 576.72 688.35 739.99 657.64
00008637 00000018 321.50 167.79 463.69 689.48 495.23 442.11 693.31 405.34 662.07 526.71 576.11 687.97 738.50 657.03
00008638 DELETE   320.92 168.05 464.20 690.08 495.19 442.05 693.15 405.38 661.89 527.20 575.83 688.02 737.96 657.15
00008639 00000020 320.90 167.87 464.03 689.81 495.27 442.46 692.87 405.53 661.88 526.42 576.37 688.18 737.94 657.11
00008640 DELETE   315.33 170.07 473.58 684.79 496.35 452.78 691.81 415.96 662.44 523.42 575.92 690.01 735.43 659.39
00008641 DELETE   317.43 169.47 472.52 684.78 497.02 452.94 692.41 416.08 661.73 523.69 574.76 689.20 734.92 658.45
00008642 DELETE   318.38 167.82 473.29 685.46 497.96 447.46 695.01 412.02 664.16 520.29 575.45 685.31 738.97 656.20
00008643 00000024 324.23 164.72 468.16 689.27 500.93 441.58 698.75 407.34 666.37 518.77 578.49 682.95 741.63 655.00
00008644 00000025 326.87 162.76 465.89 692.69 501.78 440.17 699.27 405.33 667.04 519.36 578.76 682.59 743.80 654.14
00008645 00000026 329.19 163.51 465.32 692.39 503.04 441.26 701.75 405.68 669.19 524.01 579.60 684.40 746.09 655.06
00008646 00000027 329.74 165.03 465.37 690.31 504.61 440.59 702.89 406.68 670.02 525.81 579.92 683.65 745.83 655.52
00008647 DELETE   328.11 169.65 471.67 684.94 507.39 446.37 703.72 414.85 672.72 523.29 581.10 682.51 746.32 656.44
00008648 DELETE   331.79 169.91 472.94 685.47 511.89 445.53 705.99 412.28 676.46 524.92 583.19 681.50 747.95 654.43
00008649 00000030 336.56 167.68 470.33 688.56 515.46 439.56 711.16 408.41 682.08 522.97 587.89 681.59 752.76 656.11
00008650 00000031 338.79 165.88 469.81 690.37 516.23 437.77 714.84 405.67 684.27 524.77 588.76 681.93 755.79 655.64
00008651 00000032 340.43 164.89 470.12 691.07 516.95 437.36 715.84 403.80 685.36 527.22 589.97 682.38 757.55 654.73
00008652 00000033 343.82 167.89 469.72 686.80 518.97 437.55 720.55 404.36 688.87 530.37 593.15 685.02 760.23 657.50
00008653 00000034 344.49 168.19 468.38 686.73 518.94 437.67 720.81 404.34 688.98 531.28 592.62 685.16 760.23 657.52
00008654 00000035 345.79 169.48 470.52 686.37 521.85 438.90 725.47 406.13 692.98 531.98 595.08 686.90 763.22 659.74
00008655 00000036 347.85 169.38 470.29 686.27 524.38 437.56 727.96 405.66 695.39 531.09 595.96 686.21 763.61 659.87
00008656 00000037 348.65 169.76 470.93 684.88 525.43 437.28 729.05 404.63 695.99 529.52 597.88 686.14 764.71 659.29
00008657 00000038 350.35 168.69 471.77 685.62 528.27 435.97 731.62 403.51 698.61 527.00 600.21 683.92 767.42 657.40
00008658 00000039 350.40 169.03 472.22 684.31 528.04 435.35 732.70 402.72 698.79 526.57 600.10 683.56 768.17 656.95
00008659 00000040 350.37 170.07 473.14 685.64 528.26 435.89 733.01 403.67 699.54 527.09 599.12 684.44 768.55 658.16
00008660 00000041 352.82 169.55 469.50 669.65 529.65 437.65 732.95 404.89 699.20 528.12 600.75 682.37 764.35 656.10
00008661 00000042 352.26 169.42 469.03 672.64 528.27 437.24 733.59 405.14 698.29 528.12 598.73 682.44 766.21 656.58
00008662 00000043 351.91 168.29 472.32 683.34 529.50 435.18 733.52 402.42 700.49 523.24 602.32 682.84 769.07 656.14
00008663 00000044 351.73 168.71 471.87 683.76 529.50 434.17 733.19 402.78 699.35 522.38 599.93 680.97 767.65 655.36
00008664 00000045 352.19 167.52 472.85 686.57 529.55 435.76 733.48 402.94 699.12 525.15 600.47 683.77 768.19 657.12
00008665 00000046 351.59 167.12 473.90 686.96 529.36 436.21 733.77 404.01 698.85 526.04 599.56 684.15 767.79 658.00
00008666 00000047 352.20 168.92 473.10 686.33 530.20 438.34 734.21 406.72 699.58 529.55 598.85 685.22 768.06 659.47
00008667 00000048 352.25 170.50 472.94 684.39 530.05 438.84 734.47 407.10 699.55 529.32 599.47 685.21 768.74 659.32
00008668 00000049 350.96 168.21 473.84 685.58 529.36 437.20 733.33 405.08 698.82 526.20 599.77 683.73 768.14 657.54
00008669 00000050 350.96 168.21 473.84 685.58 529.36 437.20 733.33 405.08 698.82 526.20 599.77 683.73 768.14 657.54
00008670 00000051 349.40 169.48 473.76 683.52 527.56 435.02 730.60 402.24 697.70 521.92 599.92 681.31 767.59 654.45
00008671 00000052 349.68 168.02 473.11 682.82 527.82 435.30 729.63 402.72 697.00 520.77 599.92 679.46 767.17 652.72
00008672 00000053 349.16 167.21 473.54 681.45 526.93 434.80 728.68 401.29 696.99 519.37 599.91 678.67 767.26 651.18
00008673 00000054 349.47 167.78 472.53 682.43 526.93 434.71 728.90 401.52 696.53 520.87 599.06 678.73 766.87 651.56
00008674 00000055 350.35 168.89 472.71 683.43 527.34 437.73 729.46 404.69 696.40 524.04 599.85 682.43 766.77 655.31
00008675 00000056 350.40 170.62 473.74 682.35 527.64 439.23 730.55 406.91 696.12 526.04 599.11 683.30 767.26 656.82
00008676 00000057 350.04 173.12 473.59 682.67 527.86 442.81 732.03 411.28 697.34 531.15 599.04 686.46 768.16 660.30
00008677 00000058 349.50 174.57 474.25 682.97 527.61 442.13 732.53 409.93 698.11 534.67 599.40 687.93 768.43 661.29
00008678 00000059 348.76 175.86 474.52 682.03 526.26 441.54 731.51 408.98 697.22 533.40 599.05 687.83 767.90 660.87
00008679 00000060 348.42 173.69 474.46 683.55 525.80 440.00 729.60 407.71 695.75 530.60 598.47 686.50 766.18 659.74
00008680 00000061 348.15 172.96 474.80 683.86 525.56 439.16 728.86 406.40 695.55 529.19 599.11 686.45 766.15 659.37
00008681 00000062 349.23 172.16 473.91 684.71 525.81 438.10 729.94 405.54 696.26 528.63 598.38 686.04 766.79 659.20
00008682 00000063 349.27 171.57 474.63 685.81 526.10 437.98 730.70 405.52 696.84 527.63 598.93 685.89 767.78 659.11
00008683 00000064 350.77 172.40 473.83 683.96 528.49 440.90 732.11 409.04 697.34 530.50 599.78 686.31 767.61 660.08
00008684 00000065 348.82 176.23 476.22 680.18 531.70 447.06 732.26 419.78 698.21 531.32 599.83 685.72 766.58 663.35
00008685 00000066 348.62 176.01 476.54 681.20 531.75 446.44 732.75 419.59 698.68 530.80 599.46 685.68 766.83 663.66
00008686 00000067 349.16 179.22 477.09 674.12 531.54 455.38 732.19 424.30 697.98 532.16 601.76 686.62 768.68 661.32
00008687 00000068 348.73 178.22 477.60 679.48 533.12 450.56 734.79 422.02 702.02 533.47 602.40 687.46 770.04 664.07
00008688 00000069 350.82 171.63 477.40 685.53 533.48 446.46 739.59 416.66 703.20 535.11 602.66 689.56 772.54 665.02
00008689 00000070 353.25 170.79 475.74 685.53 534.51 443.58 739.62 412.10 704.15 533.33 604.15 688.86 772.57 663.29
00008690 00000071 353.14 170.64 476.08 686.78 534.73 442.51 739.98 411.04 704.48 533.59 603.19 688.69 772.22 663.16
00008691 00000072 355.72 168.97 474.22 687.21 536.37 442.15 741.47 409.52 706.35 534.14 605.11 689.35 773.54 662.94
00008692 00000073 355.86 168.61 474.23 685.72 536.79 442.10 742.42 409.82 707.14 534.12 605.15 688.81 773.40 662.63
00008693 00000074 355.72 169.58 474.86 686.42 537.25 442.23 743.27 409.68 708.05 535.37 605.42 689.75 774.01 663.42
00008694 00000075 356.27 169.72 474.03 685.71 537.57 442.30 743.62 409.84 708.13 536.12 605.46 689.41 773.95 663.13
00008695 00000076 356.24 169.95 473.96 685.32 537.27 442.08 743.22 409.66 707.87 535.87 605.38 689.36 773.66 663.12
00008696 00000077 354.56 168.62 476.49 687.96 536.16 441.96 742.91 409.76 707.31 535.38 604.67 689.62 774.29 663.51
00008697 00000078 355.42 169.53 475.19 688.38 536.93 442.18 742.75 410.40 707.06 535.86 604.69 689.69 773.47 663.93
00008698 00000079 354.99 168.61 475.75 689.98 537.17 442.30 743.02 410.38 707.43 536.46 604.33 690.02 773.28 664.13
00008699 00000080 355.60 168.64 474.67 689.89 537.64 442.75 743.36 411.04 707.72 537.12 604.41 690.16 773.35 664.45
00008700 00000081 355.23 169.17 474.56 689.64 537.40 443.48 743.31 412.06 707.47 537.68 604.59 691.06 773.12 665.53
00008701 00000082 355.23 169.17 474.56 689.64 537.40 443.48 743.31 412.06 707.47 537.68 604.59 691.06 773.12 665.53
00008702 00000083 352.34 175.18 476.79 686.47 538.19 450.35 739.35 422.04 706.40 537.20 604.36 690.22 771.23 666.99
00008703 00000084 352.45 176.32 475.91 682.58 535.94 456.81 737.76 424.95 702.69 536.92 603.56 691.41 770.20 665.38
00008704 00000085 351.60 178.06 475.39 683.79 535.41 452.16 736.67 423.09 703.44 537.39 603.17 691.49 769.67 667.69
00008705 00000086 352.82 173.27 474.14 688.91 535.74 448.63 738.71 420.38 703.02 538.68 603.10 692.35 769.86 669.18
00008706 00000087 352.48 171.91 474.46 689.27 534.17 445.57 739.23 415.40 702.90 538.49 602.93 692.31 770.11 667.70
00008707 00000088 351.84 171.69 474.60 689.04 532.67 444.24 737.00 413.38 701.61 536.59 602.31 692.07 768.23 667.03
00008708 00000089 351.79 173.40 473.39 687.35 530.58 443.33 735.52 412.37 699.63 535.30 601.97 691.77 767.81 666.50
00008709 00000090 352.02 172.61 472.35 687.52 529.62 442.91 734.42 412.19 698.99 534.18 601.47 692.10 767.25 667.04
00008710 00000091 350.04 174.26 474.32 687.57 527.14 442.35 731.50 411.49 696.13 532.78 600.92 693.05 765.53 667.68
00008711 00000092 350.37 174.02 474.31 690.64 524.90 442.37 729.58 410.89 694.29 531.94 600.37 695.48 765.07 669.55
00008712 00000093 347.83 173.95 477.75 696.96 523.46 441.35 729.73 410.22 694.55 531.85 601.30 699.24 766.15 673.49
00008713 00000094 345.49 170.42 474.80 704.06 525.24 432.96 729.26 407.80 693.66 528.53 595.93 699.62 757.97 676.64
00008714 00000095 345.10 171.46 474.59 703.42 524.81 432.40 728.43 407.07 692.45 530.32 595.50 700.43 757.49 677.21
00008715 00000096 342.30 172.01 476.33 704.53 522.82 432.46 727.42 408.15 691.25 531.61 590.38 699.59 756.33 676.89
00008716 00000097 341.30 170.93 476.76 704.28 522.16 433.16 727.73 408.77 690.19 532.41 587.16 697.09 756.20 674.02
00008717 00000098 341.53 170.75 476.68 704.98 522.38 432.67 727.78 408.96 690.71 531.69 586.90 696.80 756.32 674.34
00008718 00000099 342.77 174.00 477.26 697.25 517.50 439.12 723.88 410.35 688.72 534.28 589.42 696.23 758.21 672.34
00008719 00000100 343.04 174.24 476.54 691.74 516.61 439.82 724.43 410.32 686.93 535.26 587.58 694.03 758.44 669.52
00008720 00000101 343.21 172.01 475.05 688.76 515.84 440.65 724.99 411.12 685.75 536.38 583.75 691.08 758.25 666.47
00008721 00000102 343.08 172.32 475.44 686.73 515.26 441.07 725.18 409.88 686.40 537.71 584.51 691.23 759.31 665.27
00008722 00000103 342.88 171.72 475.77 687.11 515.05 441.45 724.62 410.45 686.16 537.32 585.04 690.92 759.56 665.05
00008723 00000104 342.13 172.38 475.78 684.41 515.30 441.72 724.60 410.74 685.53 538.29 585.29 689.91 759.04 664.06
00008724 00000105 342.45 172.26 476.00 683.44 515.34 442.27 724.47 410.01 685.46 538.19 586.77 690.02 759.66 663.14
00008725 00000106 342.17 172.78 476.95 680.27 515.91 444.61 724.92 411.06 685.61 539.77 586.89 688.54 761.15 660.60
00008726 00000107 343.01 172.55 476.14 678.74 516.32 445.24 724.32 411.22 685.04 540.15 588.17 688.80 760.83 660.53
00008727 00000108 342.37 172.16 477.36 679.69 515.72 444.88 724.81 410.56 685.56 539.56 588.17 688.93 762.35 660.32
00008728 00000109 342.38 172.78 476.55 678.85 515.47 445.34 724.49 411.19 685.36 539.63 587.60 688.91 761.63 660.44
00008729 00000110 342.28 171.89 476.56 679.52 515.54 445.31 723.89 411.14 685.14 539.34 587.53 688.55 761.65 660.09
00008730 00000111 341.93 173.60 477.16 679.45 514.74 445.26 723.56 410.42 684.89 539.47 587.68 689.12 762.27 660.08
00008731 00000112 341.51 173.16 476.68 679.04 513.71 444.26 722.54 408.69 684.66 538.77 587.93 689.22 761.87 659.54
00008732 00000113 342.09 172.59 476.40 679.99 513.60 444.65 721.39 408.07 684.01 538.85 588.35 689.42 761.90 658.91
00008733 00000114 342.73 172.42 476.22 680.53 513.37 444.42 722.12 408.11 684.27 538.08 587.71 688.78 762.93 658.52
00008734 00000115 343.30 171.19 475.64 679.90 514.17 444.12 722.09 407.51 684.71 537.71 589.15 688.58 762.79 658.14
00008735 00000116 343.59 170.68 475.18 678.83 514.13 443.47 722.32 407.12 684.57 536.78 588.95 687.56 762.67 657.44
00008736 00000117 343.14 170.93 475.88 678.57 513.93 443.44 722.00 406.80 684.48 536.35 589.28 687.67 762.81 657.30
00008737 00000118 343.16 171.98 476.61 677.86 513.88 443.43 722.34 406.91 684.38 535.98 589.59 687.69 763.43 657.41
00008738 00000119 343.04 172.42 477.10 680.05 513.52 443.27 722.34 407.05 684.20 535.72 588.73 688.29 763.55 658.17
00008739 00000120 343.26 172.17 476.57 680.22 513.70 443.11 722.47 406.95 684.62 535.67 588.76 688.20 763.63 658.21
00008740 00000121 343.07 173.94 476.64 676.76 513.27 443.27 722.33 407.10 684.05 535.75 589.22 688.29 762.95 658.29
00008741 00000122 343.72 172.20 476.90 679.52 514.15 443.10 723.22 407.82 684.76 534.23 588.84 688.03 763.78 658.76
00008742 00000123 343.59 172.67 477.25 683.71 513.97 441.82 723.09 406.53 685.13 533.16 589.17 689.03 764.65 659.69
00008743 00000124 343.75 172.64 477.13 682.81 514.54 442.04 723.12 406.73 685.39 532.74 590.44 689.57 764.44 660.25
00008744 00000125 344.01 171.83 477.07 685.10 514.77 441.22 722.58 405.73 685.63 531.68 591.37 688.84 765.32 659.41
00008745 00000126 343.97 172.90 476.20 684.73 515.03 440.90 721.59 405.62 685.64 530.33 592.22 688.14 765.05 658.81
00008746 00000127 344.80 172.10 475.93 682.19 516.72 441.03 721.20 405.25 685.27 531.01 597.05 689.86 763.19 660.35
00008747 00000128 344.98 172.17 475.20 680.23 516.31 441.93 720.96 406.48 684.20 530.26 596.59 689.11 762.74 659.78
00008748 00000129 344.80 172.21 475.42 680.05 516.39 441.99 720.92 406.62 684.25 530.23 596.65 689.00 762.65 659.73
00008749 00000130 344.74 171.96 475.54 679.83 517.33 442.71 720.40 407.60 683.98 530.59 596.91 688.12 761.74 659.17
00008750 00000131 344.76 171.59 475.29 676.21 517.23 442.94 719.37 408.02 682.41 528.68 597.38 686.80 759.86 658.08
00008751 00000132 344.78 171.72 474.93 674.43 516.89 443.03 718.96 406.91 682.20 529.32 597.42 686.28 759.81 656.67
CROP_BBOX: 94 0 1094 1019
