Video ID: 	_gqtU4CNAW8
H: 	1080
W: 	1920
FPS: 	25.0

FRAME INDEX X0 Y0 W H [Landmarks (5 Points)]

00005895 00000000 827.29 75.05 514.51 750.07 890.90 364.79 1097.80 371.80 925.01 522.19 932.52 649.65 1078.68 655.42
00005896 00000001 825.89 69.00 513.20 753.95 888.46 361.23 1096.80 366.48 922.82 515.88 928.27 650.68 1073.16 654.80
00005897 00000002 826.35 81.34 506.91 747.27 885.42 370.86 1086.38 360.77 921.58 517.81 923.85 659.15 1074.86 653.81
00005898 00000003 816.48 68.38 516.63 768.85 875.67 365.00 1076.76 360.91 914.49 520.92 921.92 656.50 1069.79 653.48
00005899 00000004 801.03 79.62 520.18 754.83 863.13 369.89 1068.52 367.41 905.74 531.33 909.40 657.09 1067.65 655.38
00005900 00000005 794.08 84.31 526.12 755.74 865.81 377.25 1066.31 376.83 906.27 538.92 909.66 650.45 1068.50 648.87
00005901 00000006 796.52 87.89 522.33 752.55 860.37 383.23 1071.03 378.18 914.29 547.89 905.13 654.21 1083.46 649.10
00005902 00000007 798.73 92.92 527.11 760.39 864.74 390.64 1076.34 382.45 918.17 555.40 913.92 664.24 1098.77 655.64
00005903 00000008 793.71 86.80 532.54 780.18 860.86 399.86 1074.39 380.73 917.48 556.14 917.05 683.62 1096.65 666.22
00005904 00000009 787.93 91.35 531.70 767.60 853.82 402.00 1070.54 381.20 913.48 554.77 909.32 685.36 1085.07 667.26
00005905 00000010 789.63 93.80 529.66 761.66 858.69 402.75 1073.28 384.23 920.55 555.75 914.24 683.14 1081.79 667.39
00005906 00000011 798.20 95.24 536.20 773.01 871.86 400.97 1088.25 385.28 935.80 560.70 927.24 682.94 1098.70 669.02
00005907 00000012 801.80 80.87 539.35 795.58 882.41 412.21 1111.49 394.42 956.23 567.87 942.80 701.03 1119.09 686.27
00005908 00000013 820.90 131.05 530.91 752.59 895.05 425.69 1115.28 395.63 970.41 572.63 957.32 703.83 1144.10 680.45
00005909 00000014 826.34 136.22 536.32 758.96 906.21 428.19 1122.71 399.89 978.74 579.35 970.34 708.45 1157.67 685.87
00005910 00000015 832.26 128.80 549.03 778.00 913.10 436.26 1133.27 413.41 983.96 590.20 979.16 710.93 1168.47 689.36
00005911 DELETE   853.28 130.10 536.09 773.54 935.69 441.77 1146.54 419.82 1000.24 592.22 996.67 709.75 1182.80 689.02
00005912 00000017 866.62 127.88 536.01 774.11 950.47 435.84 1167.21 420.51 1020.74 593.67 1007.11 704.73 1196.40 690.03
00005913 00000018 871.44 138.74 535.03 756.98 953.63 443.92 1186.74 423.77 1038.23 601.45 1013.39 707.68 1216.45 688.50
00005914 00000019 875.86 124.38 530.27 769.09 959.74 444.04 1188.87 427.91 1044.33 608.76 1016.58 707.82 1215.57 691.88
00005915 00000020 878.53 117.55 528.42 776.77 963.48 447.12 1193.08 430.88 1048.53 612.59 1019.04 714.39 1215.62 697.96
00005916 00000021 879.28 120.30 530.40 781.95 967.38 450.52 1198.92 434.86 1055.16 616.41 1021.75 717.54 1219.79 701.81
00005917 00000022 882.28 145.89 531.14 760.35 970.42 451.81 1206.05 437.88 1060.16 621.74 1024.32 718.81 1224.35 705.02
00005918 00000023 887.74 148.67 531.56 764.99 978.51 449.15 1209.28 433.72 1070.27 619.54 1028.52 723.49 1230.18 709.52
00005919 00000024 890.71 145.54 533.01 770.09 985.98 453.03 1218.27 434.07 1081.48 619.03 1039.31 726.31 1243.18 709.16
00005920 00000025 891.25 141.61 536.07 777.35 989.88 454.89 1229.63 434.82 1092.62 619.65 1042.60 733.12 1250.18 715.13
00005921 00000026 893.70 159.37 537.31 764.40 996.44 463.28 1229.86 446.27 1096.40 628.66 1047.72 737.55 1251.30 721.98
00005922 00000027 900.18 166.21 532.55 757.14 1003.17 477.92 1229.22 461.91 1098.19 634.27 1051.71 740.99 1250.49 726.29
00005923 00000028 901.94 158.92 530.12 769.75 1003.73 482.11 1228.92 466.90 1098.00 638.90 1052.00 749.78 1245.58 736.40
00005924 00000029 902.12 169.99 530.92 768.00 1001.59 486.16 1229.97 469.87 1097.62 647.17 1054.21 762.59 1239.22 748.79
00005925 00000030 900.43 163.47 531.37 774.03 1000.63 485.15 1228.02 469.43 1100.05 645.39 1063.92 774.27 1229.78 761.72
00005926 00000031 900.19 157.00 530.47 777.27 997.89 480.78 1227.12 464.35 1098.23 646.34 1064.01 775.24 1227.98 762.34
00005927 00000032 895.82 137.68 534.47 792.61 992.41 474.37 1225.06 457.92 1090.80 640.23 1055.77 769.75 1224.72 756.61
00005928 00000033 894.53 151.37 535.77 777.29 981.61 467.68 1216.69 451.92 1072.83 635.01 1037.64 754.03 1228.85 740.34
00005929 00000034 896.45 151.30 533.30 770.71 987.57 461.88 1217.75 448.13 1075.73 623.72 1034.50 736.66 1231.34 724.54
00005930 00000035 902.46 150.88 531.33 770.98 995.74 458.24 1225.87 441.90 1086.63 619.11 1044.28 729.55 1246.46 714.45
00005931 00000036 905.91 152.94 538.33 774.62 1004.56 455.49 1235.53 439.37 1099.29 626.03 1057.44 733.20 1262.45 717.69
00005932 00000037 905.63 156.70 542.46 780.44 1006.77 456.29 1235.88 439.89 1100.26 626.36 1061.62 736.83 1269.32 720.68
00005933 00000038 903.55 158.36 537.70 781.54 996.04 461.63 1226.45 441.86 1086.15 626.18 1052.49 743.44 1258.37 724.76
00005934 00000039 895.65 149.70 534.27 784.54 981.46 463.03 1215.40 447.02 1067.35 629.94 1035.43 748.67 1236.72 734.24
00005935 00000040 888.19 154.48 531.09 762.07 975.47 459.91 1205.89 448.69 1061.55 629.54 1025.19 741.72 1213.20 732.72
00005936 00000041 885.48 152.89 530.62 759.48 971.22 457.36 1203.22 445.92 1057.71 627.20 1020.19 741.49 1205.99 732.50
00005937 00000042 881.46 147.66 534.91 766.65 970.63 455.79 1202.75 441.56 1059.56 623.42 1021.76 740.70 1207.41 729.27
00005938 00000043 880.02 156.87 534.63 754.84 964.54 456.77 1201.13 446.16 1051.86 626.61 1022.44 735.49 1205.28 725.27
00005939 DELETE   872.93 167.12 535.96 740.13 953.03 456.33 1185.71 446.30 1030.67 620.23 1011.59 729.69 1193.63 719.65
00005940 DELETE   858.18 181.09 534.15 712.34 931.28 442.11 1150.15 434.46 1002.35 613.75 989.71 718.25 1165.01 710.54
00005941 DELETE   840.71 166.65 530.79 726.68 911.99 443.52 1127.28 438.09 978.67 613.46 965.50 719.39 1136.88 714.80
00005942 00000047 836.29 157.87 529.74 729.22 906.10 443.98 1119.67 439.76 966.56 609.83 965.18 716.18 1130.00 710.79
00005943 00000048 835.28 149.61 530.13 737.85 905.19 442.48 1118.45 434.64 967.98 606.50 966.54 715.46 1130.83 707.23
00005944 00000049 833.34 137.41 535.10 748.13 909.58 441.67 1123.05 428.59 977.35 603.05 973.25 713.44 1140.24 701.22
00005945 00000050 832.42 132.91 539.16 749.48 909.05 438.17 1123.69 422.50 979.08 600.46 975.79 712.11 1145.26 697.63
00005946 00000051 829.02 136.47 538.28 750.99 903.45 435.76 1118.42 419.61 970.93 594.76 969.66 711.18 1140.09 696.25
00005947 00000052 830.58 141.12 537.42 745.14 897.47 431.49 1113.23 420.37 957.79 592.87 962.00 710.75 1132.95 699.81
00005948 00000053 830.71 142.77 536.64 746.06 899.12 433.04 1114.90 421.33 961.78 594.30 963.30 711.97 1132.22 700.86
00005949 00000054 835.72 137.72 533.12 755.60 911.89 435.50 1124.55 418.83 980.25 598.71 972.58 716.08 1145.68 701.65
00005950 00000055 838.26 135.20 537.66 764.18 917.39 440.89 1133.23 423.66 989.82 605.59 982.77 721.72 1160.12 705.93
00005951 00000056 837.29 148.61 537.79 753.95 913.07 446.35 1128.94 431.52 981.02 609.36 975.11 725.93 1149.85 712.62
00005952 00000057 833.34 148.06 532.14 759.80 903.03 449.31 1118.36 439.66 965.39 616.54 959.25 732.13 1134.15 723.67
00005953 00000058 829.24 166.75 530.61 747.42 900.25 457.64 1109.22 447.14 956.59 621.97 951.96 738.23 1124.33 730.37
00005954 00000059 829.84 168.93 529.26 753.62 902.83 462.27 1113.66 451.84 960.39 623.51 953.46 743.22 1131.80 734.94
00005955 00000060 834.80 175.71 530.77 754.10 907.52 463.58 1124.60 447.75 973.65 624.52 965.01 747.73 1150.19 734.50
00005956 00000061 841.13 169.84 527.95 767.10 911.73 462.54 1129.92 441.41 975.81 620.04 970.47 746.25 1167.20 727.41
00005957 00000062 838.90 172.39 526.43 764.73 909.24 458.44 1126.61 440.83 972.24 617.02 962.80 739.50 1159.00 723.93
00005958 00000063 837.16 167.96 521.53 765.07 907.00 456.23 1120.88 445.70 963.46 616.18 952.79 729.80 1151.65 720.19
00005959 00000064 837.47 170.82 522.06 755.49 907.14 457.96 1123.43 450.75 964.60 620.18 951.86 726.07 1152.53 719.03
00005960 00000065 838.54 172.21 530.10 755.93 911.42 458.47 1129.04 451.11 975.57 630.99 961.63 729.06 1165.16 720.25
00005961 00000066 848.24 186.67 533.21 741.76 920.21 468.77 1142.53 459.83 988.65 639.56 971.21 734.98 1176.15 724.91
00005962 00000067 854.93 177.44 529.26 745.82 929.00 474.22 1146.55 467.41 994.68 646.33 980.07 736.87 1176.60 728.71
00005963 00000068 857.47 174.47 525.84 743.82 930.08 475.55 1144.29 470.36 991.37 646.10 979.52 737.94 1170.06 731.35
00005964 00000069 859.67 177.77 526.28 743.25 929.88 473.71 1143.38 472.46 987.32 647.01 978.16 738.18 1167.59 734.89
00005965 00000070 863.75 180.97 525.82 739.10 932.04 471.10 1144.33 470.44 987.83 643.46 980.75 736.89 1167.26 734.18
00005966 00000071 873.54 183.60 524.94 743.93 940.94 470.58 1154.45 468.78 997.34 643.00 989.07 739.85 1177.64 735.89
00005967 00000072 880.88 180.95 528.63 749.26 952.71 470.22 1169.32 468.98 1015.38 645.39 1003.96 741.06 1192.54 737.37
00005968 00000073 878.06 158.54 535.04 776.30 956.73 484.14 1185.29 468.66 1033.82 650.70 1010.94 757.84 1211.38 742.73
00005969 00000074 880.34 173.14 535.75 763.62 956.18 486.08 1189.01 469.23 1036.49 651.69 1012.22 763.54 1212.13 747.67
00005970 00000075 882.72 190.52 531.82 745.79 957.11 485.73 1185.83 474.95 1030.54 651.40 1010.26 760.90 1205.96 750.25
00005971 00000076 881.66 196.54 528.89 739.73 953.91 480.83 1175.50 478.09 1017.12 650.63 1003.68 757.34 1192.60 753.46
00005972 00000077 885.13 190.95 527.99 742.50 954.63 482.77 1174.25 479.06 1015.08 648.56 996.17 755.48 1184.74 752.04
00005973 00000078 885.57 193.68 526.44 741.61 957.29 481.62 1185.09 481.54 1024.86 652.27 1002.15 758.93 1191.54 757.81
00005974 00000079 886.97 202.44 530.22 737.76 959.00 486.26 1191.22 481.00 1032.80 656.02 1007.57 762.66 1203.62 756.94
00005975 00000080 886.77 202.82 529.56 738.91 959.69 488.62 1192.34 480.88 1035.87 656.93 1009.79 764.97 1205.64 757.14
00005976 00000081 885.74 194.46 528.84 747.18 959.23 486.42 1189.05 481.47 1031.69 656.22 1007.97 763.60 1200.10 758.16
00005977 00000082 885.30 191.37 528.75 749.00 957.85 485.12 1182.68 480.00 1023.78 650.75 997.45 759.62 1186.58 755.36
00005978 00000083 884.53 189.77 524.87 745.01 957.49 480.25 1184.97 478.98 1025.40 649.09 1002.89 761.11 1186.02 759.48
00005979 00000084 886.26 184.15 524.21 747.55 960.26 478.69 1191.39 474.94 1033.37 647.84 1005.33 765.35 1185.17 762.58
00005980 00000085 889.01 189.16 522.16 740.15 965.14 478.06 1198.66 473.68 1042.89 646.04 1009.75 768.00 1181.19 765.74
00005981 00000086 889.68 193.52 523.65 736.82 968.30 481.24 1200.84 472.72 1048.19 645.84 1017.96 775.46 1182.29 769.67
00005982 00000087 889.46 192.99 524.44 740.28 965.15 480.77 1196.06 471.02 1042.59 646.08 1017.41 776.88 1179.82 770.01
00005983 00000088 888.72 185.55 524.22 747.51 961.21 478.23 1191.60 470.04 1032.92 643.15 1009.86 773.71 1177.19 767.99
00005984 00000089 887.70 177.68 521.97 751.65 958.44 472.62 1186.60 469.71 1025.35 642.65 1002.07 764.78 1175.87 762.81
00005985 00000090 887.92 180.92 521.02 748.98 959.88 473.96 1187.49 472.21 1027.62 643.71 1002.03 763.07 1177.11 762.04
00005986 00000091 888.52 205.49 523.59 737.18 961.89 481.82 1192.19 477.82 1036.81 652.09 1009.59 772.18 1186.10 769.29
00005987 00000092 892.90 191.05 522.70 756.64 968.95 488.59 1192.18 475.81 1044.60 651.35 1014.67 770.55 1194.76 762.73
00005988 00000093 891.69 188.05 522.86 762.76 969.05 494.59 1191.03 481.40 1044.79 655.49 1013.39 774.43 1193.02 766.31
00005989 00000094 887.15 187.53 524.78 762.20 961.32 491.00 1189.58 485.65 1032.74 662.40 1003.66 777.09 1183.19 773.49
00005990 00000095 882.46 188.60 526.51 762.02 958.24 494.03 1181.64 489.33 1025.61 664.45 1003.20 779.39 1179.07 776.08
00005991 00000096 891.07 191.20 517.00 756.87 963.68 496.82 1169.24 495.63 1022.30 665.39 1010.11 777.27 1166.82 775.91
00005992 00000097 889.04 190.71 517.01 757.46 962.97 498.42 1167.88 496.53 1022.93 668.66 1011.46 775.46 1170.43 773.26
00005993 00000098 876.19 200.84 527.17 749.66 952.91 500.99 1167.33 495.70 1023.49 668.30 1012.80 779.25 1173.91 773.30
00005994 DELETE   870.70 215.97 522.98 725.08 940.15 508.64 1150.64 501.79 1003.49 672.33 999.11 774.35 1162.44 767.22
00005995 DELETE   856.06 199.97 518.54 728.30 918.18 513.17 1129.42 507.53 979.24 672.88 970.16 768.98 1133.81 764.90
00005996 DELETE   842.84 198.81 518.06 728.09 904.51 505.17 1117.99 504.61 960.59 669.99 953.94 767.00 1116.13 767.17
00005997 00000102 830.66 165.38 527.29 770.40 895.57 499.84 1114.19 503.23 951.45 670.46 941.10 772.91 1106.14 776.36
00005998 00000103 831.09 173.31 523.45 776.12 894.19 505.29 1113.62 507.60 954.94 679.53 941.27 781.89 1110.88 784.03
00005999 DELETE   828.27 183.34 527.24 780.31 896.18 513.26 1115.77 516.12 957.37 687.40 942.46 793.82 1114.98 796.45
00006000 00000105 821.60 184.52 530.33 792.99 891.81 519.32 1110.66 522.48 951.57 692.97 936.77 805.85 1108.91 808.57
00006001 DELETE   817.59 180.84 527.38 797.43 884.64 522.36 1099.98 523.75 941.13 696.08 931.44 812.65 1099.92 813.58
00006002 00000107 827.15 181.85 516.09 787.02 885.96 518.88 1095.51 528.37 937.04 695.69 932.50 808.18 1080.83 815.42
00006003 DELETE   822.73 172.51 525.60 794.50 889.00 514.66 1109.18 521.24 946.53 692.47 931.32 805.94 1097.75 811.84
00006004 DELETE   828.52 172.45 530.22 785.92 896.59 515.11 1122.74 520.92 960.47 694.84 941.65 801.71 1112.71 807.13
00006005 00000110 832.94 175.02 531.92 789.17 904.05 513.95 1128.18 517.51 967.22 694.46 951.06 801.97 1123.79 805.62
00006006 00000111 835.06 173.96 532.58 793.86 905.20 513.84 1125.82 515.09 965.39 691.27 955.79 801.66 1127.86 802.81
00006007 00000112 835.04 170.73 534.70 809.79 903.02 512.52 1119.95 513.26 956.11 692.50 954.45 805.87 1129.87 805.89
00006008 00000113 835.00 182.84 534.04 802.29 903.35 512.28 1115.53 513.89 952.38 692.65 956.18 804.22 1131.86 804.81
00006009 DELETE   843.91 171.96 534.49 809.39 916.39 515.08 1127.47 512.41 969.24 686.53 967.05 799.38 1140.49 796.76
00006010 DELETE   857.80 202.46 528.80 771.74 932.15 510.53 1147.15 508.82 993.96 685.45 985.62 791.99 1161.39 789.91
00006011 00000116 864.99 178.19 529.01 793.83 944.84 508.00 1159.84 505.59 1009.63 680.94 998.43 790.68 1173.22 787.67
00006012 DELETE   864.33 174.05 528.64 793.66 941.91 506.26 1157.62 506.10 1004.98 679.36 991.98 787.30 1165.82 786.41
00006013 00000118 862.00 178.10 526.16 790.48 933.33 505.89 1147.00 508.57 989.34 679.03 978.18 788.46 1148.54 790.70
00006014 00000119 860.64 188.00 526.87 777.43 931.51 506.07 1146.42 510.15 985.45 678.31 975.11 792.04 1137.68 796.27
00006015 00000120 862.92 189.73 528.80 779.54 940.49 507.46 1157.64 507.56 1000.42 676.01 987.59 796.78 1148.80 797.79
00006016 00000121 872.04 184.04 531.37 790.94 950.37 505.91 1166.27 503.79 1011.59 672.81 1000.01 793.16 1162.36 791.57
00006017 00000122 873.56 186.19 530.47 790.10 953.00 504.77 1163.65 502.06 1014.44 673.71 1006.91 791.84 1171.55 788.73
00006018 00000123 870.93 189.72 522.98 775.63 944.87 505.13 1155.67 507.27 1002.35 679.24 993.28 784.36 1163.00 785.29
00006019 DELETE   866.49 199.24 517.58 756.30 937.07 502.00 1149.28 511.19 992.26 678.34 976.05 779.38 1140.92 787.23
00006020 00000125 869.19 185.80 517.67 768.05 939.19 500.19 1154.66 510.10 994.85 672.35 974.95 779.72 1137.02 788.76
00006021 00000126 876.47 183.93 522.24 776.85 947.85 497.81 1166.23 505.09 1009.38 673.25 989.56 785.36 1150.85 792.06
00006022 00000127 879.31 175.86 526.81 792.55 953.55 497.79 1172.02 502.20 1016.69 671.69 1002.02 789.16 1162.43 792.85
00006023 DELETE   877.66 168.61 527.07 793.52 949.87 497.60 1168.11 501.13 1011.85 670.05 996.44 788.50 1155.81 791.62
00006024 DELETE   871.84 160.32 525.77 794.74 944.58 495.98 1159.62 500.30 1001.77 666.36 989.97 785.78 1144.49 789.91
00006025 00000130 866.21 161.96 525.70 802.15 941.10 496.84 1152.81 499.91 996.99 664.47 985.00 788.82 1138.84 792.19
00006026 00000131 867.23 162.91 528.90 807.14 947.47 495.51 1157.65 495.13 1004.87 662.11 998.51 794.85 1144.96 795.10
00006027 00000132 871.95 170.83 531.26 803.12 953.66 497.25 1172.10 495.95 1022.50 666.74 1008.10 797.70 1160.77 796.81
00006028 00000133 873.55 179.44 531.13 806.78 961.85 508.79 1173.75 503.83 1028.08 675.77 1013.34 804.32 1166.08 800.27
00006029 DELETE   871.30 155.49 534.63 821.89 956.22 503.32 1179.04 497.47 1031.41 670.14 1009.90 799.55 1170.42 794.75
00006030 00000135 862.85 162.27 535.16 815.24 947.86 505.22 1165.63 496.66 1020.51 670.57 1003.57 803.11 1160.65 796.41
00006031 00000136 857.22 167.94 538.25 811.29 945.17 506.75 1162.02 497.21 1016.85 672.34 1003.47 805.58 1159.33 798.10
00006032 00000137 860.21 171.83 538.13 810.86 951.13 508.22 1169.20 498.00 1028.06 676.44 1011.67 803.11 1173.86 794.35
00006033 00000138 864.33 175.15 543.63 812.86 959.16 512.41 1178.14 499.27 1038.09 676.52 1017.86 801.34 1192.10 789.05
00006034 00000139 864.09 172.95 542.42 812.53 957.56 512.93 1177.33 501.28 1035.93 680.27 1015.66 796.86 1195.12 785.41
00006035 00000140 859.34 182.48 537.09 795.20 948.72 510.93 1167.87 503.25 1025.28 684.93 1005.49 790.83 1186.97 782.83
00006036 00000141 856.34 174.21 534.93 804.68 940.89 510.81 1158.37 503.27 1011.60 683.11 995.32 792.12 1175.22 784.61
00006037 00000142 857.00 170.17 532.85 807.25 941.79 510.67 1158.26 502.03 1011.96 678.31 997.27 798.37 1166.92 790.65
00006038 00000143 857.97 167.64 536.36 810.65 946.31 511.34 1166.36 501.65 1021.10 677.73 1001.79 799.17 1172.64 790.86
00006039 00000144 863.76 184.00 533.75 790.98 951.94 517.12 1163.60 508.75 1022.15 685.87 1005.69 798.09 1170.66 789.82
CROP_BBOX: 474 0 1761 1080
