Video ID: 	x8jh-HSogFA
H: 	2160
W: 	3840
FPS: 	24.0

FRAME INDEX X0 Y0 W H [Landmarks (5 Points)]

00012011 00000000 1206.13 358.76 874.00 1193.97 1330.06 874.98 1674.76 767.26 1454.07 1015.72 1448.52 1288.87 1730.37 1197.43
00012012 00000001 1191.24 327.84 884.84 1222.15 1318.54 874.75 1662.72 756.00 1443.70 1011.25 1445.57 1287.62 1728.89 1186.64
00012013 00000002 1176.83 324.77 879.60 1217.43 1292.66 877.52 1629.30 753.45 1431.47 1015.38 1448.80 1281.29 1717.16 1177.54
00012014 00000003 1158.92 340.81 883.58 1199.63 1278.40 875.97 1616.10 757.56 1422.81 1017.54 1433.26 1277.93 1702.16 1178.27
00012015 DELETE   1151.29 352.97 873.51 1179.69 1265.30 885.86 1602.41 764.24 1414.45 1020.11 1427.06 1283.26 1687.27 1180.50
00012016 00000005 1137.17 365.96 859.44 1167.66 1264.32 887.66 1593.40 766.02 1387.89 1012.66 1394.67 1276.77 1667.98 1174.03
00012017 00000006 1117.43 362.33 871.11 1179.72 1246.94 884.34 1576.50 769.68 1365.92 1019.44 1379.06 1279.86 1657.35 1182.07
00012018 00000007 1098.20 347.97 877.79 1202.19 1227.57 879.37 1561.29 766.29 1348.68 1022.97 1367.46 1290.60 1647.06 1194.60
00012019 00000008 1087.77 380.48 874.06 1176.15 1212.75 885.28 1550.17 765.45 1335.07 1030.90 1353.25 1299.65 1633.84 1198.18
00012020 00000009 1076.19 369.11 880.32 1195.70 1200.43 895.53 1535.24 768.82 1321.61 1036.48 1346.48 1311.05 1621.86 1203.91
00012021 DELETE   1062.56 384.55 882.50 1187.26 1186.71 901.74 1523.59 769.94 1311.05 1041.66 1332.22 1319.58 1608.40 1208.12
00012022 00000011 1039.72 373.69 888.38 1214.53 1167.22 917.79 1509.66 787.73 1308.97 1057.77 1315.65 1334.28 1592.24 1225.18
00012023 00000012 1024.45 394.90 887.72 1202.22 1156.71 931.65 1486.39 803.57 1295.87 1073.90 1305.11 1342.39 1571.12 1235.38
00012024 00000013 1018.74 382.68 890.98 1230.54 1150.05 950.50 1468.19 814.64 1284.44 1087.98 1301.08 1354.89 1558.87 1242.41
00012025 00000014 1012.85 396.97 890.78 1231.20 1144.85 961.61 1462.76 820.86 1277.78 1101.15 1302.51 1368.81 1554.74 1252.81
00012026 00000015 1008.61 395.19 887.69 1258.30 1143.17 962.80 1465.54 822.76 1278.65 1113.54 1306.23 1380.68 1563.63 1265.50
00012027 00000016 1008.65 385.56 898.52 1268.43 1134.10 964.01 1457.51 815.06 1275.52 1122.34 1316.18 1382.11 1573.41 1257.75
00012028 00000017 1013.89 387.91 897.94 1271.99 1140.54 966.46 1461.07 819.01 1278.12 1128.68 1322.44 1386.71 1575.71 1263.83
00012029 00000018 1018.47 414.03 896.62 1275.57 1157.19 972.14 1481.62 839.50 1291.91 1134.53 1327.45 1397.72 1580.02 1289.14
00012030 00000019 1023.87 411.25 895.72 1271.64 1166.54 976.94 1494.17 851.39 1306.02 1141.65 1331.34 1396.69 1586.88 1294.18
00012031 00000020 1027.83 412.96 897.36 1258.56 1169.77 978.99 1508.39 857.35 1315.31 1145.18 1329.11 1387.12 1599.11 1287.56
00012032 00000021 1028.35 428.74 899.28 1244.48 1173.29 981.99 1523.39 859.76 1327.07 1147.33 1329.82 1388.53 1609.24 1288.40
00012033 00000022 1028.94 441.85 911.30 1209.79 1176.76 993.57 1525.54 866.53 1326.65 1158.33 1335.72 1406.58 1605.38 1297.86
00012034 DELETE   1039.34 448.60 903.47 1204.25 1193.18 1005.63 1525.21 882.53 1344.18 1160.64 1350.08 1405.45 1617.13 1299.98
00012035 DELETE   1052.04 446.28 902.59 1220.05 1200.43 998.30 1534.29 876.94 1352.19 1159.00 1361.42 1408.08 1634.67 1303.18
00012036 00000025 1060.65 454.47 909.53 1226.32 1207.18 990.07 1543.56 864.95 1353.00 1153.85 1373.71 1417.72 1646.09 1309.80
00012037 00000026 1071.58 457.72 907.05 1234.23 1213.42 990.79 1550.57 861.92 1353.45 1156.65 1381.16 1424.94 1661.37 1313.55
00012038 00000027 1084.24 453.39 902.39 1242.01 1220.85 982.01 1564.73 856.47 1356.51 1157.33 1386.67 1423.70 1676.51 1314.27
00012039 DELETE   1093.66 470.96 899.78 1223.56 1230.92 985.10 1578.96 859.20 1371.67 1156.63 1391.68 1419.40 1689.95 1309.60
00012040 00000029 1101.43 465.12 888.88 1213.87 1243.21 985.77 1586.06 862.07 1395.37 1164.69 1406.52 1410.33 1705.99 1301.50
00012041 00000030 1110.38 458.72 895.42 1214.65 1256.48 982.17 1600.47 861.82 1408.77 1164.42 1417.32 1400.96 1720.22 1294.20
00012042 00000031 1124.20 449.71 885.31 1212.97 1272.43 979.64 1612.75 862.83 1423.76 1160.31 1432.14 1392.58 1731.28 1288.85
00012043 00000032 1133.62 451.85 888.37 1203.00 1283.27 979.87 1625.37 860.22 1433.37 1156.71 1448.30 1390.59 1745.09 1284.87
00012044 00000033 1140.37 447.18 888.91 1205.06 1290.42 978.59 1637.47 857.51 1440.16 1151.78 1453.33 1389.59 1751.28 1283.16
00012045 00000034 1147.38 442.46 884.05 1203.75 1295.47 974.34 1645.60 852.42 1445.18 1147.60 1455.51 1387.43 1753.30 1280.38
00012046 00000035 1151.80 450.53 878.34 1193.09 1300.66 967.71 1648.63 848.27 1450.75 1142.10 1459.13 1384.91 1752.22 1279.86
00012047 00000036 1156.31 450.85 902.19 1209.94 1310.69 954.77 1669.13 837.45 1464.24 1122.52 1461.82 1381.74 1745.71 1284.36
00012048 00000037 1159.99 444.37 899.32 1215.92 1316.28 948.11 1671.43 836.75 1466.84 1118.46 1463.95 1383.71 1736.55 1292.36
00012049 00000038 1159.03 438.38 886.30 1217.56 1315.38 942.90 1668.97 843.97 1463.92 1114.02 1447.42 1370.31 1715.94 1289.95
00012050 00000039 1156.48 426.63 887.61 1221.79 1314.96 937.15 1664.82 843.00 1461.32 1110.30 1442.83 1367.17 1701.91 1291.24
00012051 00000040 1156.50 435.81 888.75 1220.26 1315.52 934.49 1663.35 839.22 1460.55 1108.60 1446.98 1367.65 1705.78 1290.61
00012052 00000041 1158.71 431.57 892.72 1221.88 1310.72 933.54 1667.24 825.71 1462.95 1107.04 1453.51 1366.50 1732.79 1278.04
00012053 00000042 1161.77 428.96 891.33 1232.91 1312.90 928.53 1666.85 816.52 1464.26 1104.41 1461.13 1367.18 1746.54 1274.73
00012054 00000043 1162.76 418.06 884.60 1240.03 1311.99 924.59 1666.54 812.61 1464.09 1098.46 1456.97 1361.63 1746.22 1269.45
00012055 00000044 1163.43 411.79 876.93 1231.13 1309.84 924.70 1669.46 815.82 1463.21 1093.39 1442.48 1355.07 1735.86 1265.71
00012056 00000045 1162.29 427.29 873.02 1194.83 1307.54 926.92 1667.29 824.47 1459.46 1088.69 1430.45 1348.05 1720.16 1263.81
00012057 00000046 1164.65 415.80 866.58 1198.75 1308.04 932.44 1657.68 835.27 1453.20 1086.87 1425.61 1344.42 1707.32 1264.24
00012058 00000047 1160.10 425.08 867.14 1191.96 1302.73 929.17 1652.70 831.22 1448.64 1088.09 1422.22 1346.68 1701.27 1265.88
00012059 00000048 1153.99 413.67 871.54 1214.32 1297.20 928.99 1645.77 829.34 1438.37 1088.81 1419.99 1353.95 1692.70 1271.95
00012060 00000049 1150.20 403.15 870.31 1224.01 1290.76 932.95 1638.96 826.63 1435.44 1089.94 1420.45 1358.77 1689.63 1271.54
00012061 00000050 1146.44 398.53 872.42 1231.64 1281.90 930.97 1636.08 824.55 1428.14 1094.31 1408.06 1357.72 1688.65 1270.50
00012062 00000051 1141.98 385.00 873.38 1237.95 1274.18 927.81 1627.03 829.87 1416.94 1101.41 1394.27 1346.56 1674.11 1265.91
00012063 00000052 1138.21 398.97 875.95 1234.26 1273.27 929.97 1621.36 830.12 1413.03 1103.17 1399.71 1357.28 1669.07 1275.54
00012064 00000053 1133.39 430.92 869.31 1205.64 1267.41 932.24 1607.91 831.67 1404.14 1110.37 1409.06 1366.87 1688.73 1280.90
00012065 00000054 1128.49 430.58 869.48 1208.49 1261.75 930.44 1601.08 830.68 1395.70 1108.74 1404.43 1367.91 1684.09 1282.37
00012066 00000055 1126.41 424.25 865.76 1211.89 1256.94 926.06 1599.43 833.22 1393.68 1107.81 1392.52 1363.78 1675.63 1284.77
00012067 00000056 1126.40 419.21 866.24 1209.40 1252.66 925.97 1597.91 837.23 1387.64 1107.14 1382.96 1361.58 1665.84 1287.03
00012068 00000057 1123.63 419.44 870.73 1206.16 1249.31 931.88 1595.50 836.00 1384.46 1107.91 1382.56 1358.27 1677.10 1277.11
00012069 00000058 1120.28 423.17 872.02 1192.63 1248.35 939.09 1596.07 836.47 1387.71 1108.17 1386.07 1353.81 1689.38 1266.31
00012070 00000059 1120.43 434.47 869.61 1168.71 1248.99 940.99 1599.47 837.14 1388.55 1102.40 1380.26 1346.23 1692.03 1257.18
00012071 00000060 1120.19 441.85 866.93 1156.05 1247.62 942.60 1599.06 836.81 1387.62 1100.65 1377.65 1345.59 1690.44 1254.69
00012072 00000061 1118.09 445.18 867.56 1153.75 1247.08 946.94 1596.88 838.62 1385.67 1098.57 1378.03 1347.22 1690.33 1253.81
00012073 00000062 1119.11 441.19 864.87 1161.04 1245.14 956.17 1593.46 844.03 1382.68 1099.40 1375.48 1352.37 1687.62 1256.42
00012074 00000063 1119.61 447.71 863.52 1155.27 1245.47 955.99 1593.02 844.29 1382.56 1100.53 1374.73 1352.34 1687.02 1256.84
00012075 00000064 1119.37 453.74 862.82 1151.52 1244.98 954.63 1593.44 844.50 1382.09 1102.00 1373.62 1353.52 1686.08 1259.36
00012076 DELETE   1117.80 449.34 860.99 1159.74 1244.29 964.98 1586.61 848.30 1379.21 1102.34 1377.20 1357.40 1682.81 1258.32
00012077 00000066 1116.65 447.62 867.35 1171.84 1243.79 966.37 1588.86 849.36 1377.94 1103.34 1378.99 1363.53 1684.57 1263.56
00012078 00000067 1117.74 453.09 870.65 1168.99 1244.14 957.90 1591.30 846.04 1378.07 1105.13 1378.91 1364.32 1685.56 1268.56
00012079 00000068 1116.08 459.58 872.97 1166.68 1244.96 954.18 1592.66 844.13 1379.68 1109.57 1383.63 1366.91 1686.64 1272.15
00012080 00000069 1115.11 459.99 875.22 1170.46 1245.82 951.55 1591.69 842.66 1381.72 1111.71 1389.32 1368.37 1686.83 1274.82
00012081 00000070 1115.06 459.95 879.59 1172.06 1247.18 950.55 1593.20 841.92 1383.56 1111.98 1391.15 1368.63 1687.43 1275.36
00012082 00000071 1118.03 459.13 876.29 1173.21 1249.33 950.76 1594.16 840.23 1385.75 1111.30 1393.73 1368.96 1688.69 1274.36
00012083 00000072 1116.64 451.52 880.98 1182.61 1250.22 948.83 1594.87 840.12 1385.47 1111.05 1395.12 1367.85 1689.01 1274.34
00012084 00000073 1119.20 441.97 876.91 1190.74 1251.74 949.19 1595.21 839.82 1388.68 1112.22 1397.22 1368.38 1688.86 1274.65
00012085 00000074 1121.33 434.50 877.81 1200.44 1255.98 948.94 1598.80 840.72 1391.86 1112.73 1400.41 1368.86 1691.34 1276.03
00012086 00000075 1124.64 433.87 873.55 1200.83 1261.05 948.39 1601.29 841.48 1397.25 1113.19 1404.12 1368.59 1692.32 1277.27
00012087 00000076 1126.37 434.39 874.10 1200.74 1263.91 948.22 1605.59 840.67 1403.27 1113.93 1407.24 1368.94 1695.67 1277.16
00012088 00000077 1129.45 437.47 870.09 1197.31 1267.35 949.34 1609.03 839.77 1408.62 1114.69 1410.13 1369.25 1698.67 1276.07
00012089 00000078 1132.46 437.83 871.18 1196.79 1272.57 947.66 1613.82 839.03 1414.53 1114.15 1414.54 1368.25 1700.83 1275.50
00012090 00000079 1135.09 426.01 869.30 1205.87 1272.72 947.57 1614.71 839.13 1415.75 1115.00 1415.38 1369.61 1699.09 1277.73
00012091 00000080 1135.64 425.45 872.27 1208.02 1273.96 948.05 1617.59 839.13 1416.50 1115.60 1417.04 1370.90 1700.97 1278.41
00012092 00000081 1135.15 402.13 881.80 1242.58 1281.35 942.64 1626.81 833.08 1428.47 1102.78 1417.42 1368.76 1680.83 1278.86
00012093 00000082 1134.70 396.97 886.28 1248.20 1279.64 942.61 1626.49 831.93 1427.14 1104.00 1416.15 1369.27 1681.50 1278.38
00012094 00000083 1134.83 392.56 884.53 1252.65 1279.38 940.49 1626.84 831.96 1428.86 1105.16 1415.62 1367.81 1681.91 1278.76
00012095 00000084 1135.55 391.58 885.36 1254.14 1278.77 941.02 1628.35 833.11 1428.59 1105.26 1413.42 1369.12 1679.62 1280.76
00012096 00000085 1134.71 393.31 887.24 1250.64 1280.32 941.09 1629.03 833.97 1431.17 1105.74 1416.98 1368.20 1678.53 1280.46
00012097 00000086 1134.63 393.53 887.68 1250.10 1279.74 942.45 1630.11 833.47 1431.75 1104.25 1416.37 1368.83 1679.31 1279.67
00012098 00000087 1135.13 402.00 886.45 1239.12 1280.95 941.69 1629.69 832.01 1432.90 1102.70 1419.02 1368.43 1680.71 1278.71
00012099 00000088 1133.69 408.84 889.77 1235.92 1283.07 941.66 1631.20 835.03 1432.79 1102.21 1420.35 1368.89 1680.80 1281.51
00012100 00000089 1135.99 410.64 879.97 1231.95 1288.44 956.19 1627.61 848.27 1432.96 1099.14 1419.56 1370.07 1680.05 1281.35
00012101 00000090 1137.38 401.67 882.87 1245.68 1287.00 946.94 1631.29 843.53 1434.16 1101.82 1418.21 1369.50 1680.37 1284.54
00012102 00000091 1138.64 408.49 881.52 1237.21 1285.66 940.40 1631.17 838.70 1431.00 1103.68 1417.00 1368.66 1677.28 1285.30
00012103 00000092 1138.41 402.12 880.39 1242.83 1285.52 938.74 1634.15 834.66 1433.87 1100.57 1418.41 1367.66 1681.37 1282.46
00012104 00000093 1138.76 395.81 882.40 1246.47 1288.33 933.72 1636.82 829.62 1438.21 1094.73 1422.60 1364.02 1683.60 1278.88
00012105 00000094 1142.16 409.85 883.55 1229.24 1292.81 931.58 1643.93 826.59 1445.13 1091.45 1425.19 1359.43 1694.23 1273.21
00012106 00000095 1144.38 418.63 890.73 1211.89 1296.70 925.90 1653.95 820.94 1452.52 1087.88 1426.74 1349.94 1710.28 1262.94
00012107 00000096 1146.54 415.82 888.07 1209.35 1299.64 919.56 1663.82 815.33 1459.91 1083.70 1429.34 1344.92 1718.97 1258.96
00012108 00000097 1147.35 425.37 897.64 1220.14 1303.91 918.29 1667.60 809.84 1463.70 1083.42 1436.22 1349.73 1733.58 1259.70
00012109 00000098 1151.76 425.11 898.16 1237.66 1304.86 922.35 1667.04 805.83 1462.49 1089.68 1447.50 1359.29 1750.38 1262.61
00012110 00000099 1150.20 431.14 900.62 1223.86 1302.22 925.62 1664.10 812.30 1457.23 1093.28 1441.50 1356.68 1744.71 1262.49
00012111 00000100 1152.18 415.88 888.39 1217.58 1300.66 931.07 1659.55 822.78 1453.99 1094.68 1431.39 1353.57 1727.43 1263.89
00012112 00000101 1152.32 422.40 884.44 1202.15 1300.22 931.20 1656.51 823.99 1453.97 1092.34 1430.14 1349.16 1721.13 1260.34
00012113 00000102 1151.88 414.13 881.15 1215.02 1301.22 930.35 1656.07 825.01 1455.80 1093.76 1432.67 1353.52 1717.79 1266.74
00012114 00000103 1151.80 417.11 880.58 1211.11 1301.99 928.82 1657.19 824.76 1457.20 1094.58 1432.63 1352.37 1717.77 1266.72
00012115 00000104 1151.19 417.93 879.39 1209.80 1302.59 927.78 1656.75 825.42 1456.91 1090.60 1430.57 1352.48 1711.38 1268.44
00012116 00000105 1152.62 414.83 876.42 1191.70 1299.64 922.78 1653.27 830.33 1448.01 1089.48 1422.00 1341.30 1690.97 1265.28
00012117 00000106 1154.27 402.57 871.94 1204.25 1302.32 918.82 1654.29 832.87 1447.91 1091.57 1419.92 1338.56 1683.58 1268.56
00012118 00000107 1153.02 412.00 876.82 1197.29 1300.72 919.42 1656.60 827.79 1449.91 1093.13 1423.67 1344.32 1693.21 1269.33
00012119 00000108 1151.69 409.72 883.16 1211.82 1300.06 922.46 1659.10 820.65 1453.35 1092.66 1427.58 1348.14 1713.50 1264.26
00012120 00000109 1152.34 417.32 882.98 1202.43 1298.56 921.91 1655.58 816.70 1450.26 1089.84 1428.91 1347.70 1715.70 1260.92
00012121 00000110 1151.33 409.96 883.45 1209.62 1297.67 922.42 1652.78 814.76 1449.87 1090.73 1430.12 1346.90 1717.69 1257.97
00012122 00000111 1150.07 412.23 882.51 1208.25 1298.71 922.76 1652.79 816.62 1450.93 1091.95 1432.44 1349.88 1713.88 1262.44
00012123 00000112 1149.77 408.40 883.25 1202.88 1296.24 923.67 1650.84 818.33 1448.01 1092.50 1429.79 1349.34 1709.66 1262.69
00012124 00000113 1149.76 406.01 883.18 1210.66 1296.25 923.88 1649.72 817.59 1447.11 1092.75 1428.11 1346.89 1712.55 1259.14
00012125 00000114 1148.97 419.51 882.82 1205.03 1294.55 921.72 1649.99 811.97 1446.76 1093.74 1429.36 1345.82 1724.33 1254.49
00012126 00000115 1147.39 416.67 885.71 1207.97 1293.24 922.67 1647.25 809.72 1446.25 1093.99 1432.30 1347.08 1727.53 1252.63
00012127 00000116 1147.10 403.90 883.65 1214.85 1291.47 922.79 1644.33 810.02 1444.63 1093.69 1430.88 1345.14 1724.62 1250.94
00012128 00000117 1145.89 398.77 879.64 1219.16 1289.85 922.28 1643.52 809.67 1444.05 1094.68 1429.42 1344.06 1724.04 1250.14
00012129 00000118 1144.06 406.85 881.54 1213.11 1288.54 922.73 1642.68 808.77 1442.21 1094.32 1428.93 1345.96 1723.48 1250.84
00012130 00000119 1142.85 405.28 884.34 1228.78 1290.79 919.65 1642.22 810.52 1440.69 1093.38 1427.03 1350.44 1717.66 1259.37
00012131 00000120 1140.68 402.36 885.02 1246.65 1291.42 919.61 1641.60 811.80 1439.70 1091.05 1427.32 1357.48 1711.05 1267.89
00012132 00000121 1141.16 431.92 878.65 1203.17 1284.11 929.85 1635.87 824.83 1428.16 1110.59 1430.51 1364.84 1720.48 1273.49
00012133 00000122 1138.28 443.06 873.01 1192.78 1283.24 943.35 1632.86 839.87 1427.96 1112.16 1419.45 1363.60 1718.33 1274.35
00012134 00000123 1136.67 434.07 879.94 1191.74 1279.60 943.20 1639.34 844.89 1430.81 1113.59 1409.61 1357.77 1717.95 1273.57
00012135 00000124 1135.89 441.82 882.27 1177.03 1278.47 941.00 1638.26 843.97 1430.53 1114.52 1407.12 1351.44 1717.02 1268.05
00012136 00000125 1134.44 438.40 882.58 1178.96 1277.18 940.60 1636.01 841.07 1430.08 1113.60 1406.95 1347.80 1720.76 1262.06
00012137 00000126 1136.02 443.54 883.74 1178.08 1279.52 936.30 1637.18 836.35 1431.03 1107.30 1409.79 1346.08 1721.25 1260.19
00012138 00000127 1139.72 411.29 884.12 1219.06 1287.35 920.42 1641.00 818.03 1436.04 1087.81 1409.07 1342.29 1699.33 1257.14
00012139 00000128 1140.35 406.69 885.79 1227.83 1288.49 917.57 1641.66 815.22 1436.37 1086.69 1410.39 1343.75 1698.51 1258.80
00012140 00000129 1142.05 409.18 883.26 1222.69 1288.20 918.86 1642.79 816.23 1437.31 1087.15 1410.49 1344.59 1699.03 1259.57
00012141 00000130 1142.35 407.17 883.42 1223.89 1288.64 920.14 1641.56 817.13 1437.42 1086.80 1410.67 1345.04 1697.85 1259.76
00012142 00000131 1140.97 410.36 884.86 1222.55 1288.48 921.74 1641.06 818.52 1437.06 1086.99 1412.13 1347.44 1696.02 1261.98
00012143 00000132 1139.01 412.88 888.50 1224.50 1286.79 922.97 1638.15 819.11 1434.60 1087.74 1411.25 1349.72 1692.94 1263.72
00012144 00000133 1139.83 407.90 886.64 1230.04 1285.57 925.08 1636.14 820.01 1433.63 1088.76 1411.45 1352.89 1691.73 1265.98
00012145 00000134 1139.86 413.75 887.69 1227.59 1286.81 926.35 1638.28 822.79 1434.03 1089.78 1411.02 1353.43 1693.06 1267.62
00012146 00000135 1141.74 445.90 878.74 1182.67 1286.39 943.89 1634.22 844.14 1427.87 1102.43 1416.88 1354.66 1713.62 1269.36
00012147 00000136 1138.91 421.16 883.23 1222.34 1292.05 939.38 1638.27 837.12 1433.65 1087.32 1409.74 1356.71 1691.92 1271.57
00012148 00000137 1140.18 420.66 882.55 1222.04 1291.45 932.75 1640.62 830.83 1436.67 1087.27 1411.58 1356.30 1694.49 1271.54
00012149 00000138 1138.50 441.26 879.37 1189.19 1281.04 940.31 1632.63 840.05 1426.17 1105.63 1414.93 1357.73 1713.66 1271.96
00012150 00000139 1136.15 434.23 882.11 1196.30 1276.72 939.73 1630.75 837.88 1422.69 1106.34 1412.52 1359.55 1711.93 1272.62
00012151 00000140 1137.11 401.79 885.03 1239.39 1282.19 930.18 1633.34 824.68 1429.78 1093.69 1408.20 1356.64 1691.35 1269.32
00012152 00000141 1132.40 427.67 883.83 1200.28 1271.88 938.74 1625.13 835.51 1419.58 1110.30 1409.86 1357.72 1711.91 1269.26
00012153 00000142 1132.11 427.82 880.33 1201.37 1271.42 937.05 1623.71 835.09 1418.62 1110.50 1409.27 1356.58 1710.47 1269.23
00012154 00000143 1131.72 428.86 879.95 1200.28 1272.25 935.47 1624.26 834.76 1419.08 1110.17 1409.19 1355.16 1710.47 1268.60
00012155 00000144 1131.36 432.07 880.99 1196.57 1272.58 935.30 1624.58 833.88 1419.00 1109.39 1409.61 1355.18 1709.87 1268.04
00012156 00000145 1132.03 432.04 879.01 1196.11 1271.96 935.99 1623.80 833.23 1418.55 1109.05 1410.17 1356.35 1709.49 1268.24
00012157 00000146 1132.74 430.05 878.92 1198.31 1272.17 935.78 1623.39 833.48 1417.53 1108.40 1410.49 1356.91 1707.51 1269.31
00012158 00000147 1134.36 427.65 877.83 1200.16 1272.25 935.82 1623.56 833.72 1417.31 1109.09 1409.89 1356.74 1706.95 1269.55
00012159 00000148 1134.83 427.87 876.29 1199.56 1272.82 934.93 1623.36 833.39 1418.40 1109.07 1410.41 1356.17 1706.54 1269.55
00012160 00000149 1134.76 432.27 876.53 1194.38 1273.28 933.35 1622.36 832.12 1418.69 1108.27 1412.11 1356.22 1705.00 1269.85
00012161 00000150 1135.10 432.67 877.59 1194.40 1273.06 933.48 1622.96 832.21 1418.06 1108.63 1411.35 1356.34 1704.58 1270.04
00012162 00000151 1132.91 430.42 879.87 1197.91 1272.55 930.87 1623.05 828.96 1418.41 1108.61 1412.39 1356.24 1707.79 1268.99
00012163 00000152 1134.08 430.28 881.38 1196.71 1273.23 930.56 1624.98 828.79 1418.90 1108.28 1411.99 1354.17 1711.25 1266.65
00012164 00000153 1133.74 431.02 882.21 1193.10 1272.84 932.68 1626.01 827.95 1420.21 1108.32 1412.31 1352.25 1717.28 1262.00
00012165 00000154 1135.20 433.57 880.87 1190.65 1273.70 933.21 1626.17 828.75 1420.03 1108.26 1410.67 1349.73 1717.82 1259.86
00012166 00000155 1134.62 433.04 881.03 1190.97 1273.75 933.87 1627.61 829.06 1421.91 1108.87 1410.50 1350.01 1719.07 1259.83
00012167 00000156 1134.60 434.00 880.88 1190.74 1273.53 933.83 1627.34 828.97 1421.79 1109.52 1411.02 1351.55 1718.39 1261.37
