Video ID: 	lmz7xPu6qCQ
H: 	1640
W: 	3840
FPS: 	59.94006309148265

FRAME INDEX X0 Y0 W H [Landmarks (5 Points)]

00000801 00000000 2241.19 384.89 814.29 980.65 2349.47 751.70 2695.26 821.02 2430.39 1049.23 2428.59 1121.07 2687.59 1175.02
00000802 DELETE   2245.76 383.25 810.47 964.01 2354.30 747.57 2700.13 815.43 2441.58 1045.58 2433.53 1109.74 2691.05 1162.83
00000803 00000002 2245.60 385.17 813.30 963.54 2354.12 747.57 2700.03 816.17 2440.21 1046.22 2433.82 1110.23 2691.22 1163.84
00000804 DELETE   2245.42 384.54 813.56 964.77 2353.95 747.71 2700.11 815.84 2440.24 1046.21 2433.72 1110.85 2691.56 1164.09
00000805 DELETE   2250.43 368.92 818.82 972.88 2359.33 744.07 2706.83 809.82 2447.77 1043.39 2441.04 1106.14 2694.89 1157.91
00000806 00000005 2255.10 353.17 827.80 987.10 2367.04 736.94 2711.93 803.35 2453.09 1038.30 2451.58 1096.35 2709.08 1148.12
00000807 DELETE   2254.55 341.89 824.58 993.10 2368.35 735.92 2711.93 797.92 2456.12 1028.94 2449.42 1093.76 2708.07 1142.01
00000808 00000007 2256.60 336.85 828.80 1003.89 2370.92 734.22 2711.57 791.66 2457.17 1022.26 2453.73 1096.03 2713.32 1140.53
00000809 DELETE   2258.79 332.25 820.15 998.79 2375.14 735.03 2712.38 787.24 2462.66 1012.47 2456.67 1093.42 2714.37 1133.86
00000810 00000009 2263.37 338.11 811.94 980.80 2380.06 732.84 2714.46 781.10 2468.43 1004.82 2462.04 1086.83 2716.38 1124.20
00000811 DELETE   2267.25 328.23 809.29 988.99 2385.72 729.10 2715.06 774.15 2471.73 996.09 2464.96 1083.32 2715.46 1118.46
00000812 DELETE   2273.26 324.12 798.80 987.25 2390.47 727.97 2715.25 767.56 2476.78 987.24 2469.92 1081.58 2716.29 1112.22
00000813 00000012 2273.42 324.49 798.88 987.15 2390.56 728.24 2715.57 767.58 2476.92 987.07 2469.92 1082.00 2715.90 1112.47
00000814 DELETE   2273.18 325.92 797.25 983.64 2390.48 727.78 2715.75 767.14 2477.50 987.17 2470.23 1081.26 2715.79 1111.75
00000815 DELETE   2279.60 320.88 791.35 984.74 2395.97 725.53 2716.56 762.42 2480.85 978.41 2473.17 1077.71 2713.38 1106.15
00000816 00000015 2284.43 314.55 782.96 983.34 2398.84 721.31 2716.02 755.00 2480.68 970.42 2474.21 1073.16 2708.95 1099.30
00000817 DELETE   2283.76 309.75 767.68 970.48 2391.60 721.68 2714.87 752.81 2480.95 964.53 2463.88 1071.58 2696.48 1096.50
00000818 00000017 2283.36 311.89 766.78 966.85 2391.97 721.40 2716.44 748.40 2484.02 960.21 2465.09 1069.05 2701.38 1090.80
00000819 DELETE   2279.33 308.94 774.28 974.71 2393.86 718.47 2722.81 741.52 2489.39 957.40 2467.45 1069.11 2707.25 1087.67
00000820 00000019 2278.69 304.68 775.74 970.33 2393.57 712.07 2727.61 738.26 2492.19 957.03 2467.95 1059.38 2718.92 1080.22
00000821 00000020 2279.57 280.73 770.47 989.97 2396.03 708.22 2729.24 734.18 2498.20 952.91 2469.73 1055.74 2722.77 1076.35
00000822 00000021 2279.47 280.75 777.17 989.63 2395.45 705.84 2729.40 729.68 2497.82 950.63 2473.10 1053.62 2728.39 1072.18
00000823 00000022 2279.21 282.45 777.10 988.32 2395.25 706.02 2728.81 729.89 2497.31 950.31 2473.31 1053.35 2728.71 1071.88
00000824 00000023 2279.17 281.64 776.77 989.17 2395.28 706.06 2729.28 729.88 2497.76 950.43 2472.96 1053.49 2728.84 1071.99
00000825 00000024 2280.61 282.13 773.42 984.06 2394.17 702.17 2729.36 726.13 2497.53 946.28 2470.45 1051.19 2727.14 1069.82
00000826 DELETE   2281.12 284.05 773.93 982.76 2394.59 699.62 2728.83 721.98 2497.27 942.48 2471.12 1049.81 2728.74 1066.99
00000827 00000026 2278.32 290.69 774.10 971.47 2392.69 695.76 2730.55 717.71 2496.45 937.37 2467.99 1047.27 2725.84 1064.38
00000828 00000027 2278.80 285.90 775.90 975.20 2393.03 692.93 2731.29 713.37 2496.30 932.34 2467.16 1048.33 2722.10 1064.48
00000829 00000028 2276.67 282.35 779.88 982.06 2391.02 688.45 2731.78 707.26 2495.33 930.78 2466.52 1047.84 2727.60 1062.69
00000830 00000029 2276.24 279.33 778.11 982.48 2390.30 684.90 2734.08 704.20 2496.78 928.44 2463.10 1044.81 2727.79 1060.14
00000831 DELETE   2271.71 277.28 782.38 981.73 2388.01 681.43 2734.24 702.23 2495.05 928.04 2461.49 1042.96 2726.56 1059.49
00000832 00000031 2271.93 264.02 780.44 995.48 2388.71 678.95 2732.42 700.72 2495.33 925.88 2459.23 1042.14 2724.16 1059.39
00000833 00000032 2271.83 265.49 781.15 993.57 2388.45 678.96 2732.43 700.98 2494.65 925.84 2459.04 1041.81 2724.36 1059.28
00000834 00000033 2271.82 264.25 781.28 995.17 2388.60 678.95 2732.40 700.89 2495.00 925.81 2459.13 1042.05 2724.25 1059.42
00000835 00000034 2270.80 263.88 782.91 998.94 2387.90 677.53 2734.28 698.29 2495.13 922.84 2456.31 1042.02 2724.32 1058.69
00000836 00000035 2270.93 254.31 780.37 1011.25 2390.41 676.43 2735.73 697.23 2499.67 920.93 2457.39 1043.48 2723.42 1060.25
00000837 00000036 2270.57 244.97 779.49 1018.34 2392.34 674.31 2736.98 695.21 2502.66 918.42 2457.09 1041.26 2722.83 1058.13
00000838 00000037 2271.06 246.36 775.42 1015.73 2392.91 674.28 2737.43 694.35 2504.12 917.85 2456.92 1042.19 2721.56 1058.48
00000839 00000038 2268.06 243.45 776.27 1021.26 2391.06 672.88 2737.91 692.67 2504.98 917.31 2454.88 1041.85 2722.05 1057.86
00000840 00000039 2265.04 242.00 782.82 1025.09 2388.78 672.57 2738.73 690.44 2504.56 915.59 2454.77 1041.13 2725.61 1055.51
00000841 DELETE   2260.61 249.71 785.09 1012.81 2386.71 669.99 2739.38 688.89 2502.91 914.26 2451.69 1037.90 2723.18 1053.14
00000842 00000041 2256.77 256.89 791.99 1004.28 2382.15 667.76 2737.46 688.86 2496.58 914.52 2447.98 1035.32 2720.07 1052.22
00000843 00000042 2256.63 252.38 791.58 1008.83 2382.68 667.34 2737.23 688.43 2497.25 914.20 2448.28 1034.90 2719.83 1051.85
00000844 00000043 2256.45 252.90 791.47 1008.48 2382.79 666.93 2737.63 688.60 2497.66 914.76 2448.15 1034.63 2720.20 1052.06
00000845 00000044 2253.17 250.57 795.39 1010.03 2382.00 666.09 2737.88 689.27 2497.78 915.02 2447.54 1033.92 2718.87 1052.29
00000846 00000045 2251.27 245.61 799.36 1014.57 2382.43 664.58 2739.39 688.62 2498.18 912.19 2446.28 1031.57 2719.23 1050.53
00000847 00000046 2250.66 235.54 798.47 1021.88 2382.41 663.82 2739.28 686.99 2499.48 910.10 2444.42 1031.07 2716.18 1049.45
00000848 00000047 2248.13 225.33 792.90 1032.16 2381.93 666.05 2739.21 687.43 2501.62 906.91 2440.69 1031.40 2714.01 1048.27
00000849 00000048 2244.94 223.75 798.50 1031.08 2381.52 664.98 2740.98 684.82 2502.27 907.01 2441.93 1031.51 2715.91 1047.17
00000850 00000049 2240.57 220.96 804.40 1035.01 2379.29 664.89 2740.69 685.72 2500.84 908.40 2440.68 1030.19 2718.39 1046.33
00000851 00000050 2237.09 217.81 803.95 1038.49 2377.32 665.23 2738.48 681.63 2501.52 906.68 2440.01 1031.23 2719.07 1043.68
00000852 00000051 2231.27 217.63 807.76 1036.68 2374.47 666.60 2738.38 682.29 2501.36 907.52 2438.80 1030.88 2718.57 1042.65
00000853 00000052 2231.42 219.11 807.01 1034.97 2374.39 666.07 2738.63 682.69 2501.19 908.24 2438.34 1030.54 2718.49 1043.07
00000854 00000053 2231.11 219.14 806.97 1035.08 2374.09 666.06 2738.90 682.70 2501.21 908.43 2438.22 1030.47 2718.91 1043.03
00000855 00000054 2225.36 222.72 810.50 1030.75 2369.50 665.62 2734.45 682.03 2496.64 908.98 2437.48 1030.33 2712.77 1042.70
00000856 00000055 2225.75 219.32 809.73 1013.55 2364.76 664.64 2727.81 679.98 2494.60 910.80 2443.62 1036.13 2703.09 1046.53
00000857 00000056 2220.06 222.40 806.93 1013.51 2356.48 667.74 2719.53 680.83 2486.33 910.50 2432.82 1038.74 2695.08 1047.31
00000858 00000057 2218.80 226.88 801.08 1011.95 2349.26 670.30 2712.10 683.44 2476.15 910.16 2421.97 1041.03 2686.23 1049.58
00000859 00000058 2213.32 224.20 800.93 1014.82 2343.04 672.16 2703.41 684.27 2468.73 907.64 2414.88 1038.72 2679.26 1046.49
00000860 00000059 2208.87 218.16 801.03 1024.28 2340.06 672.91 2698.19 684.45 2466.34 909.90 2412.26 1038.61 2676.53 1046.16
00000861 00000060 2203.09 220.58 806.62 1024.14 2335.87 676.26 2695.75 685.51 2464.06 910.25 2409.63 1040.93 2675.06 1046.54
00000862 00000061 2201.04 221.51 796.26 1039.37 2337.07 680.09 2694.15 685.22 2470.85 912.82 2407.55 1043.93 2685.42 1046.52
00000863 00000062 2201.18 219.35 796.23 1041.73 2337.28 680.04 2694.41 685.37 2471.20 913.02 2407.47 1043.85 2685.37 1046.61
00000864 00000063 2201.31 219.26 796.61 1042.67 2337.48 679.76 2693.45 685.24 2470.53 913.69 2407.79 1043.01 2686.06 1045.80
00000865 00000064 2197.00 227.30 797.57 1031.73 2334.19 680.85 2690.85 685.58 2468.97 914.98 2405.23 1043.07 2682.40 1045.22
00000866 00000065 2191.31 227.47 801.43 1032.61 2330.99 681.83 2690.74 684.96 2469.08 914.17 2402.54 1045.28 2681.39 1046.33
00000867 DELETE   2186.57 227.52 799.57 1033.11 2326.16 682.67 2687.19 684.23 2466.93 917.90 2399.17 1046.82 2680.83 1046.75
00000868 00000067 2181.33 231.35 798.51 1026.60 2320.72 684.30 2683.73 685.59 2462.47 918.53 2393.88 1047.76 2678.04 1047.59
00000869 00000068 2177.26 232.22 802.00 1027.12 2317.74 685.48 2683.70 687.11 2459.60 920.83 2389.61 1048.17 2679.10 1048.09
00000870 00000069 2173.13 230.42 804.54 1028.71 2315.96 686.18 2682.35 690.24 2456.63 922.23 2385.68 1047.91 2676.28 1049.74
00000871 00000070 2171.68 231.66 804.06 1026.78 2314.57 687.01 2680.95 689.45 2455.38 922.64 2385.00 1049.44 2672.59 1050.07
00000872 00000071 2170.28 235.65 804.52 1022.69 2311.79 686.38 2678.50 689.27 2451.53 922.34 2381.30 1048.13 2669.27 1049.13
00000873 00000072 2170.43 234.32 803.60 1024.39 2311.83 686.40 2678.28 689.30 2451.82 922.13 2380.94 1048.32 2669.45 1049.32
00000874 00000073 2170.69 235.41 803.92 1023.26 2311.69 686.71 2678.25 689.50 2451.65 922.32 2380.91 1048.52 2669.68 1049.41
00000875 00000074 2170.25 234.60 802.31 1023.11 2312.49 687.48 2678.76 690.02 2452.95 922.66 2381.32 1049.15 2669.78 1049.83
00000876 00000075 2169.75 239.28 802.91 1017.70 2312.09 688.11 2679.87 690.20 2453.48 923.33 2381.44 1050.73 2669.86 1051.14
00000877 00000076 2167.16 239.97 803.34 1016.34 2310.17 686.59 2678.16 689.75 2450.93 924.74 2379.50 1049.72 2668.37 1050.87
00000878 DELETE   2165.87 237.95 803.84 1018.48 2308.94 686.89 2675.79 691.53 2448.04 925.05 2377.64 1047.98 2667.48 1050.23
00000879 00000078 2166.65 241.80 803.25 1015.83 2308.22 690.19 2674.33 693.84 2446.71 927.77 2376.98 1049.46 2666.80 1050.90
00000880 00000079 2165.70 246.80 806.02 1011.95 2308.07 693.02 2675.72 695.41 2447.38 928.43 2377.89 1050.57 2668.17 1051.25
00000881 00000080 2164.02 259.29 804.52 1000.60 2307.29 699.49 2676.49 698.23 2448.71 930.23 2380.01 1054.00 2671.15 1051.82
00000882 00000081 2163.93 257.94 801.91 1005.99 2307.99 703.57 2672.61 702.41 2449.25 935.34 2381.64 1055.87 2671.34 1053.99
00000883 00000082 2163.93 258.07 802.00 1006.03 2308.49 703.94 2673.01 702.22 2450.03 934.82 2382.19 1056.01 2671.46 1053.64
00000884 00000083 2164.12 257.44 801.77 1006.61 2308.42 703.68 2672.94 702.09 2449.83 934.52 2381.97 1055.83 2671.35 1053.57
00000885 00000084 2160.54 266.62 803.33 999.52 2305.79 710.15 2669.25 704.27 2448.59 938.76 2384.32 1059.85 2672.32 1054.13
00000886 00000085 2164.47 263.05 798.28 1009.31 2307.14 717.39 2667.67 709.77 2449.34 943.71 2383.37 1063.49 2673.10 1056.22
00000887 00000086 2167.30 267.63 797.57 1011.23 2309.84 721.26 2667.88 717.43 2449.95 948.51 2385.26 1066.98 2672.00 1062.69
00000888 00000087 2167.94 269.68 800.04 1012.63 2312.74 724.16 2670.37 723.72 2452.42 957.72 2386.31 1068.78 2672.57 1067.32
00000889 00000088 2169.25 269.92 800.09 1010.55 2314.30 725.52 2669.89 725.31 2453.00 960.36 2389.53 1067.27 2674.85 1065.98
00000890 00000089 2169.89 272.63 798.24 1007.70 2315.86 726.88 2669.26 725.54 2454.27 961.39 2392.10 1066.41 2676.61 1064.22
00000891 00000090 2173.10 275.42 796.20 1006.12 2317.12 727.67 2670.49 726.17 2455.21 962.33 2394.04 1067.68 2678.38 1065.49
00000892 00000091 2176.53 268.67 796.60 1014.00 2319.73 728.29 2673.29 726.36 2458.07 963.54 2397.33 1068.10 2682.75 1065.38
00000893 00000092 2176.62 268.30 796.79 1014.50 2320.19 728.48 2673.63 726.42 2458.43 963.37 2397.78 1068.25 2682.71 1065.45
00000894 00000093 2176.42 269.73 796.80 1012.95 2319.95 728.81 2673.42 726.66 2458.17 963.63 2397.80 1068.41 2682.57 1065.53
00000895 00000094 2180.44 272.97 795.49 1009.81 2323.95 732.67 2675.17 730.56 2461.30 969.08 2401.71 1068.63 2686.13 1065.66
00000896 00000095 2185.87 273.68 792.45 1010.28 2329.19 736.94 2677.71 733.70 2465.25 968.81 2406.98 1070.22 2687.41 1066.16
00000897 00000096 2190.54 275.51 792.08 1013.24 2333.67 737.91 2682.12 732.79 2470.48 971.40 2414.51 1073.31 2694.59 1067.84
00000898 00000097 2194.40 269.04 795.60 1021.76 2340.61 741.86 2690.18 732.63 2481.35 974.21 2423.21 1075.98 2702.96 1066.97
00000899 00000098 2201.60 268.75 795.00 1023.67 2346.26 745.50 2696.92 735.35 2488.43 980.00 2429.08 1080.25 2710.53 1070.40
00000900 00000099 2205.54 274.22 805.70 1018.50 2343.76 738.51 2698.71 731.60 2488.32 989.85 2442.83 1090.26 2716.07 1081.80
00000901 00000100 2213.35 276.47 802.72 1019.06 2353.16 743.98 2706.26 731.10 2498.13 989.13 2454.10 1097.60 2722.62 1084.68
00000902 00000101 2216.90 284.73 805.91 1014.53 2361.51 747.20 2714.47 733.29 2506.63 990.01 2463.36 1099.63 2730.16 1085.99
00000903 00000102 2217.10 285.58 805.83 1014.54 2361.48 747.78 2714.21 733.06 2506.72 990.16 2463.45 1100.46 2730.39 1086.19
00000904 00000103 2217.09 284.62 805.83 1015.24 2361.57 747.81 2714.31 733.36 2506.72 990.21 2463.35 1100.19 2730.24 1086.12
00000905 00000104 2222.75 279.39 807.42 1022.00 2370.89 750.04 2721.24 732.79 2515.78 989.01 2471.79 1098.54 2740.36 1081.96
00000906 00000105 2230.51 283.06 812.33 1018.88 2378.63 747.06 2727.96 733.89 2520.60 990.81 2478.58 1093.06 2749.26 1079.53
00000907 00000106 2240.55 289.16 810.39 1014.09 2387.73 745.89 2734.74 733.58 2525.37 989.62 2484.01 1090.02 2756.10 1077.19
00000908 00000107 2246.89 282.02 808.90 1011.52 2397.67 742.76 2741.69 733.08 2534.32 987.88 2494.51 1083.53 2764.99 1072.83
00000909 00000108 2255.10 278.05 804.22 1011.72 2404.11 735.92 2749.48 726.20 2541.84 975.94 2496.08 1076.08 2772.75 1065.50
00000910 00000109 2263.99 286.42 798.80 994.16 2413.44 737.73 2761.78 723.38 2554.76 968.13 2504.41 1075.28 2779.14 1061.42
00000911 00000110 2266.74 287.22 797.60 989.79 2416.73 735.62 2766.80 721.85 2559.66 966.64 2506.37 1070.27 2785.22 1057.43
00000912 00000111 2271.31 275.19 804.64 1001.99 2423.32 734.26 2772.55 718.44 2566.42 967.17 2514.54 1068.75 2796.14 1054.28
00000913 00000112 2271.39 275.49 804.76 1002.45 2423.25 734.31 2772.28 718.41 2566.20 967.13 2514.37 1068.65 2796.33 1054.12
00000914 00000113 2271.39 275.61 804.73 1001.95 2423.38 734.23 2772.52 718.66 2566.34 967.39 2514.22 1068.41 2796.27 1054.15
00000915 00000114 2275.23 275.98 807.20 999.76 2426.57 729.93 2779.81 714.61 2572.49 965.00 2517.60 1066.58 2803.46 1052.83
00000916 DELETE   2279.43 277.73 804.82 995.89 2427.96 725.71 2783.04 710.32 2574.69 960.89 2521.54 1065.10 2809.00 1051.45
00000917 00000116 2286.58 272.04 799.44 1000.15 2431.05 723.94 2788.41 706.54 2579.00 957.89 2524.67 1065.98 2814.94 1050.67
00000918 DELETE   2291.92 272.76 798.89 995.45 2435.03 724.48 2795.93 705.58 2585.02 953.64 2527.92 1062.74 2821.04 1046.15
00000919 DELETE   2296.36 273.85 798.31 992.49 2437.67 720.28 2801.38 699.41 2589.98 954.51 2532.72 1061.41 2827.73 1043.20
00000920 DELETE   2302.40 264.18 796.46 1004.81 2441.14 718.24 2804.19 694.77 2594.31 952.35 2535.28 1060.21 2834.34 1039.80
00000921 00000120 2300.89 255.65 806.48 1014.27 2442.52 710.53 2811.13 687.68 2599.32 949.94 2535.46 1056.62 2840.93 1036.75
00000922 DELETE   2303.70 247.04 807.79 1024.36 2445.78 706.15 2815.26 686.06 2601.53 949.38 2536.64 1053.91 2845.22 1036.64
00000923 DELETE   2302.58 248.63 811.80 1022.90 2445.96 707.02 2815.51 686.51 2601.32 949.04 2537.43 1053.54 2844.83 1035.82
00000924 00000123 2302.70 246.63 809.88 1024.77 2445.76 706.27 2815.60 685.96 2601.66 948.82 2537.19 1053.82 2845.05 1036.35
00000925 DELETE   2307.89 247.49 807.94 1026.09 2449.84 703.67 2817.54 682.82 2606.28 948.46 2541.97 1052.47 2849.56 1034.73
00000926 00000125 2313.62 251.32 800.07 1014.95 2451.91 698.10 2819.66 680.97 2608.31 947.40 2544.58 1049.15 2850.74 1034.49
00000927 00000126 2315.72 244.72 806.02 1020.01 2454.93 696.79 2819.61 679.59 2608.77 944.75 2548.61 1047.36 2849.50 1032.48
00000928 DELETE   2316.05 243.35 805.70 1022.36 2454.94 694.45 2817.53 676.48 2609.17 943.43 2550.64 1047.34 2848.90 1031.68
00000929 00000128 2314.92 240.80 815.11 1034.55 2458.19 699.26 2819.64 679.40 2612.29 945.79 2554.01 1048.11 2853.38 1030.89
00000930 DELETE   2313.30 242.82 821.27 1024.10 2459.06 703.06 2822.86 681.36 2614.80 952.72 2559.59 1049.55 2857.69 1030.76
00000931 DELETE   2314.16 243.93 821.10 1013.92 2458.02 712.36 2822.27 683.69 2616.26 957.00 2564.26 1057.66 2859.48 1033.28
00000932 DELETE   2312.06 249.96 835.75 1009.08 2458.82 722.31 2825.06 687.38 2619.36 968.82 2570.32 1063.09 2869.21 1033.67
00000933 00000132 2311.89 249.47 835.22 1011.00 2458.62 722.50 2825.07 687.55 2619.56 968.69 2569.76 1063.20 2869.46 1033.70
00000934 00000133 2312.03 251.78 835.13 1008.14 2458.35 722.53 2824.95 687.46 2619.25 968.86 2570.14 1063.54 2869.48 1033.90
00000935 DELETE   2302.21 285.48 844.81 996.07 2450.65 739.85 2810.12 689.55 2615.94 976.33 2600.66 1089.66 2879.97 1044.60
CROP_BBOX: 1554 0 3433 1640
