Video ID: 	QdXGKUfhe2Y
H: 	1080
W: 	1920
FPS: 	29.97002997002997

FRAME INDEX X0 Y0 W H [Landmarks (5 Points)]

00008568 00000000 899.88 288.09 371.44 547.05 977.91 529.76 1135.08 519.00 1049.79 634.02 1009.32 701.64 1145.40 692.26
00008569 00000001 907.74 279.90 371.93 556.26 983.50 524.87 1153.74 530.00 1059.85 631.24 1011.33 695.37 1159.64 698.91
00008570 00000002 907.86 284.32 376.51 553.27 987.57 527.73 1159.18 529.23 1067.28 631.74 1016.35 694.09 1167.69 694.91
00008571 00000003 909.24 287.45 377.53 549.92 990.58 529.26 1161.99 530.74 1070.36 632.36 1019.44 694.22 1170.91 695.01
00008572 00000004 909.75 286.83 378.71 552.45 991.86 528.91 1163.09 531.20 1071.01 632.18 1019.48 694.94 1170.77 696.49
00008573 00000005 909.53 286.35 378.96 558.24 991.59 529.08 1161.90 532.36 1069.86 632.47 1018.41 696.52 1169.80 698.98
00008574 00000006 909.40 281.78 379.67 569.49 990.89 528.45 1159.68 533.71 1066.61 632.82 1015.79 700.05 1164.24 704.27
00008575 00000007 909.28 282.06 378.63 574.57 989.17 528.55 1156.82 535.42 1061.37 633.15 1014.14 704.01 1159.08 709.71
00008576 DELETE   910.02 280.99 375.53 576.60 987.49 529.75 1150.96 540.25 1054.81 633.50 1011.89 705.32 1152.76 713.68
00008577 00000009 909.83 282.56 374.65 576.07 985.26 529.47 1149.73 542.95 1049.19 635.31 1006.48 703.93 1149.96 714.53
00008578 00000010 899.54 284.79 379.65 572.50 978.50 528.04 1140.84 528.74 1045.27 639.89 1006.34 711.98 1142.24 711.81
00008579 00000011 900.96 287.99 378.83 566.22 978.73 527.33 1140.46 529.68 1044.78 641.12 1004.26 710.51 1140.70 712.06
00008580 00000012 902.91 288.24 378.27 561.19 979.30 527.09 1142.86 530.02 1046.63 641.91 1003.52 710.27 1140.96 712.61
00008581 00000013 904.41 287.58 381.59 559.69 982.37 527.58 1146.30 528.19 1051.78 641.58 1009.30 711.42 1144.35 712.07
00008582 00000014 912.29 289.30 379.22 560.56 989.01 529.37 1159.66 542.05 1057.46 639.17 1010.40 702.63 1155.53 713.09
00008583 00000015 913.14 289.72 380.31 560.98 991.82 529.79 1163.26 541.08 1061.79 638.41 1012.22 702.52 1158.62 712.14
00008584 00000016 913.86 290.18 379.95 561.37 992.24 529.27 1163.74 540.76 1061.76 638.67 1012.04 703.11 1158.66 713.02
00008585 00000017 913.16 288.66 379.57 565.08 991.15 528.74 1161.95 541.28 1059.19 638.18 1010.03 703.53 1156.94 714.25
00008586 00000018 910.68 291.77 378.95 560.65 988.68 527.01 1157.05 540.40 1054.74 638.84 1008.78 703.32 1152.64 714.55
00008587 00000019 908.84 292.36 378.76 560.14 985.67 525.65 1153.90 539.00 1051.85 639.03 1006.38 703.48 1149.78 714.71
00008588 00000020 908.71 291.48 377.33 560.87 985.05 524.79 1152.26 539.07 1049.80 638.76 1004.77 703.09 1148.14 714.90
00008589 00000021 908.25 292.07 375.82 560.53 983.73 523.00 1149.89 537.71 1047.63 637.87 1002.68 703.15 1145.57 715.26
00008590 00000022 908.08 290.44 375.70 562.72 983.84 522.69 1149.37 538.06 1046.76 637.54 1002.77 703.09 1144.41 715.74
00008591 00000023 908.21 289.50 375.23 563.75 983.65 521.70 1149.20 537.01 1046.91 637.28 1002.57 703.32 1143.83 715.96
00008592 00000024 903.62 289.77 379.84 557.50 981.69 520.70 1144.16 522.65 1052.03 636.15 1006.74 708.96 1146.26 708.86
00008593 00000025 908.89 284.97 374.87 569.04 983.47 518.40 1149.14 533.23 1045.88 634.20 1001.22 703.51 1142.79 715.86
00008594 00000026 909.88 285.30 372.99 568.28 983.01 517.22 1148.95 532.20 1044.80 633.51 1000.25 703.54 1142.39 715.94
00008595 00000027 910.62 285.36 371.93 570.12 983.08 514.83 1147.30 531.13 1042.35 632.11 999.01 702.89 1140.01 716.42
00008596 00000028 909.69 284.61 373.13 571.19 982.13 514.02 1147.55 531.07 1040.59 630.93 997.12 702.21 1139.68 716.25
00008597 00000029 910.19 281.37 370.28 574.08 981.96 515.50 1144.74 533.97 1039.39 631.50 997.61 701.27 1138.38 716.15
00008598 00000030 909.32 281.13 371.06 574.67 980.57 515.11 1147.60 536.48 1037.66 629.77 994.21 699.56 1138.87 716.62
00008599 00000031 907.51 286.15 370.83 563.26 978.16 519.84 1137.26 529.01 1036.82 629.10 993.50 702.44 1136.16 708.71
00008600 00000032 906.54 286.47 371.34 562.99 975.44 519.00 1133.58 527.92 1030.88 626.16 990.04 701.50 1132.29 707.56
00008601 00000033 904.23 285.84 372.88 571.76 970.43 511.96 1140.51 530.88 1021.20 627.47 979.64 697.27 1127.77 711.57
00008602 00000034 902.38 284.28 375.06 573.43 968.76 507.85 1138.60 528.46 1017.23 623.51 977.13 696.28 1123.61 711.85
00008603 00000035 900.88 280.46 375.67 576.26 966.59 503.27 1135.91 525.93 1012.96 622.60 973.36 694.27 1118.32 711.50
00008604 00000036 899.71 278.42 375.18 576.32 965.03 501.31 1132.58 523.62 1009.81 622.05 970.86 693.87 1113.72 710.88
00008605 00000037 899.66 277.66 374.68 573.54 964.23 498.81 1130.44 521.25 1007.93 620.93 969.95 692.49 1111.29 709.40
00008606 00000038 899.94 278.04 374.15 568.21 964.42 497.19 1130.19 520.46 1007.02 619.91 968.83 690.05 1108.84 707.60
00008607 00000039 900.63 277.25 373.07 562.02 964.97 496.21 1131.87 521.34 1008.42 620.12 968.46 687.18 1109.35 706.12
00008608 00000040 902.04 276.88 371.75 556.02 965.91 495.15 1132.40 520.33 1009.80 621.08 969.24 684.36 1110.15 703.38
00008609 00000041 902.62 274.87 371.79 554.93 965.50 494.91 1132.03 519.96 1009.52 620.69 969.04 683.53 1109.85 702.45
00008610 00000042 902.77 276.31 371.72 553.10 965.93 494.32 1132.93 519.91 1010.25 620.86 969.41 683.09 1110.00 702.49
00008611 00000043 902.95 277.64 371.84 551.45 966.02 494.39 1132.82 519.89 1010.31 620.75 969.49 682.99 1109.88 702.31
00008612 00000044 902.73 277.37 371.79 551.97 966.02 494.51 1133.12 520.25 1010.25 620.55 969.24 682.80 1109.87 702.36
00008613 00000045 902.79 280.30 371.25 548.56 966.49 494.93 1134.38 520.76 1011.86 620.65 969.28 683.20 1110.72 702.87
00008614 00000046 903.34 280.69 371.44 547.39 966.21 494.31 1134.49 520.72 1011.66 620.51 969.10 682.85 1110.77 702.94
00008615 00000047 903.14 281.33 371.43 547.31 966.37 495.02 1134.23 521.31 1012.12 620.80 969.11 683.15 1111.09 703.13
00008616 00000048 903.30 280.25 370.03 547.33 967.43 496.64 1134.50 523.02 1014.12 622.00 970.12 683.77 1111.47 703.90
00008617 00000049 903.13 281.25 370.77 547.62 968.05 498.19 1135.60 525.05 1015.42 622.94 970.50 684.66 1112.13 705.11
00008618 00000050 902.15 281.00 372.23 548.97 967.41 499.44 1135.24 525.88 1015.89 624.09 969.87 685.18 1112.76 705.25
00008619 00000051 901.80 281.61 372.65 548.27 967.11 499.42 1134.81 525.62 1015.76 624.10 969.78 685.61 1112.40 705.46
00008620 00000052 900.80 280.10 373.98 550.68 966.31 499.21 1134.11 525.40 1014.51 624.27 969.02 685.98 1112.45 705.82
00008621 00000053 900.46 280.75 373.59 550.01 966.26 498.86 1133.74 525.08 1014.33 624.53 968.77 685.80 1112.02 705.68
00008622 00000054 899.00 278.61 375.15 553.64 965.15 498.43 1133.19 523.80 1013.80 624.20 968.19 686.55 1112.46 705.77
00008623 00000055 898.67 278.71 374.69 554.32 964.53 498.01 1132.38 521.93 1013.76 624.49 968.21 687.33 1112.38 705.45
00008624 00000056 898.49 278.19 374.43 554.11 964.77 497.95 1132.62 521.83 1014.72 625.18 968.17 687.49 1111.93 705.66
00008625 00000057 898.36 277.99 374.12 554.49 964.63 497.89 1132.96 521.40 1015.08 625.22 968.00 687.88 1111.94 705.78
00008626 00000058 897.86 278.70 374.83 553.80 964.23 497.86 1133.41 521.41 1015.74 625.24 967.90 688.16 1112.00 706.02
00008627 00000059 897.78 277.39 374.94 554.91 964.19 497.92 1133.17 521.29 1015.48 625.03 968.04 688.33 1111.70 706.05
00008628 00000060 898.82 279.80 370.80 547.32 963.23 494.30 1133.44 519.14 1016.66 620.15 972.64 685.64 1114.63 705.34
00008629 00000061 899.13 279.82 371.04 548.93 963.52 494.36 1133.48 519.57 1016.30 620.30 972.97 685.69 1114.69 705.70
00008630 00000062 898.96 278.89 370.73 552.05 963.70 494.77 1133.15 520.09 1015.85 620.65 973.36 686.27 1115.64 706.40
00008631 00000063 901.79 277.79 369.89 561.71 966.86 497.49 1133.26 520.29 1017.60 620.44 976.93 690.55 1117.66 708.93
00008632 00000064 898.59 276.52 375.10 580.05 966.34 501.20 1134.07 518.98 1014.95 621.53 974.96 696.20 1116.70 709.52
00008633 00000065 899.13 281.83 374.95 577.03 966.65 500.30 1135.62 516.53 1016.27 622.03 976.27 696.90 1121.79 709.07
00008634 00000066 897.63 285.88 376.08 573.53 965.10 501.37 1133.92 516.30 1015.95 624.27 975.85 698.48 1121.70 709.60
00008635 00000067 897.52 289.71 376.79 560.46 962.59 508.13 1125.53 514.76 1016.40 624.39 981.32 702.03 1122.32 706.58
00008636 00000068 897.74 290.67 376.59 557.00 962.78 506.70 1125.24 513.66 1016.47 623.82 981.21 700.61 1120.31 705.63
00008637 00000069 897.67 288.43 375.98 562.92 964.82 500.30 1134.38 517.34 1016.17 625.94 972.57 696.10 1117.04 708.84
00008638 00000070 900.16 290.83 375.20 555.29 966.56 499.96 1135.69 518.45 1018.90 626.33 973.93 694.41 1116.90 708.35
00008639 00000071 900.94 289.84 373.69 554.97 967.49 501.72 1138.27 519.92 1022.02 628.38 976.20 695.69 1119.66 709.37
00008640 00000072 901.12 292.19 373.41 551.77 967.52 502.36 1138.13 519.92 1023.05 630.61 979.16 697.13 1122.47 710.24
00008641 00000073 899.69 291.63 374.87 554.33 966.54 500.20 1137.25 518.36 1020.93 628.12 976.16 695.14 1121.44 708.77
00008642 00000074 900.14 290.04 372.06 549.40 966.15 495.22 1135.01 515.01 1017.44 619.29 977.70 690.75 1116.51 706.75
00008643 00000075 897.76 284.71 373.53 550.15 962.86 489.50 1132.25 509.39 1014.51 615.36 975.05 687.39 1110.65 703.53
00008644 00000076 897.66 276.06 373.37 555.91 961.32 485.24 1129.02 505.56 1011.94 610.84 974.80 684.18 1106.83 700.67
00008645 00000077 897.81 270.56 372.60 558.72 960.30 483.60 1125.87 503.45 1010.01 608.81 974.63 682.78 1103.74 698.83
00008646 00000078 897.77 270.23 371.14 556.13 959.14 483.61 1124.08 503.61 1009.36 609.16 973.42 681.27 1104.01 697.35
00008647 00000079 896.85 270.50 372.05 554.45 957.74 483.88 1123.74 503.96 1009.51 610.13 973.41 682.19 1104.27 698.16
00008648 00000080 895.59 277.71 371.82 549.02 956.96 485.90 1124.93 506.08 1009.44 614.72 972.96 683.74 1106.81 699.72
00008649 00000081 893.86 281.55 371.60 548.54 954.96 489.36 1123.21 507.93 1007.65 618.55 971.69 687.93 1105.50 702.62
00008650 00000082 892.31 283.08 371.83 547.92 952.71 490.27 1122.30 508.49 1006.23 620.03 970.54 689.80 1104.65 704.12
00008651 00000083 891.64 279.88 372.48 552.13 952.26 489.17 1120.69 507.50 1005.09 617.68 970.07 689.13 1102.06 703.63
00008652 00000084 891.63 274.49 372.52 555.27 952.47 486.35 1120.04 505.29 1004.94 615.15 970.41 687.50 1100.42 702.51
00008653 00000085 892.62 266.38 370.62 561.83 952.40 484.40 1117.10 503.24 1003.17 611.60 971.29 685.75 1098.25 700.80
00008654 00000086 894.60 264.19 368.86 563.66 953.72 482.34 1116.34 501.17 1002.11 608.27 971.96 682.20 1097.76 697.36
00008655 00000087 892.06 266.86 372.50 554.09 958.22 489.18 1113.44 500.12 1002.68 608.07 973.35 679.06 1101.78 689.32
00008656 00000088 894.97 264.61 367.23 562.62 952.70 481.41 1114.14 499.68 999.62 607.93 973.15 681.14 1098.52 695.79
00008657 00000089 893.30 269.68 367.98 560.44 951.69 483.06 1113.28 500.15 998.53 610.04 972.37 683.49 1099.11 697.17
00008658 00000090 891.48 270.69 368.23 559.63 950.02 484.51 1112.26 502.00 997.34 613.65 970.21 685.64 1097.94 699.54
00008659 00000091 890.62 272.05 369.91 560.62 949.45 486.50 1112.14 504.69 997.04 615.67 969.54 686.94 1098.75 701.30
00008660 00000092 890.23 272.25 370.04 560.39 948.74 487.92 1112.68 505.84 997.58 616.07 968.80 688.12 1099.40 702.23
00008661 00000093 889.81 272.48 369.79 557.51 948.08 487.17 1111.96 505.62 997.35 615.15 968.76 686.38 1097.93 700.89
00008662 00000094 890.87 270.32 368.21 556.45 948.41 485.99 1111.12 504.16 997.51 614.26 969.30 684.81 1098.50 699.09
00008663 00000095 892.03 267.21 366.60 555.25 948.43 483.96 1109.71 501.62 997.05 611.40 968.49 682.84 1095.68 696.79
00008664 00000096 893.14 262.74 366.72 558.84 948.19 482.71 1109.22 500.16 996.19 609.05 969.16 682.43 1093.74 696.21
00008665 00000097 894.37 259.08 365.69 562.70 949.04 485.54 1106.95 504.42 996.27 608.53 969.37 682.27 1092.00 697.10
00008666 00000098 893.79 258.42 366.42 565.15 949.02 488.36 1108.26 509.39 998.08 607.95 968.88 681.22 1093.80 697.72
00008667 00000099 892.56 257.85 369.22 570.32 948.80 490.83 1108.87 512.01 997.85 606.78 969.96 683.61 1093.21 700.03
00008668 00000100 890.41 260.42 372.39 574.57 948.26 491.95 1109.69 514.03 997.30 611.05 969.44 686.56 1093.71 703.80
00008669 00000101 890.18 263.84 372.12 572.48 948.79 491.42 1109.29 513.42 995.80 612.95 969.37 686.73 1094.94 703.83
00008670 00000102 890.84 265.60 369.58 568.43 948.15 492.60 1108.53 512.83 995.54 613.57 968.38 686.07 1096.07 701.71
00008671 00000103 891.14 265.79 367.88 564.81 947.90 489.73 1107.93 509.82 995.31 614.02 967.98 684.90 1095.68 700.54
00008672 00000104 890.88 266.92 367.28 563.31 947.17 489.67 1107.66 508.00 995.39 613.96 967.03 685.67 1094.79 699.96
00008673 00000105 890.63 265.00 367.25 566.05 947.22 488.42 1107.22 507.12 994.80 614.27 967.09 685.55 1094.17 700.20
00008674 00000106 889.66 265.22 367.97 566.46 946.33 488.37 1107.11 506.78 994.40 614.81 966.62 685.96 1094.20 700.39
00008675 00000107 889.94 265.61 367.95 570.77 946.45 488.41 1106.13 506.24 992.91 614.47 967.82 687.82 1093.71 701.70
00008676 00000108 889.09 265.04 368.65 570.87 945.58 488.96 1105.24 506.29 992.24 614.52 967.64 687.25 1093.52 700.68
00008677 00000109 888.57 263.07 368.49 568.90 943.80 489.18 1105.04 506.53 991.95 616.24 964.77 684.92 1096.26 698.29
00008678 00000110 887.80 267.06 368.01 559.57 942.55 488.79 1105.23 507.19 992.51 617.83 962.67 682.70 1096.74 696.89
00008679 00000111 887.63 267.81 367.85 558.64 942.07 488.98 1106.33 506.80 992.84 617.95 962.28 683.56 1097.87 697.26
00008680 00000112 887.31 266.92 369.55 562.99 942.05 489.47 1105.97 507.12 992.14 617.96 962.67 684.71 1097.45 698.25
00008681 00000113 887.24 266.94 370.46 566.35 942.84 489.87 1106.17 507.79 991.66 616.37 963.69 685.95 1095.97 699.72
00008682 00000114 887.36 266.71 370.71 569.46 943.49 490.26 1106.12 508.02 991.45 617.00 964.56 687.70 1095.35 701.37
00008683 00000115 887.83 268.66 370.09 567.31 943.97 490.13 1106.66 508.27 991.70 617.29 964.25 687.92 1095.20 701.92
00008684 00000116 888.34 268.93 369.61 566.07 944.21 490.68 1106.93 509.02 992.54 617.90 964.24 688.35 1095.28 702.57
00008685 00000117 888.32 269.46 369.28 564.21 943.98 490.64 1107.63 509.27 992.94 618.40 963.05 688.25 1095.12 702.73
00008686 00000118 887.83 267.90 368.60 564.56 942.34 492.06 1105.02 510.30 992.03 619.28 961.88 688.78 1093.02 702.96
00008687 00000119 886.54 262.93 367.10 566.64 939.49 493.51 1100.07 512.39 988.19 618.01 959.69 687.62 1088.48 702.21
00008688 00000120 886.04 264.51 365.29 561.89 934.32 492.57 1093.27 511.26 981.84 618.37 955.32 688.00 1080.72 702.48
00008689 00000121 885.81 269.66 364.43 557.39 932.41 491.80 1090.80 511.41 978.12 619.00 953.48 687.88 1078.18 703.08
00008690 00000122 886.65 266.15 364.65 561.32 934.11 493.36 1094.01 513.64 980.45 617.42 954.72 687.07 1081.33 702.70
00008691 00000123 887.51 266.69 367.05 562.05 938.19 495.44 1099.33 515.27 986.14 616.28 957.78 686.34 1088.40 701.51
00008692 00000124 889.59 266.34 368.96 561.21 942.33 494.88 1106.15 514.42 992.37 614.90 960.76 684.12 1095.46 699.10
00008693 00000125 890.48 263.95 369.55 561.98 943.46 494.61 1107.74 512.94 993.54 614.76 962.27 683.96 1098.30 697.91
00008694 00000126 890.43 262.32 367.87 562.45 941.51 495.44 1104.00 512.92 990.90 615.06 961.40 683.64 1096.56 696.75
00008695 00000127 890.50 261.41 367.08 561.29 938.99 493.62 1099.21 512.05 984.99 615.40 960.08 682.40 1092.61 696.26
00008696 00000128 890.11 257.81 365.79 563.73 937.65 492.45 1096.26 509.87 982.14 614.66 960.05 682.50 1091.00 695.57
00008697 00000129 892.00 255.28 364.72 566.52 938.87 491.67 1095.18 507.90 981.78 612.70 963.53 682.72 1090.69 694.83
00008698 00000130 893.71 253.80 364.70 568.98 942.21 490.91 1099.25 506.75 984.30 608.40 966.63 681.98 1092.91 693.70
00008699 00000131 894.69 253.31 365.17 570.24 944.84 490.61 1100.07 506.68 986.93 605.50 968.82 680.44 1091.64 692.51
00008700 00000132 894.69 253.96 364.97 572.39 945.36 491.29 1100.64 506.87 986.90 605.22 969.35 682.14 1092.36 693.74
00008701 00000133 894.05 254.76 365.21 573.35 944.58 491.44 1100.84 507.39 986.52 606.59 968.83 683.05 1092.87 694.94
00008702 00000134 893.39 257.55 365.75 568.14 942.67 491.52 1099.46 508.31 985.60 610.24 965.98 681.91 1093.11 694.49
00008703 00000135 892.69 258.62 365.67 563.60 941.59 492.84 1100.27 508.40 986.88 610.96 965.02 681.33 1096.51 692.80
00008704 00000136 891.55 259.96 367.21 561.49 941.18 493.14 1103.38 509.61 989.45 610.29 964.55 680.58 1098.19 692.85
00008705 00000137 888.39 263.53 372.82 553.53 950.71 500.16 1102.82 512.54 990.22 607.63 969.32 678.45 1099.46 688.15
00008706 00000138 889.60 262.15 374.44 558.15 954.01 500.39 1107.44 511.69 995.52 607.75 972.01 679.93 1102.59 689.02
00008707 DELETE   890.40 261.50 374.66 560.97 956.30 499.99 1110.06 510.94 1000.46 609.30 975.69 680.42 1105.87 689.41
00008708 00000140 890.19 259.77 377.38 564.43 958.51 498.18 1114.50 508.10 1005.11 610.02 978.84 682.95 1108.29 691.35
00008709 00000141 893.18 261.61 375.43 562.40 961.20 495.79 1115.25 503.73 1007.86 608.44 980.80 682.13 1108.87 689.26
00008710 00000142 893.92 259.58 375.57 564.14 962.16 493.52 1117.30 500.60 1009.21 607.52 982.43 682.95 1110.02 689.50
00008711 00000143 895.87 258.77 374.45 563.61 963.66 491.08 1118.65 498.38 1009.52 606.11 983.15 681.61 1110.34 688.44
00008712 00000144 894.94 257.55 373.61 576.96 962.16 486.26 1124.68 501.06 1007.39 601.84 977.86 683.55 1104.79 694.27
00008713 00000145 895.96 257.92 373.93 572.29 962.93 484.93 1126.52 499.16 1009.69 601.56 980.27 683.26 1105.99 693.46
00008714 00000146 897.57 255.50 374.49 571.90 964.99 485.31 1129.51 499.57 1012.85 600.59 980.90 681.19 1109.69 691.48
00008715 00000147 898.14 254.48 375.80 567.42 964.06 483.28 1130.37 498.42 1012.12 601.28 980.43 678.80 1111.22 689.74
00008716 00000148 898.92 254.90 376.25 560.87 964.13 481.19 1131.00 497.69 1012.10 601.10 978.26 674.72 1111.34 686.82
00008717 00000149 899.88 253.80 375.32 559.57 965.45 480.58 1131.62 497.22 1013.03 600.81 979.44 673.59 1112.03 685.79
00008718 00000150 902.12 251.14 374.55 563.93 966.48 480.00 1132.06 497.41 1013.18 601.18 980.73 674.18 1110.94 687.03
00008719 00000151 903.08 250.37 374.12 565.21 967.59 479.63 1134.96 496.54 1015.58 601.44 982.99 675.40 1113.88 687.95
00008720 00000152 902.29 254.19 377.01 560.09 969.89 478.22 1136.55 496.41 1020.78 601.44 986.03 676.68 1117.01 690.15
00008721 00000153 903.73 256.38 377.26 558.17 971.42 477.15 1138.35 495.97 1022.05 600.37 986.63 676.16 1118.11 690.09
00008722 00000154 904.62 256.71 375.59 560.81 972.51 476.64 1138.93 494.58 1022.04 599.08 987.63 676.66 1117.56 689.62
00008723 00000155 906.08 254.72 374.71 562.53 974.20 475.89 1139.66 493.24 1022.70 598.39 990.27 676.57 1120.29 688.92
00008724 00000156 906.32 253.88 375.12 563.35 974.70 475.16 1140.86 492.30 1023.15 597.79 990.43 676.82 1121.06 689.05
00008725 00000157 907.22 254.97 374.21 562.36 976.03 474.74 1141.11 491.86 1023.96 596.99 991.09 676.20 1121.38 688.48
00008726 00000158 908.18 256.25 373.75 559.35 976.71 474.00 1141.29 491.58 1024.75 596.57 991.34 674.16 1122.55 686.81
00008727 00000159 909.07 256.43 373.10 557.46 976.77 474.09 1141.58 491.76 1024.79 596.31 990.85 673.69 1122.50 686.63
00008728 00000160 909.11 255.96 373.18 557.30 977.09 474.22 1141.99 491.89 1025.52 596.63 991.27 673.39 1123.11 686.27
00008729 00000161 908.04 256.46 373.99 557.63 977.06 474.84 1142.05 492.48 1025.39 596.82 991.61 673.79 1123.21 686.56
00008730 00000162 908.31 257.11 373.35 557.74 977.14 476.06 1142.18 493.29 1025.62 598.06 991.88 674.57 1123.96 686.90
00008731 00000163 907.28 256.02 373.17 559.13 976.49 475.77 1140.49 492.75 1025.00 597.63 991.75 674.54 1122.44 686.70
00008732 00000164 906.57 257.69 373.38 558.09 975.49 474.47 1139.98 491.81 1024.07 597.08 991.29 674.48 1121.51 686.92
00008733 00000165 905.99 254.69 373.81 560.95 974.62 473.56 1138.55 490.36 1021.91 595.52 990.61 674.45 1119.93 686.52
00008734 00000166 906.04 252.72 374.73 562.87 975.04 472.64 1138.33 489.00 1021.97 595.19 991.64 674.70 1119.39 686.42
