Video ID: 	aVRvku72hs8
H: 	2160
W: 	3840
FPS: 	23.976023976023978

FRAME INDEX X0 Y0 W H [Landmarks (5 Points)]

00002730 00000000 1291.03 441.26 801.16 1119.13 1474.04 922.43 1784.09 849.07 1647.50 1063.16 1573.68 1272.98 1862.47 1211.58
00002731 00000001 1288.61 437.76 801.44 1123.30 1472.17 921.11 1782.22 848.77 1644.04 1060.50 1570.42 1269.68 1861.89 1208.93
00002732 00000002 1281.44 434.82 806.06 1141.36 1469.28 920.34 1779.01 848.60 1644.51 1063.69 1572.32 1274.44 1864.99 1213.46
00002733 00000003 1275.01 439.89 806.96 1154.88 1464.19 919.61 1769.98 848.91 1638.37 1068.58 1574.08 1287.21 1859.49 1226.94
00002734 DELETE   1268.94 456.23 808.95 1150.55 1458.34 922.22 1759.39 855.05 1627.19 1080.56 1570.19 1295.30 1853.55 1236.81
00002735 00000005 1264.20 461.61 811.25 1151.38 1453.44 925.08 1752.37 862.01 1621.23 1088.16 1566.86 1301.66 1847.05 1246.11
00002736 00000006 1260.40 474.97 815.36 1141.62 1447.35 930.22 1747.80 867.30 1613.84 1096.51 1561.53 1306.71 1844.22 1251.58
00002737 00000007 1257.92 478.50 817.98 1140.86 1441.49 932.83 1740.04 869.72 1606.93 1106.14 1559.28 1311.83 1839.46 1256.30
00002738 00000008 1253.90 480.98 820.72 1127.38 1437.82 936.93 1736.48 876.27 1605.79 1114.65 1556.98 1313.36 1827.59 1260.82
00002739 00000009 1254.34 486.32 820.78 1111.93 1434.90 940.39 1736.33 879.95 1603.78 1121.15 1552.42 1315.66 1822.54 1264.49
00002740 DELETE   1251.95 487.13 824.85 1105.34 1435.59 945.14 1737.39 879.17 1604.47 1116.53 1553.24 1311.68 1824.98 1256.66
00002741 00000011 1249.73 490.26 826.64 1098.68 1434.76 941.96 1735.17 875.48 1601.57 1108.68 1551.57 1303.99 1824.15 1248.13
00002742 00000012 1248.27 488.23 827.69 1096.70 1434.08 937.87 1735.79 866.62 1602.40 1099.97 1551.25 1300.02 1825.32 1240.71
00002743 00000013 1245.46 498.63 826.65 1080.76 1426.05 932.05 1729.70 859.84 1591.85 1096.32 1545.75 1297.94 1816.38 1238.24
00002744 00000014 1243.45 495.06 825.37 1079.76 1421.16 929.60 1724.45 855.58 1585.70 1091.68 1543.57 1296.74 1811.24 1235.26
00002745 00000015 1240.85 491.11 828.93 1080.73 1416.79 928.92 1725.14 848.90 1583.43 1085.23 1539.61 1293.58 1816.65 1226.53
00002746 00000016 1234.34 468.03 833.61 1090.23 1405.93 917.36 1720.69 839.06 1567.28 1081.90 1532.27 1279.72 1810.35 1211.85
00002747 00000017 1232.58 468.21 838.10 1087.46 1404.35 916.31 1720.69 835.78 1566.63 1079.10 1530.98 1277.74 1812.09 1207.78
00002748 00000018 1232.20 462.68 836.30 1090.34 1405.26 915.44 1720.90 835.98 1567.31 1078.75 1530.79 1276.40 1811.31 1207.53
00002749 00000019 1233.50 459.67 833.01 1092.16 1405.62 916.57 1718.89 839.06 1565.42 1079.06 1528.88 1274.71 1809.33 1207.49
00002750 00000020 1230.11 488.15 837.56 1075.64 1408.75 933.38 1723.83 848.04 1579.34 1080.31 1529.22 1290.63 1817.88 1218.67
00002751 00000021 1230.92 487.35 835.02 1085.09 1405.93 942.27 1717.92 850.54 1576.22 1088.12 1529.52 1298.02 1817.34 1220.93
00002752 00000022 1230.82 492.57 835.55 1090.17 1404.74 942.39 1714.16 850.30 1573.61 1094.09 1530.52 1302.93 1818.90 1225.15
00002753 00000023 1232.36 493.42 835.78 1098.09 1407.03 939.12 1714.15 849.38 1574.29 1094.41 1533.28 1303.28 1821.48 1227.21
00002754 00000024 1237.68 494.09 832.32 1103.00 1408.39 936.95 1713.70 849.69 1571.63 1093.20 1534.85 1305.38 1820.05 1231.31
00002755 00000025 1238.52 488.91 832.96 1110.70 1410.72 937.26 1714.78 851.89 1570.80 1092.70 1533.33 1304.96 1818.62 1233.16
00002756 00000026 1240.73 485.77 835.34 1116.52 1411.11 934.73 1716.79 849.80 1568.93 1089.95 1531.41 1304.77 1819.28 1233.19
00002757 00000027 1241.11 487.15 836.26 1115.40 1411.74 934.02 1716.72 848.62 1568.38 1087.89 1531.70 1304.26 1819.59 1232.44
00002758 00000028 1239.46 483.27 838.88 1117.97 1412.70 933.13 1717.19 849.01 1569.30 1085.91 1530.74 1304.20 1819.02 1233.55
00002759 00000029 1239.15 479.85 837.73 1121.11 1411.37 932.89 1717.41 848.40 1568.75 1085.74 1529.55 1304.77 1819.51 1233.99
00002760 00000030 1239.69 480.91 836.20 1113.38 1410.02 932.96 1718.37 848.38 1568.48 1085.14 1526.91 1303.57 1816.92 1233.17
00002761 00000031 1241.13 481.80 834.30 1105.34 1412.45 931.15 1718.82 848.66 1570.01 1085.24 1529.12 1299.56 1815.67 1231.05
00002762 00000032 1241.66 479.74 833.30 1107.85 1413.09 931.03 1719.30 848.06 1570.40 1084.81 1530.22 1300.26 1816.35 1231.27
00002763 00000033 1242.34 480.73 832.22 1104.83 1413.35 930.60 1719.49 849.17 1571.01 1086.26 1531.00 1301.91 1813.48 1234.33
00002764 00000034 1238.36 470.83 834.70 1100.76 1406.17 922.31 1721.24 846.55 1563.85 1088.20 1527.61 1293.55 1803.36 1228.59
00002765 00000035 1243.26 486.16 831.88 1099.59 1415.61 931.24 1722.26 850.63 1575.99 1087.81 1535.69 1302.66 1814.71 1235.80
00002766 00000036 1244.97 489.08 829.30 1098.53 1418.18 928.60 1720.67 850.29 1577.98 1087.62 1542.36 1301.76 1814.41 1235.99
00002767 00000037 1247.46 492.44 826.95 1097.98 1418.74 930.11 1720.73 851.51 1577.89 1089.29 1544.18 1302.08 1819.01 1235.42
00002768 00000038 1252.36 493.31 821.86 1096.53 1421.86 930.31 1721.06 853.81 1579.02 1090.93 1545.58 1302.25 1817.40 1237.58
00002769 00000039 1256.13 488.89 820.48 1097.70 1428.43 930.42 1723.74 857.25 1582.89 1091.49 1550.60 1301.91 1814.75 1240.57
00002770 00000040 1260.26 484.08 818.28 1096.25 1434.06 931.03 1729.60 859.51 1590.59 1089.90 1552.30 1299.63 1815.36 1240.50
00002771 00000041 1267.32 484.30 814.59 1089.71 1439.41 933.61 1730.35 862.52 1593.51 1090.09 1555.23 1298.08 1813.24 1240.30
00002772 00000042 1273.32 483.40 812.89 1086.96 1444.37 935.02 1735.60 861.06 1597.80 1088.12 1561.62 1297.40 1819.49 1237.00
00002773 00000043 1277.22 483.20 813.18 1088.07 1451.43 933.29 1744.08 859.46 1607.79 1084.14 1569.61 1296.82 1827.17 1236.22
00002774 00000044 1279.39 486.70 816.12 1085.96 1456.18 933.54 1751.01 859.16 1614.74 1082.99 1573.99 1296.17 1833.78 1235.00
00002775 00000045 1281.60 489.15 819.55 1085.03 1461.02 934.66 1758.34 858.54 1619.98 1084.35 1578.36 1297.81 1839.73 1234.77
00002776 00000046 1285.42 487.35 819.13 1089.62 1464.15 936.73 1761.20 861.88 1621.53 1088.91 1580.54 1300.20 1842.32 1238.23
00002777 00000047 1285.98 487.01 825.55 1091.88 1466.62 937.33 1766.58 861.96 1624.51 1089.53 1583.79 1302.31 1846.71 1239.64
00002778 00000048 1289.59 487.55 824.32 1091.39 1469.64 937.29 1768.73 861.36 1627.28 1087.96 1587.46 1303.06 1846.61 1240.33
00002779 00000049 1293.06 482.32 822.92 1096.13 1471.70 939.94 1769.37 862.27 1628.42 1090.43 1592.39 1306.37 1847.63 1242.40
00002780 00000050 1295.76 483.54 822.60 1102.12 1472.90 942.89 1769.73 860.32 1628.59 1093.66 1593.70 1307.74 1858.17 1239.07
00002781 00000051 1297.50 487.08 822.13 1100.32 1473.91 944.45 1771.64 858.56 1632.00 1094.10 1596.45 1309.98 1862.43 1238.60
00002782 00000052 1300.21 487.65 821.23 1096.73 1473.59 946.07 1772.65 857.88 1631.52 1093.80 1597.17 1309.68 1865.99 1236.30
00002783 00000053 1301.24 487.07 822.79 1092.83 1474.18 945.67 1774.23 858.55 1632.27 1092.74 1596.81 1307.16 1865.47 1234.36
00002784 00000054 1300.97 488.60 823.43 1091.37 1475.83 945.88 1774.85 858.34 1635.16 1091.18 1598.43 1306.53 1865.49 1233.50
00002785 00000055 1303.61 489.78 821.62 1089.90 1477.27 947.29 1775.55 858.86 1636.65 1092.27 1600.23 1306.92 1866.42 1233.44
00002786 00000056 1306.99 497.94 817.85 1080.06 1482.01 947.58 1778.70 864.01 1639.43 1092.25 1603.16 1304.50 1865.26 1235.34
00002787 00000057 1307.55 500.68 819.82 1077.89 1482.71 947.37 1782.60 863.77 1640.86 1091.11 1603.93 1304.36 1868.73 1235.13
00002788 00000058 1307.18 502.96 823.48 1077.41 1482.60 948.97 1782.07 860.84 1641.72 1092.65 1606.98 1308.05 1871.43 1234.51
00002789 00000059 1309.54 495.00 821.29 1084.88 1482.67 946.31 1783.40 858.77 1641.24 1092.47 1605.58 1307.89 1871.83 1235.12
00002790 00000060 1311.08 489.07 820.55 1087.14 1483.68 945.70 1785.94 857.85 1643.91 1092.17 1606.07 1306.01 1874.47 1232.98
00002791 00000061 1311.21 482.03 821.19 1089.86 1482.70 946.25 1787.57 857.05 1644.61 1093.04 1607.08 1305.95 1878.43 1231.33
00002792 00000062 1313.38 484.10 822.97 1086.17 1484.15 946.62 1793.19 856.30 1649.54 1094.26 1608.92 1306.73 1883.60 1231.33
00002793 00000063 1318.60 478.55 818.84 1087.51 1486.68 949.57 1798.56 858.56 1654.51 1097.29 1609.99 1305.09 1890.37 1229.13
00002794 00000064 1324.93 480.84 817.70 1084.02 1490.66 949.81 1805.53 860.20 1659.95 1098.12 1611.97 1302.70 1897.40 1227.37
00002795 00000065 1329.24 484.15 820.55 1085.11 1494.91 950.36 1811.57 861.68 1664.11 1101.82 1615.24 1303.17 1903.62 1228.19
00002796 00000066 1333.68 487.96 820.84 1082.84 1500.43 947.57 1820.20 862.56 1670.93 1101.44 1619.54 1303.21 1908.25 1230.93
00002797 00000067 1338.35 494.99 820.34 1078.14 1505.56 947.33 1826.14 863.13 1676.97 1103.25 1624.56 1305.01 1913.56 1233.44
00002798 00000068 1338.21 494.87 823.93 1080.05 1509.06 945.58 1830.22 861.96 1681.41 1105.53 1627.71 1305.96 1916.05 1234.39
00002799 00000069 1338.83 496.69 826.57 1082.42 1511.69 943.86 1835.32 861.65 1685.79 1107.27 1629.15 1306.44 1919.90 1235.84
00002800 00000070 1340.56 500.36 828.82 1079.53 1513.83 943.90 1839.45 861.57 1688.48 1109.98 1631.58 1307.50 1923.78 1236.37
00002801 00000071 1340.96 492.13 836.92 1088.00 1520.41 933.47 1842.59 855.66 1692.82 1106.23 1636.69 1300.48 1928.16 1234.47
00002802 00000072 1341.63 492.51 838.69 1087.21 1522.06 932.85 1845.81 854.69 1696.52 1107.17 1638.53 1299.34 1931.84 1233.09
00002803 00000073 1342.59 487.27 839.29 1094.10 1521.95 933.19 1846.89 854.13 1697.40 1108.51 1639.45 1301.44 1933.56 1234.38
00002804 00000074 1343.66 486.70 837.68 1094.60 1522.44 933.29 1846.68 854.97 1696.55 1107.48 1639.47 1300.87 1932.92 1234.40
00002805 00000075 1344.32 487.98 837.93 1092.50 1523.24 932.74 1849.55 854.25 1698.86 1107.54 1639.84 1300.03 1935.30 1233.41
00002806 00000076 1345.25 487.24 838.95 1094.06 1524.32 931.38 1851.48 853.50 1700.53 1106.46 1641.62 1299.49 1936.22 1233.35
00002807 00000077 1344.69 487.64 839.42 1094.62 1524.17 931.37 1850.57 852.67 1701.30 1107.15 1642.85 1299.84 1937.50 1232.92
00002808 00000078 1344.72 487.30 840.37 1094.72 1524.46 932.24 1851.74 852.88 1702.75 1106.76 1643.86 1301.06 1938.28 1233.61
00002809 00000079 1347.80 488.46 837.88 1093.79 1526.25 931.05 1852.96 852.01 1704.84 1105.65 1645.85 1300.23 1941.04 1232.86
00002810 00000080 1349.19 485.61 836.13 1096.13 1527.84 930.95 1854.20 852.26 1706.64 1104.26 1646.95 1299.01 1942.69 1231.93
00002811 00000081 1348.41 486.81 837.14 1094.55 1527.49 931.58 1854.91 852.21 1706.49 1103.59 1646.87 1299.23 1942.82 1231.66
00002812 00000082 1347.78 485.14 837.28 1096.70 1527.45 931.39 1854.84 852.25 1706.51 1103.54 1646.70 1298.82 1942.26 1231.45
00002813 00000083 1344.45 488.24 838.95 1093.23 1524.97 931.10 1853.27 851.71 1704.71 1104.65 1644.04 1299.09 1940.07 1231.57
00002814 00000084 1343.63 486.74 840.06 1095.38 1525.11 929.69 1853.57 851.91 1704.24 1104.07 1642.89 1298.40 1939.68 1232.10
00002815 00000085 1343.61 485.08 840.26 1097.16 1525.11 929.56 1853.80 851.52 1705.06 1104.20 1642.98 1298.50 1941.00 1231.89
00002816 00000086 1344.58 484.54 839.67 1097.20 1525.96 930.71 1853.45 851.42 1705.70 1103.99 1644.95 1299.26 1941.12 1231.69
00002817 00000087 1345.45 485.35 838.70 1098.01 1526.42 930.42 1853.23 850.49 1706.31 1103.96 1646.72 1300.76 1942.07 1232.48
00002818 00000088 1344.36 486.79 839.08 1098.30 1525.07 929.47 1851.86 848.39 1704.85 1103.58 1647.34 1301.50 1941.41 1232.25
00002819 00000089 1345.13 488.01 836.49 1098.07 1526.54 927.51 1849.32 849.74 1702.62 1102.27 1646.27 1299.28 1936.72 1232.84
00002820 00000090 1345.31 488.61 835.66 1097.39 1526.37 926.83 1848.92 850.84 1700.76 1101.54 1645.35 1299.04 1934.20 1234.21
00002821 00000091 1344.94 489.37 835.13 1096.95 1525.71 925.96 1847.70 850.94 1699.28 1099.71 1644.12 1298.91 1930.77 1235.03
00002822 00000092 1344.50 489.81 835.39 1097.13 1524.57 925.47 1845.72 850.68 1696.41 1098.74 1644.35 1300.54 1926.99 1236.95
00002823 00000093 1345.95 483.58 832.57 1105.75 1524.82 926.15 1843.03 851.56 1695.63 1101.79 1644.94 1302.40 1926.39 1238.88
00002824 00000094 1345.11 488.66 832.29 1099.65 1524.52 926.27 1840.79 851.31 1694.90 1102.22 1645.25 1301.33 1925.21 1237.50
00002825 00000095 1344.83 488.75 831.67 1100.30 1523.85 926.91 1838.96 852.25 1692.65 1103.66 1644.11 1302.29 1922.54 1238.78
00002826 00000096 1343.64 488.43 831.26 1098.21 1523.38 928.57 1838.78 855.00 1693.36 1106.49 1641.13 1300.83 1922.39 1238.41
00002827 00000097 1342.68 489.80 833.16 1093.41 1522.78 931.97 1840.03 857.59 1693.77 1107.78 1638.39 1299.04 1922.57 1236.23
00002828 00000098 1342.04 491.99 834.07 1088.90 1522.46 933.76 1840.71 858.65 1694.84 1110.53 1638.65 1300.45 1922.96 1237.05
00002829 00000099 1342.75 485.35 832.30 1096.07 1521.82 936.87 1842.44 860.78 1696.47 1113.57 1635.67 1302.81 1925.61 1238.58
00002830 00000100 1342.29 485.30 833.51 1096.74 1520.90 937.26 1842.40 860.43 1695.73 1114.84 1635.18 1303.64 1926.56 1238.64
00002831 00000101 1341.87 487.63 834.09 1092.48 1520.59 938.49 1842.47 859.63 1695.97 1115.42 1636.57 1303.73 1929.23 1237.00
00002832 00000102 1340.64 491.50 836.41 1091.07 1519.88 938.66 1842.75 858.69 1695.82 1115.33 1637.28 1303.92 1932.84 1235.97
00002833 00000103 1338.94 491.57 838.53 1090.67 1519.25 939.79 1841.58 858.75 1695.07 1115.73 1637.62 1304.10 1934.44 1235.09
00002834 00000104 1337.71 491.02 839.61 1090.94 1518.95 939.46 1841.37 858.91 1694.65 1115.99 1637.08 1303.98 1934.48 1235.35
00002835 00000105 1337.53 488.41 838.97 1093.73 1517.48 941.49 1840.42 859.43 1693.15 1116.44 1635.61 1305.24 1935.26 1235.17
00002836 00000106 1338.40 493.86 831.09 1089.42 1509.56 952.95 1839.29 864.58 1688.77 1120.46 1630.03 1309.75 1934.27 1233.37
00002837 00000107 1338.44 495.77 830.42 1088.01 1509.02 953.34 1837.94 864.95 1687.25 1120.77 1629.70 1309.65 1933.72 1233.28
00002838 00000108 1339.13 498.00 828.94 1084.72 1508.72 955.35 1835.18 866.21 1685.88 1120.60 1630.43 1309.88 1932.65 1232.99
00002839 00000109 1340.43 502.64 827.50 1080.10 1512.35 955.44 1831.21 874.16 1682.74 1117.67 1631.49 1305.21 1925.49 1234.97
00002840 00000110 1339.96 502.18 826.38 1080.69 1511.08 958.21 1828.94 873.94 1681.56 1118.35 1632.14 1307.16 1925.24 1234.43
00002841 00000111 1336.82 490.45 834.77 1093.95 1516.01 947.22 1833.16 866.33 1687.21 1118.85 1635.04 1305.03 1930.55 1236.02
00002842 00000112 1338.24 496.92 828.25 1090.18 1510.11 958.49 1830.14 869.31 1684.44 1122.30 1632.40 1311.39 1927.78 1234.54
00002843 00000113 1337.58 494.31 829.36 1094.16 1509.62 957.53 1832.54 869.01 1684.78 1124.53 1630.52 1311.56 1929.61 1235.14
00002844 00000114 1337.61 492.42 829.08 1095.42 1509.00 957.83 1832.27 868.90 1684.44 1125.76 1630.02 1311.93 1929.63 1235.25
00002845 00000115 1337.54 491.74 828.46 1095.08 1508.69 958.55 1832.41 869.30 1684.78 1126.57 1629.51 1311.92 1930.29 1235.12
00002846 00000116 1336.85 491.35 828.07 1095.87 1508.16 958.33 1832.15 869.35 1684.49 1126.50 1627.91 1311.02 1930.07 1234.55
00002847 00000117 1336.67 488.55 827.12 1099.20 1507.14 959.54 1830.64 871.33 1682.23 1127.94 1625.58 1310.61 1929.08 1234.94
00002848 00000118 1335.97 487.60 826.76 1098.51 1507.54 959.67 1830.27 873.77 1681.72 1128.43 1624.74 1309.65 1927.64 1235.87
00002849 00000119 1335.12 487.60 827.25 1098.69 1506.37 960.64 1828.94 873.94 1680.84 1128.52 1623.56 1309.70 1927.01 1235.40
00002850 00000120 1334.69 488.52 826.16 1096.76 1505.43 961.20 1828.22 874.67 1680.63 1129.03 1622.69 1310.20 1926.18 1236.21
00002851 00000121 1334.34 487.82 825.43 1097.01 1504.03 962.30 1825.82 875.10 1677.53 1128.29 1621.93 1311.41 1923.38 1236.95
00002852 00000122 1333.99 485.49 824.32 1098.73 1503.50 963.32 1824.73 875.00 1677.88 1128.26 1621.47 1311.59 1922.76 1236.30
00002853 00000123 1333.89 488.67 825.09 1095.30 1503.49 963.78 1824.50 874.90 1677.74 1127.35 1621.98 1312.23 1921.89 1236.58
00002854 00000124 1333.36 486.87 825.43 1097.71 1503.51 963.04 1824.97 874.32 1678.08 1127.32 1621.82 1312.15 1922.09 1236.51
00002855 00000125 1333.30 486.78 825.69 1098.05 1503.07 963.57 1823.99 874.75 1677.40 1128.88 1621.45 1312.58 1921.28 1237.03
00002856 00000126 1333.18 486.81 825.84 1098.00 1503.05 963.55 1823.79 874.63 1677.29 1129.20 1621.60 1312.81 1921.11 1237.10
00002857 00000127 1333.71 488.36 825.39 1096.39 1503.64 964.02 1824.32 875.04 1677.86 1129.40 1621.95 1313.62 1920.81 1237.94
00002858 00000128 1333.09 487.93 826.17 1097.18 1503.91 963.97 1824.44 875.29 1678.12 1130.10 1621.85 1313.39 1920.55 1238.02
00002859 00000129 1333.07 487.07 826.54 1099.26 1504.21 964.71 1824.24 876.18 1678.14 1131.01 1621.69 1313.56 1920.32 1238.38
00002860 00000130 1332.74 487.41 827.03 1098.96 1504.04 964.60 1824.64 876.00 1678.47 1131.43 1621.55 1313.79 1920.33 1238.59
00002861 00000131 1332.88 485.47 826.81 1100.18 1504.09 963.89 1825.17 875.14 1678.51 1130.38 1622.07 1313.47 1920.86 1238.05
00002862 00000132 1333.08 486.24 826.41 1098.83 1504.15 962.94 1825.27 874.45 1678.54 1130.17 1621.56 1312.25 1921.57 1236.93
00002863 00000133 1333.40 486.09 825.76 1098.47 1503.96 963.33 1824.83 875.12 1678.30 1129.48 1621.35 1312.31 1920.74 1237.30
00002864 00000134 1333.97 487.09 825.09 1098.14 1504.55 962.80 1824.32 874.68 1678.01 1127.91 1622.55 1313.02 1919.66 1237.91
00002865 00000135 1333.78 487.66 825.92 1098.76 1504.17 962.76 1824.25 874.51 1677.60 1128.42 1622.31 1313.00 1920.79 1237.85
00002866 00000136 1333.11 486.50 825.22 1099.33 1503.91 962.37 1822.56 874.15 1676.76 1128.37 1622.65 1313.56 1919.04 1238.30
00002867 00000137 1332.36 486.56 825.08 1099.73 1503.75 961.59 1821.46 873.90 1675.86 1128.53 1622.68 1313.94 1917.31 1239.10
00002868 00000138 1332.22 486.67 824.28 1100.21 1504.26 961.08 1819.13 873.93 1675.03 1128.36 1624.86 1315.58 1914.18 1241.08
00002869 00000139 1331.66 486.73 823.22 1097.73 1505.77 960.69 1816.14 874.71 1674.02 1127.08 1630.78 1319.38 1907.09 1245.78
00002870 00000140 1331.86 487.65 821.59 1094.74 1506.78 960.01 1815.58 873.81 1674.87 1124.73 1632.76 1318.40 1907.01 1244.63
00002871 00000141 1331.57 487.61 819.78 1092.64 1507.38 962.53 1812.42 878.45 1673.65 1121.62 1633.03 1317.99 1901.03 1245.99
00002872 00000142 1331.03 491.68 819.18 1088.40 1505.13 963.91 1807.88 882.16 1665.93 1121.23 1632.19 1317.68 1896.45 1247.36
00002873 00000143 1330.79 497.49 821.34 1102.23 1509.22 960.17 1810.28 880.41 1664.92 1118.70 1634.58 1323.80 1894.44 1254.75
00002874 00000144 1330.27 493.11 820.16 1121.82 1510.04 956.94 1811.24 873.54 1666.19 1117.17 1636.33 1330.52 1897.06 1258.77
00002875 00000145 1330.93 494.15 818.73 1113.99 1510.03 957.08 1812.62 871.37 1671.93 1117.56 1640.19 1330.54 1901.08 1256.84
00002876 00000146 1328.10 485.79 819.31 1098.29 1505.42 961.63 1816.65 871.77 1679.14 1119.84 1637.66 1331.52 1899.55 1254.81
00002877 00000147 1329.13 489.18 819.83 1100.15 1507.55 959.21 1821.03 870.86 1681.22 1120.90 1637.85 1331.99 1902.95 1256.40
00002878 00000148 1333.90 496.07 818.29 1103.77 1513.78 953.80 1820.64 869.21 1681.05 1117.79 1640.22 1324.82 1906.40 1251.79
00002879 00000149 1336.14 499.93 818.03 1101.25 1511.97 954.33 1819.99 868.76 1676.46 1117.48 1634.48 1319.49 1911.76 1245.63
00002880 00000150 1335.68 504.81 819.21 1093.75 1510.74 953.81 1819.00 869.60 1674.78 1113.56 1632.23 1315.30 1911.19 1242.29
CROP_BBOX: 868 13 2547 1859
