Video ID: 	cS5GFH3SiZQ
H: 	1080
W: 	1920
FPS: 	29.97002997002997

FRAME INDEX X0 Y0 W H [Landmarks (5 Points)]

00044546 00000000 630.51 88.52 412.55 584.74 751.46 318.42 934.47 295.96 870.68 395.70 801.65 516.73 965.71 495.06
00044547 00000001 630.46 80.67 416.38 593.15 754.56 310.73 938.63 285.87 878.42 391.55 806.58 517.36 968.92 493.98
00044548 00000002 634.19 80.40 415.89 584.99 759.80 307.69 942.46 281.37 884.63 390.51 810.69 512.37 971.87 488.24
00044549 00000003 636.93 83.34 415.24 578.24 762.61 305.93 946.35 278.61 888.82 388.50 813.69 510.48 975.31 485.90
00044550 00000004 637.84 82.92 415.89 586.34 763.88 304.74 948.56 275.99 892.04 388.44 815.47 514.97 976.80 489.33
00044551 00000005 637.32 79.69 416.53 598.45 764.37 304.72 948.88 278.04 892.92 390.42 814.54 519.74 976.00 495.68
00044552 00000006 637.71 82.29 417.56 601.24 763.26 310.09 949.15 281.33 892.89 395.29 814.28 524.63 979.62 498.87
00044553 00000007 638.35 85.24 416.92 602.70 765.54 313.52 949.87 287.10 895.15 401.04 815.10 526.65 979.70 502.70
00044554 00000008 639.18 81.82 414.90 608.62 767.23 316.08 952.27 292.82 897.50 406.86 817.00 530.90 979.60 509.48
00044555 00000009 638.74 80.53 413.67 609.15 767.82 319.47 952.73 296.39 898.63 411.42 817.70 532.84 979.60 511.53
00044556 00000010 636.99 81.89 410.08 604.59 765.16 321.45 950.28 296.78 897.03 415.02 815.90 531.74 979.73 508.96
00044557 00000011 632.28 81.34 412.02 602.45 763.24 323.10 946.90 298.10 894.89 415.10 816.01 531.46 977.48 508.27
00044558 00000012 627.89 89.26 409.80 594.26 757.47 327.99 941.31 301.22 888.11 415.40 814.34 535.42 972.13 510.76
00044559 DELETE   620.83 88.64 414.30 603.48 752.22 331.11 937.93 301.91 885.58 419.03 813.72 540.55 970.75 514.25
00044560 00000014 614.28 90.71 416.58 610.26 749.04 339.93 934.44 311.23 884.47 426.34 812.06 550.82 965.31 525.91
00044561 00000015 609.55 105.49 417.25 614.01 754.25 352.42 929.82 312.60 889.75 433.04 823.10 571.43 963.23 535.31
00044562 00000016 607.08 107.07 416.19 619.99 751.26 359.18 927.73 319.13 889.03 440.89 822.43 580.36 961.25 544.05
00044563 00000017 605.29 110.58 413.38 618.25 747.96 365.87 921.72 325.04 885.66 445.18 819.96 584.56 958.43 548.04
00044564 00000018 600.50 113.30 416.39 622.93 744.50 370.81 919.00 330.08 883.47 452.59 818.33 591.17 957.22 554.64
00044565 DELETE   597.82 116.02 416.55 623.57 739.27 374.40 915.23 332.47 879.65 454.44 816.89 595.39 957.56 557.83
00044566 00000020 594.92 116.55 414.42 626.94 734.91 374.37 911.89 332.22 876.29 457.12 810.50 597.61 954.75 560.06
00044567 00000021 594.18 117.31 411.90 628.69 731.12 375.27 909.51 332.03 872.68 457.80 806.26 600.54 952.38 562.12
00044568 00000022 590.97 117.44 411.48 632.12 729.55 374.65 905.63 334.28 869.14 456.56 801.79 599.94 946.41 564.34
00044569 00000023 588.13 124.45 412.49 625.12 727.70 380.87 911.04 338.60 873.24 463.84 792.11 604.18 945.91 567.83
00044570 00000024 589.56 119.12 409.87 636.88 725.62 376.63 903.52 338.53 866.34 461.77 794.28 603.85 944.33 570.51
00044571 00000025 590.14 121.15 408.74 636.13 725.57 377.64 902.72 339.87 865.72 464.44 794.29 604.01 944.79 570.86
00044572 00000026 590.13 120.57 408.52 636.74 725.62 379.68 902.40 341.60 865.98 466.27 793.87 605.39 944.18 572.12
00044573 00000027 590.69 120.27 408.96 636.51 725.93 380.01 903.12 341.39 866.32 466.34 794.42 605.02 945.19 571.41
00044574 00000028 592.84 121.80 408.54 633.48 727.34 378.91 905.00 341.16 867.45 465.83 796.44 603.49 947.25 570.46
00044575 00000029 593.38 123.27 408.24 630.56 728.99 377.57 906.61 339.65 869.31 463.79 797.75 601.09 948.42 567.84
00044576 00000030 594.07 118.98 408.31 632.71 730.45 376.73 906.46 338.36 870.47 462.12 799.90 600.68 948.40 566.84
00044577 00000031 594.42 119.46 408.51 631.60 731.45 376.01 906.85 338.13 870.96 460.76 800.20 599.69 948.18 566.38
00044578 00000032 594.09 118.72 408.04 629.94 732.18 375.99 906.92 337.82 871.46 459.66 801.16 598.86 947.43 565.35
00044579 00000033 594.11 117.87 408.32 630.93 731.33 375.13 907.00 337.23 870.97 458.77 800.03 598.52 947.79 565.26
00044580 00000034 590.32 124.78 410.04 620.87 732.35 380.63 912.41 339.33 877.08 463.45 793.82 600.03 947.28 564.70
00044581 00000035 589.43 125.19 410.48 619.85 730.54 380.77 911.34 339.48 875.28 463.41 792.56 600.15 946.34 564.72
00044582 00000036 586.91 124.59 412.44 621.35 727.36 380.64 910.50 338.83 873.63 462.85 789.25 600.08 946.01 564.13
00044583 00000037 586.15 124.07 412.53 621.23 725.31 380.64 909.18 338.86 871.67 462.97 787.55 599.70 945.46 563.71
00044584 00000038 585.47 122.43 412.30 621.29 724.18 380.54 908.59 338.77 870.52 463.38 786.20 599.47 944.17 563.47
00044585 00000039 583.21 122.49 413.04 622.58 722.09 380.76 907.08 338.60 869.22 463.99 783.99 600.05 943.16 563.70
00044586 00000040 583.11 121.47 412.35 624.59 721.10 381.63 906.44 339.52 867.95 464.84 782.99 600.78 943.18 564.40
00044587 00000041 582.81 121.32 412.03 624.82 720.50 381.47 906.03 339.47 867.18 465.17 782.13 600.71 942.45 564.43
00044588 00000042 582.62 120.98 411.90 624.57 720.26 381.56 905.88 339.75 866.70 465.47 781.55 600.64 941.95 564.50
00044589 00000043 583.10 121.57 410.86 624.27 719.72 381.13 906.26 339.63 866.31 465.43 780.93 600.68 942.07 564.74
00044590 00000044 582.91 120.92 410.84 625.42 719.84 381.11 905.78 339.55 865.98 465.71 780.81 600.66 941.56 564.66
00044591 00000045 582.99 121.60 410.81 624.55 719.93 381.11 905.77 339.45 865.85 465.49 781.00 600.40 941.85 564.30
00044592 00000046 582.98 122.29 411.42 624.35 720.29 381.26 906.44 339.26 866.58 465.64 780.77 600.12 942.58 563.80
00044593 00000047 583.37 122.08 411.47 624.85 720.56 381.13 906.38 338.99 866.47 465.65 781.10 600.05 942.95 563.52
00044594 00000048 584.16 121.95 411.19 625.23 721.39 380.99 906.84 338.99 867.34 465.56 781.76 599.67 943.92 563.37
00044595 00000049 584.45 122.64 411.56 624.71 721.56 380.87 907.31 339.02 867.47 465.47 782.02 599.94 944.15 563.75
00044596 00000050 584.48 122.83 411.76 624.66 721.84 380.78 907.61 339.19 867.81 465.56 782.22 600.03 944.16 564.10
00044597 00000051 584.90 124.25 411.28 622.87 722.09 380.45 907.83 339.20 867.99 465.76 782.32 599.73 944.27 564.10
00044598 00000052 585.14 124.41 411.16 622.94 722.15 380.63 907.92 339.13 867.70 465.98 782.46 599.98 944.48 564.10
00044599 00000053 584.85 124.97 411.37 623.32 722.22 380.47 907.97 339.11 867.84 466.03 782.16 599.96 944.63 564.17
00044600 00000054 585.04 122.85 410.94 624.39 722.05 381.24 908.08 339.99 867.79 466.51 781.80 599.83 944.27 564.26
00044601 00000055 585.14 122.52 409.83 624.53 721.66 381.42 907.64 340.70 866.86 467.06 781.53 599.98 943.74 564.79
00044602 00000056 584.05 121.96 410.46 624.59 721.07 381.49 907.04 340.86 866.47 466.68 780.98 600.01 942.59 564.90
00044603 00000057 584.34 120.79 409.39 626.39 720.61 381.10 906.89 340.83 865.71 466.38 780.81 600.54 942.15 565.61
00044604 00000058 583.98 120.12 409.94 627.39 720.30 381.14 906.62 340.39 865.66 466.57 780.75 600.66 942.44 565.27
00044605 00000059 584.55 122.05 408.65 624.01 719.59 380.62 906.31 340.01 865.05 466.23 779.86 600.34 941.60 565.11
00044606 00000060 582.18 122.42 411.25 624.34 717.96 381.02 905.17 339.99 864.02 465.71 779.09 600.76 940.95 565.04
00044607 00000061 579.93 121.03 413.15 623.94 714.90 381.97 903.29 338.25 861.76 464.61 778.90 601.54 940.15 563.53
00044608 00000062 579.15 120.83 412.83 624.19 711.73 382.24 900.01 337.86 857.80 466.34 775.76 601.69 937.18 563.19
00044609 00000063 577.78 121.19 412.58 621.82 709.98 382.42 896.56 338.94 853.82 468.17 773.98 600.91 932.73 563.25
00044610 00000064 575.65 122.64 413.70 620.27 707.06 382.38 892.39 339.10 849.30 470.41 770.78 600.14 928.03 562.64
00044611 00000065 574.22 119.45 413.42 624.80 704.60 382.68 889.78 340.22 845.08 470.81 767.43 600.78 924.21 564.07
00044612 00000066 572.17 118.13 415.10 630.25 702.38 382.46 887.88 340.06 842.27 470.49 763.43 601.36 920.92 564.86
00044613 00000067 570.18 118.63 417.17 631.83 699.07 382.45 886.17 340.22 838.64 470.29 760.04 601.92 919.63 565.48
00044614 00000068 568.47 119.47 418.87 633.45 695.45 381.94 884.48 340.16 834.81 471.89 754.22 601.38 917.39 565.23
00044615 00000069 566.45 118.86 419.16 635.91 693.08 381.76 882.39 341.66 830.60 473.17 750.53 601.95 913.88 567.03
00044616 00000070 564.40 118.49 420.15 638.15 690.91 382.34 879.91 342.39 827.37 473.05 748.25 602.45 911.78 567.43
00044617 00000071 562.80 118.00 421.24 640.54 689.51 382.50 878.39 343.00 824.92 472.20 746.09 602.05 910.91 567.08
00044618 00000072 560.89 117.66 421.64 639.77 687.36 383.08 875.79 342.91 822.49 470.96 744.63 601.46 909.28 565.89
00044619 00000073 560.86 116.05 421.21 642.71 686.60 382.94 874.81 342.71 821.26 471.53 743.25 601.19 909.46 565.56
00044620 00000074 560.13 115.99 420.41 640.88 685.35 382.70 873.35 342.49 819.72 470.80 742.65 601.19 907.45 565.61
00044621 00000075 559.17 113.44 420.74 643.08 684.19 382.52 872.61 341.61 819.07 470.49 741.99 601.28 907.35 565.02
00044622 00000076 557.39 113.52 421.67 643.46 682.96 382.04 871.67 341.41 817.14 470.11 741.59 601.54 906.47 565.22
00044623 00000077 557.06 115.23 421.61 641.20 682.75 381.57 870.69 341.63 816.31 469.45 741.45 600.93 905.30 565.06
00044624 00000078 557.59 116.47 419.48 638.91 681.37 381.35 869.37 341.25 813.96 469.29 740.19 600.78 903.96 564.69
00044625 00000079 556.61 116.85 420.46 638.63 680.35 381.08 869.37 340.75 813.21 469.42 739.87 601.16 904.26 564.77
00044626 00000080 555.80 118.86 421.41 635.22 679.51 381.10 868.81 340.86 812.38 469.82 739.59 600.69 904.17 564.41
00044627 00000081 555.54 119.11 420.73 633.10 678.47 381.12 868.37 340.65 811.62 470.49 739.38 600.54 903.51 564.11
00044628 00000082 555.93 119.44 419.54 631.67 678.59 381.27 868.30 341.55 811.19 470.56 739.50 600.26 902.89 564.43
00044629 00000083 556.24 119.34 418.84 629.50 678.65 381.60 868.33 341.69 811.19 469.99 740.01 599.57 902.93 563.58
00044630 00000084 556.87 119.77 418.41 627.39 678.65 381.59 868.40 341.86 811.09 470.33 740.37 599.32 903.06 563.53
00044631 00000085 556.99 119.90 419.20 627.32 678.95 381.71 868.99 342.35 811.44 470.59 740.04 599.03 903.80 563.46
00044632 00000086 557.25 119.83 419.11 627.16 679.09 381.81 869.13 342.17 811.68 470.56 740.29 598.91 904.03 563.15
00044633 00000087 557.82 120.23 418.84 626.44 679.36 382.11 869.46 342.41 811.90 470.97 740.45 598.98 904.56 563.24
00044634 00000088 558.51 118.79 418.26 627.54 680.18 381.90 869.94 342.40 812.39 470.83 741.24 598.89 904.59 563.24
00044635 00000089 558.26 120.11 419.00 627.28 680.14 382.23 870.13 342.56 812.72 471.69 740.82 599.33 904.89 563.61
00044636 00000090 558.65 119.74 418.25 628.23 680.61 382.81 870.50 343.64 813.19 471.83 741.04 599.40 904.91 564.15
00044637 00000091 558.79 119.10 418.83 628.52 681.02 383.72 870.84 344.65 813.16 472.91 741.58 599.69 905.62 564.54
00044638 00000092 558.60 118.55 419.25 630.22 680.44 384.08 870.98 345.01 812.98 473.34 740.54 600.22 906.00 565.11
00044639 00000093 557.84 118.52 420.59 639.13 681.23 383.40 872.57 346.82 813.89 474.79 737.78 602.08 905.59 569.06
00044640 00000094 557.10 116.96 421.83 650.03 682.68 383.79 875.18 349.46 816.08 477.26 735.53 604.72 906.63 573.72
00044641 00000095 557.75 119.49 423.00 655.83 684.63 384.41 875.99 352.82 817.06 481.64 736.01 606.44 907.78 577.39
00044642 00000096 558.15 121.17 423.32 665.71 683.72 385.83 877.33 356.77 816.02 483.58 731.09 609.24 909.64 582.16
00044643 00000097 558.20 122.60 424.56 663.00 686.95 385.47 878.37 359.40 817.60 480.99 730.50 605.69 909.76 581.32
00044644 00000098 559.85 123.47 423.93 655.96 688.90 384.48 879.82 357.74 818.04 481.02 730.61 600.79 910.18 575.99
00044645 00000099 561.66 126.13 422.00 642.06 691.05 383.28 879.43 357.73 818.38 479.84 731.82 595.72 907.03 572.46
00044646 00000100 564.13 125.14 419.18 627.00 692.11 382.86 879.41 354.15 821.21 479.93 739.12 595.94 904.58 570.73
00044647 00000101 565.87 127.95 418.07 627.51 694.96 381.44 880.04 353.94 823.09 481.25 742.17 598.37 903.20 573.95
00044648 00000102 568.10 129.79 416.71 628.69 697.46 381.77 881.78 355.79 827.67 482.78 745.68 600.28 905.58 577.20
00044649 00000103 568.07 129.91 417.55 632.43 699.26 381.41 884.31 356.29 830.64 483.24 747.03 602.01 907.59 579.47
00044650 00000104 568.12 130.48 418.78 636.22 700.57 381.05 885.86 358.37 831.57 482.39 744.51 601.50 908.11 581.03
00044651 00000105 569.16 132.63 418.90 633.89 701.20 381.90 887.71 359.89 831.84 483.98 742.85 600.25 909.93 580.40
00044652 00000106 571.13 133.67 417.70 633.72 704.02 383.24 889.28 360.91 834.26 485.68 743.78 599.77 912.11 579.83
00044653 00000107 572.87 131.82 417.17 632.87 705.84 385.83 891.91 362.42 837.67 487.74 746.30 600.40 915.22 579.79
00044654 00000108 575.36 131.48 414.69 629.58 707.79 389.99 892.48 365.88 838.93 491.72 748.81 599.20 917.29 578.10
00044655 00000109 578.13 131.29 412.48 624.83 711.78 392.49 895.24 369.72 842.40 493.24 752.76 598.44 919.15 578.57
00044656 DELETE   579.74 129.71 412.04 628.93 714.03 394.47 897.68 373.16 843.95 496.81 753.71 600.16 920.90 581.31
00044657 DELETE   581.63 131.08 412.59 632.77 715.56 395.97 900.46 373.88 847.22 498.68 755.84 604.11 924.26 584.56
00044658 DELETE   584.03 132.93 412.07 631.55 718.75 398.13 902.65 376.16 850.62 501.80 761.14 608.04 926.72 588.60
00044659 00000113 589.61 139.49 408.65 626.84 722.17 398.83 907.21 376.92 854.41 505.27 766.75 610.93 931.27 591.35
00044660 00000114 593.41 133.41 409.48 638.28 720.62 402.22 907.54 376.33 850.25 507.11 772.36 616.49 940.62 593.29
00044661 00000115 596.94 133.74 411.22 649.99 724.19 408.15 912.63 379.44 857.69 516.63 780.33 630.06 943.75 605.70
00044662 DELETE   594.57 139.02 416.68 656.49 726.82 415.49 917.87 385.06 864.07 526.95 786.48 643.60 946.53 617.81
00044663 DELETE   595.88 149.87 416.83 647.75 731.30 421.96 923.20 391.20 870.30 533.65 787.21 646.28 948.56 620.63
00044664 DELETE   599.22 160.89 414.13 639.23 735.36 428.13 924.87 399.71 871.72 535.44 788.01 646.57 949.72 622.51
CROP_BBOX: 257 0 1352 1018
