Video ID: 	e3GqJHTe5K8
H: 	1080
W: 	1920
FPS: 	23.976023976023978

FRAME INDEX X0 Y0 W H [Landmarks (5 Points)]

00002227 00000000 923.39 163.29 461.23 668.55 1000.66 429.25 1214.25 431.12 1066.07 535.16 1008.53 675.94 1167.22 678.62
00002228 00000001 922.25 161.10 461.92 666.99 1000.31 430.00 1213.91 431.83 1066.82 536.79 1008.56 675.53 1167.92 678.08
00002229 00000002 922.17 162.37 461.52 666.58 1000.24 430.96 1213.09 433.12 1066.17 538.53 1008.58 675.65 1167.70 678.44
00002230 00000003 922.13 162.72 461.23 666.60 999.59 430.69 1212.31 433.31 1065.38 538.26 1007.37 675.59 1166.22 678.80
00002231 00000004 926.92 168.35 449.19 664.52 996.17 427.34 1213.83 435.51 1066.96 537.86 1005.04 676.70 1179.25 682.63
00002232 00000005 926.74 171.52 450.32 667.90 997.86 426.84 1213.62 433.83 1068.46 537.39 1007.95 678.56 1176.42 683.86
00002233 00000006 922.57 173.44 460.86 673.18 1004.90 433.02 1214.75 434.94 1066.77 542.13 1011.72 681.33 1170.55 684.39
00002234 00000007 925.77 164.65 457.99 683.29 1005.37 438.57 1208.15 439.13 1062.41 532.91 1011.72 677.79 1164.37 679.61
00002235 00000008 926.92 167.34 457.94 681.55 1006.42 446.29 1210.56 446.70 1062.42 530.13 1013.53 679.71 1165.01 681.50
00002236 00000009 927.17 164.39 458.83 686.19 1008.45 439.82 1210.53 441.26 1064.21 529.70 1014.24 678.10 1164.31 680.68
00002237 00000010 926.52 158.01 461.58 672.39 1003.84 430.56 1209.86 432.00 1063.42 529.65 1010.16 671.83 1164.00 674.16
00002238 00000011 925.40 154.38 461.84 664.17 999.93 419.95 1206.87 424.24 1057.10 525.89 1002.34 658.83 1161.76 663.49
00002239 00000012 925.35 154.16 461.01 670.82 994.88 417.62 1201.20 420.07 1048.44 522.90 997.87 658.67 1165.47 661.61
00002240 00000013 928.09 151.47 460.22 673.11 998.99 403.71 1202.68 411.83 1054.04 512.63 995.04 640.19 1171.25 646.74
00002241 00000014 928.02 153.61 460.66 675.37 1006.55 401.13 1214.79 409.85 1065.73 505.44 997.10 634.31 1186.41 641.05
00002242 00000015 922.97 159.14 456.51 667.30 999.88 403.90 1214.64 412.66 1064.28 513.93 992.36 639.29 1189.97 645.58
00002243 00000016 916.46 161.31 456.07 665.63 991.16 405.62 1205.30 414.38 1054.51 518.58 985.91 645.04 1179.03 651.48
00002244 00000017 913.53 164.37 456.84 667.34 984.72 412.69 1207.45 425.88 1052.48 518.91 985.68 663.57 1171.52 673.57
00002245 00000018 912.01 164.96 455.41 667.75 985.60 417.30 1205.47 428.71 1054.32 522.52 986.95 671.08 1153.88 680.94
00002246 00000019 905.33 169.02 456.43 666.58 977.29 426.15 1194.58 431.30 1045.09 530.10 980.31 680.36 1137.81 686.47
00002247 DELETE   898.28 177.05 450.48 667.58 965.76 435.77 1172.33 439.04 1031.69 543.16 976.92 689.99 1115.60 695.69
00002248 00000021 879.14 183.37 457.66 684.74 951.60 449.38 1152.37 452.55 1005.44 557.45 956.96 707.64 1088.04 713.74
00002249 00000022 862.57 196.02 466.89 688.69 941.38 467.07 1142.03 464.31 994.27 572.86 949.94 725.67 1081.41 725.91
00002250 00000023 858.94 209.28 468.66 672.08 934.10 468.34 1143.46 473.10 994.70 584.98 951.52 730.85 1086.13 736.00
00002251 00000024 859.61 206.31 469.53 686.17 935.24 477.55 1138.96 470.61 993.67 585.88 949.71 734.82 1088.16 731.04
00002252 00000025 864.80 202.28 469.05 689.65 940.76 474.30 1142.19 466.33 998.83 583.71 955.53 731.94 1093.13 727.73
00002253 00000026 881.11 199.95 457.90 689.89 947.23 478.91 1145.05 471.69 1006.57 592.15 965.09 734.93 1105.32 731.26
00002254 DELETE   893.93 211.43 452.80 694.66 955.57 494.28 1153.37 490.20 1013.44 611.46 976.61 745.57 1122.02 744.21
00002255 DELETE   900.42 223.41 449.84 693.65 958.50 501.17 1157.10 499.74 1021.40 633.87 987.69 757.28 1132.32 757.82
00002256 00000029 906.91 231.67 446.46 695.10 960.26 501.59 1164.08 500.25 1028.62 641.67 995.24 765.93 1142.74 766.33
00002257 00000030 906.81 233.46 449.84 694.43 963.73 499.56 1171.02 499.03 1035.70 644.64 998.76 766.26 1149.53 767.17
00002258 00000031 908.94 230.22 451.11 691.41 968.63 496.00 1175.50 494.38 1043.39 642.29 1005.35 762.99 1155.68 763.04
00002259 00000032 912.79 225.40 451.74 691.54 973.54 491.17 1179.09 487.10 1049.05 634.60 1010.32 756.93 1162.76 754.75
00002260 00000033 918.91 222.08 450.70 690.78 977.98 483.75 1182.63 480.14 1052.46 624.96 1013.04 750.64 1165.32 748.71
00002261 00000034 924.05 214.96 451.59 697.91 985.29 478.20 1190.60 473.96 1061.82 615.40 1020.75 747.36 1174.61 744.33
00002262 00000035 923.84 213.85 457.01 677.86 996.86 489.70 1209.24 486.91 1073.94 613.32 1032.52 738.65 1191.77 735.60
00002263 DELETE   920.37 198.53 461.79 677.93 993.15 483.86 1205.34 478.94 1070.04 600.10 1030.14 728.69 1184.22 724.59
00002264 DELETE   908.77 183.68 461.24 682.25 969.71 472.85 1175.18 461.98 1037.89 584.63 1004.14 716.40 1150.66 708.96
00002265 DELETE   889.14 178.11 467.11 669.46 944.99 468.18 1137.58 451.61 1000.49 581.05 986.12 711.25 1115.21 698.88
00002266 00000039 882.05 167.02 462.21 670.71 938.44 458.78 1125.80 443.32 989.61 569.41 973.41 699.30 1105.30 687.51
00002267 00000040 882.09 162.98 466.22 671.62 940.72 460.08 1126.89 437.75 993.43 563.44 979.08 694.65 1111.90 677.12
00002268 00000041 882.72 162.26 469.85 670.40 942.51 462.76 1132.10 432.06 1001.33 560.18 986.53 694.57 1125.91 670.13
00002269 00000042 880.33 164.30 471.06 667.45 938.51 465.34 1127.41 432.52 996.08 559.03 983.03 693.67 1121.67 667.48
00002270 00000043 868.09 172.25 478.73 674.16 924.42 476.82 1097.26 429.76 967.19 563.70 983.33 714.26 1101.00 675.76
00002271 00000044 857.20 177.06 482.19 674.24 910.05 481.67 1090.71 427.82 960.10 565.09 968.29 718.60 1106.68 674.96
00002272 00000045 854.36 174.94 481.32 672.36 908.71 475.55 1085.08 427.23 950.84 560.39 968.54 716.04 1098.38 675.39
00002273 00000046 853.01 174.73 482.23 670.40 909.35 476.47 1088.69 427.08 956.49 560.48 971.09 715.53 1102.25 673.99
00002274 00000047 849.58 175.80 484.93 673.05 907.25 477.66 1090.09 427.26 958.05 561.58 971.03 719.67 1101.80 677.62
00002275 00000048 853.18 174.23 477.86 680.45 910.76 471.91 1092.35 433.21 962.17 567.65 966.83 712.12 1092.04 680.88
00002276 00000049 853.34 174.26 478.04 683.85 911.65 471.57 1093.12 432.82 963.04 567.76 967.41 713.01 1093.50 681.70
00002277 00000050 855.13 172.19 477.36 688.19 913.76 471.20 1096.10 431.92 966.37 567.38 969.16 713.55 1098.50 681.68
00002278 00000051 857.42 171.75 476.90 687.70 916.60 471.58 1100.83 432.28 971.98 569.50 972.09 713.58 1105.87 681.61
00002279 00000052 858.92 173.51 476.85 684.35 919.55 470.78 1104.78 433.99 978.86 571.92 976.22 712.25 1107.52 682.46
00002280 00000053 859.36 174.14 474.72 680.18 920.35 469.76 1106.81 435.58 981.26 571.87 974.75 711.58 1102.96 684.43
00002281 00000054 857.90 170.47 472.59 675.20 917.86 462.52 1103.84 430.98 975.51 560.95 967.59 704.81 1090.04 679.95
00002282 00000055 851.83 163.44 478.95 680.09 914.78 456.66 1102.55 420.44 963.90 538.56 959.24 706.59 1081.29 677.61
00002283 00000056 851.56 166.09 476.02 677.02 913.89 454.15 1103.12 424.28 958.51 537.64 950.00 702.04 1075.05 678.24
00002284 00000057 851.94 168.46 470.45 677.72 913.10 454.56 1101.63 427.12 954.91 536.82 945.73 703.32 1072.30 681.42
00002285 00000058 851.92 169.86 467.55 677.92 912.87 454.44 1102.00 428.06 955.60 537.31 945.22 703.50 1074.25 682.38
00002286 00000059 851.66 170.79 469.59 682.34 914.85 453.88 1106.29 428.01 960.02 540.26 948.50 705.36 1080.76 684.79
00002287 00000060 854.63 173.53 472.58 682.88 916.23 456.28 1110.70 430.80 967.09 551.74 955.63 708.48 1091.82 688.25
00002288 00000061 862.59 166.44 466.75 693.53 923.80 451.01 1120.97 429.86 985.15 556.55 961.61 703.88 1102.96 687.51
00002289 00000062 865.86 172.27 470.81 681.35 928.37 459.53 1124.75 433.33 985.79 557.95 972.08 709.60 1107.82 688.80
00002290 00000063 873.01 172.10 469.98 678.98 933.82 462.00 1129.96 430.75 989.52 553.45 977.33 709.00 1112.42 684.20
00002291 00000064 880.80 170.87 464.78 680.01 939.33 460.14 1134.45 429.43 994.09 553.67 982.33 706.63 1118.67 682.31
00002292 00000065 884.70 167.19 465.13 680.83 943.05 457.31 1136.71 426.72 997.53 551.18 985.29 702.92 1122.16 678.69
00002293 00000066 887.54 165.63 464.78 679.77 945.62 453.57 1138.60 423.67 999.76 548.64 986.60 699.81 1122.99 676.16
00002294 00000067 889.68 165.32 462.30 678.33 947.50 451.82 1140.33 422.57 1002.37 547.87 987.94 698.43 1124.24 675.41
00002295 00000068 891.85 165.08 461.49 677.42 949.22 451.69 1141.36 422.61 1004.03 548.09 989.48 697.28 1125.69 674.39
00002296 00000069 892.84 166.23 461.64 679.47 949.67 452.26 1142.88 423.98 1005.56 551.00 991.13 699.11 1127.60 676.85
00002297 00000070 894.07 168.19 461.14 684.98 950.19 453.87 1145.12 424.27 1007.20 551.92 992.67 701.94 1132.26 678.48
00002298 00000071 896.05 170.30 459.20 686.35 952.37 454.05 1147.95 425.99 1009.62 552.47 993.15 702.40 1134.60 680.17
00002299 00000072 893.88 174.37 458.61 688.06 955.39 455.82 1149.07 428.25 1013.62 548.96 995.44 703.12 1142.14 680.67
00002300 00000073 894.87 174.87 457.29 694.49 956.58 455.02 1149.70 425.90 1013.76 549.43 997.89 706.52 1148.17 682.39
00002301 00000074 891.78 174.92 458.86 696.06 952.37 456.00 1144.35 428.00 1007.28 553.16 993.01 707.52 1141.93 684.67
00002302 00000075 891.06 171.08 456.13 693.48 946.62 457.75 1136.17 434.34 997.02 560.22 982.31 706.62 1125.98 688.47
00002303 00000076 898.39 174.55 452.78 681.85 948.26 456.40 1137.39 439.80 997.88 570.69 983.96 708.13 1113.24 696.10
00002304 00000077 905.42 179.01 456.57 682.29 959.42 458.34 1147.67 443.08 1012.69 575.31 997.73 711.54 1123.11 700.25
00002305 00000078 910.28 181.31 458.57 683.86 965.67 458.35 1159.09 446.52 1025.02 579.31 1005.84 713.54 1134.13 705.07
00002306 00000079 908.10 183.43 458.45 676.08 968.03 462.29 1167.15 445.16 1026.73 578.48 1007.23 723.47 1145.42 709.46
00002307 00000080 910.58 183.00 457.96 679.76 962.31 461.04 1155.41 447.60 1019.72 582.01 1002.68 717.17 1130.40 707.35
00002308 00000081 902.50 183.66 460.85 678.20 956.33 464.46 1147.96 448.68 1011.00 586.72 997.20 720.32 1124.35 708.36
00002309 00000082 898.10 183.63 460.12 681.44 953.87 474.67 1140.61 451.83 1007.52 582.85 992.78 722.72 1125.54 705.15
00002310 00000083 896.56 186.42 461.50 682.55 953.58 477.44 1138.76 454.67 1006.56 586.39 993.13 725.12 1124.57 707.52
00002311 00000084 894.12 188.77 464.66 685.56 952.39 480.15 1138.43 456.43 1005.93 590.28 994.64 728.97 1125.49 710.55
00002312 00000085 891.62 190.16 465.45 688.69 951.82 481.25 1137.06 456.72 1003.67 590.99 995.92 731.84 1124.92 712.73
00002313 00000086 888.89 190.37 466.75 692.59 949.78 481.61 1135.61 456.56 1001.34 591.84 994.87 734.25 1123.83 714.78
00002314 00000087 884.75 188.59 469.26 696.71 942.48 484.72 1126.34 457.37 989.33 594.73 986.38 739.03 1114.57 718.00
00002315 00000088 868.92 193.13 477.26 703.05 928.97 488.23 1111.75 457.76 975.44 602.09 978.41 752.83 1102.97 729.02
00002316 00000089 859.05 192.15 476.87 705.27 916.50 489.20 1098.82 462.55 958.73 609.29 959.26 754.12 1094.04 733.21
00002317 00000090 857.99 197.58 477.70 697.61 913.86 492.16 1094.24 465.47 951.71 610.47 955.47 752.29 1090.52 731.22
00002318 00000091 859.14 199.05 477.78 691.92 916.40 492.01 1096.91 467.09 957.96 611.54 960.63 747.26 1096.40 727.56
00002319 00000092 862.19 197.38 473.99 689.19 917.60 490.79 1098.36 464.82 960.50 607.75 960.87 745.91 1096.46 725.41
00002320 00000093 862.44 195.66 475.64 692.56 919.86 488.34 1098.69 461.52 960.65 602.42 963.47 741.68 1097.00 720.54
00002321 00000094 864.69 193.50 475.01 696.71 921.77 487.85 1098.48 457.98 960.59 600.24 966.77 742.97 1099.95 719.23
00002322 00000095 865.58 189.98 475.54 693.04 922.78 487.58 1101.33 456.86 964.92 599.63 968.10 738.40 1103.20 714.01
00002323 00000096 865.90 186.87 476.48 691.37 923.42 486.14 1103.18 455.65 967.44 597.77 967.44 733.72 1103.48 709.53
00002324 00000097 866.11 188.93 477.03 689.37 921.57 478.56 1105.06 456.70 969.65 600.97 976.85 732.63 1104.12 714.61
00002325 00000098 870.93 183.43 474.24 691.35 927.26 480.54 1104.29 451.63 970.64 593.07 973.56 727.09 1105.15 704.13
00002326 00000099 876.14 181.81 470.11 691.50 928.60 477.80 1104.44 449.50 967.64 587.99 970.74 724.68 1103.11 702.47
00002327 00000100 877.99 176.25 468.35 695.28 928.97 473.88 1105.52 447.05 965.90 583.75 968.11 721.38 1102.23 700.53
00002328 00000101 878.51 175.42 468.66 694.40 930.62 469.18 1106.10 442.60 966.38 578.56 970.36 717.23 1103.24 696.51
00002329 00000102 879.82 172.40 467.37 694.53 930.93 467.65 1106.78 439.50 967.87 574.38 971.34 715.85 1103.09 693.88
00002330 00000103 882.74 168.96 465.87 696.48 929.90 462.25 1104.47 440.17 963.23 572.37 972.93 713.76 1095.96 696.68
00002331 00000104 881.65 166.83 466.27 696.55 931.94 461.89 1108.43 434.44 967.08 567.88 970.30 711.04 1102.50 689.75
00002332 00000105 882.95 163.54 465.61 704.15 934.30 454.79 1109.88 428.70 966.73 558.67 971.13 706.64 1102.99 686.39
00002333 00000106 889.61 160.68 463.69 709.48 940.11 448.05 1122.52 424.74 975.68 548.10 974.68 706.02 1113.73 688.01
00002334 00000107 902.60 160.50 457.08 688.89 955.58 436.60 1146.23 419.97 999.27 533.61 982.88 687.60 1129.09 675.17
00002335 DELETE   915.10 161.05 460.85 662.82 981.28 426.24 1190.04 413.29 1037.81 531.09 998.45 676.93 1149.02 668.82
00002336 DELETE   921.79 149.44 469.35 671.90 1002.78 417.74 1212.03 410.22 1069.22 515.07 1018.13 664.03 1168.83 658.96
00002337 00000110 931.53 147.55 465.01 668.73 1015.92 413.90 1226.73 410.32 1083.03 511.13 1027.21 659.43 1177.50 657.96
00002338 00000111 936.57 147.53 461.48 674.31 1017.37 411.51 1231.99 413.99 1086.25 512.94 1022.84 659.28 1178.71 663.09
00002339 00000112 939.84 148.90 458.82 678.30 1020.86 413.74 1231.53 420.50 1085.60 518.74 1022.55 661.67 1176.94 669.12
00002340 00000113 944.20 155.35 455.94 683.68 1022.72 419.51 1233.86 428.25 1088.06 529.65 1024.71 671.32 1178.99 680.66
00002341 00000114 948.72 163.83 452.14 687.55 1026.78 425.89 1238.53 439.07 1098.30 546.14 1033.24 681.46 1184.68 694.48
00002342 00000115 949.23 176.58 448.71 687.19 1030.77 433.08 1240.51 444.78 1106.80 557.76 1037.90 693.94 1192.19 705.72
00002343 00000116 945.19 181.53 451.98 677.44 1027.60 436.60 1238.44 448.62 1104.78 561.09 1033.46 694.72 1190.95 706.55
00002344 00000117 941.46 181.34 455.94 674.44 1020.42 436.03 1236.30 449.87 1094.60 558.52 1028.33 690.96 1183.15 704.50
00002345 00000118 940.35 177.65 456.34 667.31 1019.49 434.53 1235.58 449.95 1095.46 558.09 1025.53 685.56 1183.29 700.26
00002346 00000119 939.70 177.19 456.98 669.25 1018.91 435.57 1234.32 450.49 1093.84 559.07 1024.90 686.10 1181.12 700.51
00002347 00000120 939.99 179.59 458.60 674.05 1020.24 441.59 1233.89 454.58 1092.55 564.26 1030.24 692.20 1182.42 705.02
00002348 00000121 941.69 186.96 459.06 666.07 1018.05 447.69 1234.65 460.10 1092.93 572.81 1029.98 696.39 1184.43 708.70
00002349 00000122 940.38 192.54 462.29 662.93 1016.92 454.03 1232.74 466.61 1092.76 583.35 1032.38 704.63 1183.83 716.80
00002350 00000123 941.57 197.58 460.42 659.80 1015.87 457.77 1232.54 471.69 1092.85 590.00 1031.68 708.92 1184.64 722.09
00002351 00000124 941.97 202.06 460.54 667.69 1018.24 459.32 1234.62 473.06 1095.05 591.85 1034.79 715.11 1187.50 727.82
00002352 00000125 947.76 200.92 457.46 683.71 1023.33 458.07 1241.02 471.20 1103.29 592.75 1042.53 721.80 1191.62 734.22
00002353 00000126 955.73 198.83 452.76 678.07 1034.23 462.19 1253.25 473.90 1121.37 593.02 1053.51 719.30 1205.90 730.65
00002354 00000127 959.67 198.41 450.84 670.77 1038.70 463.11 1258.93 473.08 1130.04 591.53 1059.23 717.08 1214.54 726.77
00002355 00000128 956.97 196.05 451.93 674.00 1036.37 462.57 1255.81 472.17 1126.42 591.79 1057.22 716.85 1211.94 726.25
00002356 00000129 952.16 196.22 453.32 672.62 1031.05 463.27 1250.18 471.91 1120.00 591.63 1052.21 716.82 1205.08 725.57
00002357 00000130 950.13 196.38 454.50 668.82 1028.00 464.11 1248.10 471.54 1117.25 592.04 1050.48 715.93 1205.23 723.59
00002358 00000131 949.90 196.48 455.18 664.65 1027.66 464.43 1247.77 471.41 1116.90 591.83 1050.39 713.41 1207.29 720.64
00002359 00000132 950.47 194.04 455.01 664.46 1027.16 463.88 1247.54 470.50 1116.75 591.49 1050.16 711.78 1208.55 718.69
00002360 00000133 950.55 192.99 454.81 663.12 1026.64 463.38 1247.05 470.12 1115.95 590.62 1049.36 710.99 1207.03 718.05
00002361 00000134 951.30 192.57 454.15 662.32 1026.43 462.83 1246.12 469.64 1114.97 589.83 1048.63 710.76 1204.51 717.95
00002362 00000135 951.72 193.06 454.66 661.08 1028.01 462.39 1247.83 469.90 1117.04 588.90 1049.49 710.10 1205.44 717.87
00002363 00000136 953.34 193.44 453.26 664.71 1030.60 462.85 1250.47 470.00 1120.46 589.40 1052.96 711.73 1208.99 719.11
00002364 00000137 956.55 195.67 451.60 665.20 1034.43 462.92 1254.16 470.17 1125.24 589.84 1056.63 713.16 1212.99 720.60
00002365 00000138 961.68 195.87 449.14 669.39 1040.86 463.04 1258.67 470.59 1131.39 589.31 1061.98 714.46 1215.68 722.10
00002366 00000139 959.34 202.05 447.16 661.25 1051.32 462.31 1270.60 467.72 1144.84 583.22 1060.73 713.66 1227.80 718.43
00002367 00000140 963.84 202.77 446.67 668.69 1060.50 459.22 1279.78 469.01 1157.87 585.02 1068.63 713.47 1236.79 721.50
00002368 00000141 967.02 202.62 448.05 678.57 1069.96 458.66 1288.92 465.54 1175.77 586.86 1085.33 721.01 1249.51 726.43
00002369 00000142 966.65 200.62 449.24 672.21 1071.31 457.96 1294.49 464.42 1181.62 585.68 1089.04 717.61 1259.33 722.07
00002370 00000143 966.23 198.68 447.27 667.87 1067.82 458.59 1292.59 467.32 1176.29 587.95 1081.27 715.10 1257.36 721.18
00002371 00000144 965.37 203.12 445.67 669.09 1065.11 460.18 1287.57 468.16 1170.21 586.72 1077.51 714.73 1250.84 720.57
00002372 00000145 963.93 203.43 445.15 674.06 1063.90 461.53 1281.39 468.47 1166.17 586.33 1075.57 716.18 1243.42 721.72
00002373 00000146 960.29 202.95 445.91 672.37 1059.02 460.61 1277.12 467.38 1159.37 586.55 1069.87 714.98 1237.81 720.68
00002374 00000147 955.62 200.19 446.56 670.26 1053.87 460.24 1271.45 464.97 1153.39 584.14 1064.63 712.71 1232.78 716.99
00002375 00000148 950.05 196.66 446.99 669.84 1049.14 459.92 1265.31 463.70 1147.93 581.35 1061.64 711.26 1226.10 714.99
00002376 00000149 942.48 194.31 451.39 683.23 1042.06 459.79 1257.38 460.60 1141.81 582.29 1056.85 713.45 1221.40 714.94
00002377 00000150 938.48 192.11 450.64 693.59 1036.49 461.43 1247.48 459.04 1134.61 576.82 1053.00 714.33 1215.00 713.41
00002378 00000151 931.84 191.82 450.99 686.12 1031.44 465.56 1238.41 464.96 1122.10 571.17 1044.43 708.70 1205.34 708.84
00002379 DELETE   924.04 194.77 449.09 672.98 1014.31 460.93 1227.73 458.89 1100.11 562.70 1032.75 708.08 1199.93 706.80
00002380 DELETE   913.26 189.64 452.58 671.12 996.34 458.36 1209.60 459.13 1074.99 562.55 1012.27 702.03 1181.12 702.38
00002381 00000154 906.88 182.80 454.67 676.49 980.61 456.32 1196.38 456.10 1055.73 563.37 993.78 702.81 1164.90 701.86
00002382 00000155 900.13 182.82 455.54 680.16 972.19 454.94 1188.28 450.25 1050.42 565.29 990.34 706.99 1159.45 702.82
00002383 00000156 897.41 184.88 454.76 686.04 969.95 452.85 1180.50 442.50 1046.65 560.24 993.92 710.22 1153.17 702.12
00002384 00000157 893.86 181.23 455.96 688.08 965.21 451.88 1171.59 437.14 1038.28 557.00 994.92 710.33 1150.50 698.43
00002385 00000158 895.63 182.01 451.84 679.14 959.83 457.52 1159.15 439.16 1025.53 559.50 997.16 707.14 1135.35 693.33
00002386 00000159 888.82 180.76 456.82 677.32 952.69 459.95 1152.23 436.47 1017.62 560.14 993.51 708.08 1132.11 689.94
00002387 00000160 885.45 178.21 459.39 679.03 947.71 460.55 1147.27 435.18 1012.25 562.38 990.36 708.19 1129.79 688.28
00002388 00000161 884.42 178.40 460.18 677.25 947.24 461.46 1146.32 433.84 1011.92 561.40 991.14 707.74 1130.92 685.82
00002389 00000162 884.31 177.25 460.44 677.97 946.65 461.69 1146.01 433.11 1011.18 560.91 990.84 707.75 1131.16 685.02
00002390 00000163 884.22 176.06 460.89 677.95 946.77 460.64 1145.87 431.56 1011.32 558.32 990.84 706.66 1130.64 683.54
00002391 00000164 882.48 173.90 462.91 678.95 944.76 459.99 1144.58 430.85 1008.84 556.79 988.63 704.81 1130.96 681.51
00002392 00000165 882.14 172.04 462.65 680.52 942.89 458.69 1141.93 428.69 1006.01 554.88 987.48 704.70 1128.48 680.77
