Video ID: 	77_SYOT-QtM
H: 	1080
W: 	1920
FPS: 	30.0

FRAME INDEX X0 Y0 W H [Landmarks (5 Points)]

00001667 00000000 755.21 201.26 434.07 658.82 871.17 406.45 1070.04 408.64 974.47 530.51 872.66 639.71 1068.00 639.13
00001668 DELETE   754.93 200.72 433.00 659.75 868.92 404.99 1067.82 407.56 971.83 529.47 870.81 638.68 1065.61 638.45
00001669 DELETE   753.50 200.69 433.76 658.43 867.81 404.32 1066.27 406.89 971.22 529.09 870.32 637.80 1064.26 637.64
00001670 00000003 753.35 200.36 433.33 658.27 867.48 404.03 1066.28 406.82 971.12 528.63 869.85 636.68 1064.18 636.70
00001671 00000004 753.68 201.04 433.85 657.95 869.02 403.82 1068.23 405.70 972.84 528.68 871.32 636.48 1066.76 635.67
00001672 00000005 754.07 201.67 435.42 657.48 871.23 404.05 1071.42 405.64 976.15 530.07 873.45 636.98 1070.99 635.92
00001673 00000006 753.91 202.45 436.36 656.71 871.79 403.90 1072.29 404.74 977.56 529.59 875.24 636.92 1073.06 635.21
00001674 00000007 752.79 199.90 436.50 655.65 871.21 400.45 1071.67 402.30 977.14 527.89 875.72 634.90 1070.45 633.92
00001675 00000008 752.45 196.18 433.32 655.33 869.44 398.39 1070.57 400.44 975.99 525.83 876.17 635.03 1065.57 634.16
00001676 DELETE   752.19 194.85 431.99 652.42 868.28 398.13 1068.92 401.82 973.61 525.86 875.81 635.82 1060.51 636.57
00001677 00000010 750.75 193.48 431.56 649.81 863.02 397.82 1068.60 401.17 970.00 525.25 873.64 640.01 1053.24 640.84
00001678 DELETE   749.03 194.14 431.04 646.60 861.13 396.99 1065.87 405.12 964.89 528.12 867.90 639.88 1042.42 645.25
00001679 DELETE   748.38 193.53 430.02 649.72 859.94 396.93 1063.30 406.04 960.98 530.63 864.77 641.46 1037.77 647.77
00001680 00000013 749.26 192.77 429.05 652.17 861.83 396.12 1064.70 404.01 964.82 530.49 868.26 643.82 1038.83 649.04
00001681 00000014 752.55 193.19 429.20 653.62 863.42 398.96 1070.07 401.99 972.86 529.40 875.39 648.49 1050.84 649.15
00001682 00000015 756.08 194.94 431.76 650.82 870.43 401.66 1078.83 400.51 985.46 529.46 886.55 649.76 1068.07 646.09
00001683 00000016 759.24 195.54 434.72 644.25 879.08 402.87 1088.48 398.29 997.42 528.90 898.50 646.18 1080.00 639.46
00001684 00000017 763.13 192.39 432.40 645.81 884.00 401.93 1094.68 396.65 1004.56 525.61 904.65 646.34 1085.49 639.00
00001685 00000018 760.29 194.77 434.81 656.03 886.57 399.92 1092.20 394.96 1004.21 526.06 908.93 654.94 1080.51 647.28
00001686 00000019 757.38 196.31 430.42 672.68 883.04 400.97 1084.88 398.80 997.45 531.69 896.02 661.11 1074.92 656.15
00001687 00000020 758.44 212.42 431.44 666.28 882.92 409.51 1080.84 405.99 987.06 534.50 888.49 657.78 1069.27 652.64
00001688 00000021 753.29 208.63 434.33 667.12 872.71 411.42 1069.34 407.34 976.08 535.73 878.31 657.37 1060.33 652.12
00001689 00000022 750.23 196.33 431.75 660.48 859.80 408.50 1067.32 412.12 968.42 543.42 868.58 660.46 1049.29 661.74
00001690 00000023 749.39 200.35 429.75 656.28 855.09 409.68 1064.53 413.76 964.08 545.73 864.62 663.30 1048.77 665.16
00001691 00000024 745.12 202.30 436.13 669.25 862.04 414.57 1066.50 414.13 971.55 544.88 870.51 664.63 1052.14 663.02
00001692 00000025 745.19 209.40 437.22 664.06 864.87 417.48 1067.13 415.47 974.64 547.01 872.47 664.93 1053.10 662.17
00001693 00000026 743.28 213.64 440.04 660.34 864.55 421.27 1063.75 415.46 971.67 549.27 874.23 661.70 1056.55 655.23
00001694 00000027 740.95 214.71 440.12 660.32 861.85 422.77 1060.90 416.70 968.02 550.15 871.99 661.85 1055.25 654.98
00001695 00000028 737.56 216.66 438.96 659.89 857.48 422.96 1055.60 416.30 962.64 549.73 868.45 662.66 1049.81 655.48
00001696 00000029 734.86 213.49 437.46 665.01 855.68 423.91 1051.40 417.87 958.19 550.71 865.58 661.95 1044.55 655.41
00001697 00000030 735.14 214.49 434.98 668.89 856.54 424.07 1050.62 420.06 956.04 550.88 865.83 664.24 1039.58 659.77
00001698 00000031 737.03 215.46 430.24 676.35 855.85 421.83 1049.63 419.41 955.80 548.91 868.15 670.99 1036.15 668.34
00001699 00000032 738.45 214.33 428.66 684.72 856.13 419.21 1050.09 417.36 955.74 546.56 872.10 675.83 1035.91 673.80
00001700 00000033 739.66 216.81 428.53 676.09 857.59 420.04 1051.57 417.40 957.80 546.40 877.98 676.48 1035.82 673.90
00001701 00000034 739.17 215.13 429.36 673.49 857.99 420.13 1052.39 417.82 958.41 546.39 880.70 676.72 1033.71 674.61
00001702 00000035 738.16 208.21 429.87 674.75 854.90 418.65 1051.49 417.07 955.48 546.25 874.48 674.12 1030.91 672.59
00001703 00000036 736.20 203.19 434.72 668.39 855.14 417.58 1054.49 416.94 959.62 547.38 868.90 666.80 1034.42 665.78
00001704 00000037 735.34 197.66 436.75 667.59 849.66 416.06 1052.70 413.19 955.07 545.26 867.31 663.15 1036.13 659.52
00001705 00000038 735.75 197.13 437.29 667.27 851.94 416.69 1054.12 414.77 957.44 547.29 867.90 661.96 1036.15 659.31
00001706 00000039 739.83 206.87 437.42 659.48 857.69 418.26 1058.76 418.72 962.48 549.47 872.72 664.25 1038.83 663.78
00001707 00000040 742.58 207.64 438.80 660.36 864.00 419.35 1064.82 417.64 971.97 548.15 877.93 664.31 1047.38 661.78
00001708 00000041 745.23 207.98 438.22 659.31 865.75 420.33 1066.92 415.36 975.11 547.94 882.05 663.34 1053.61 657.64
00001709 00000042 747.21 209.53 437.39 660.60 868.00 420.83 1067.10 414.90 976.03 547.68 882.78 661.69 1058.56 654.67
00001710 00000043 746.30 215.19 437.46 658.49 867.59 420.89 1065.86 415.67 974.48 546.39 878.53 660.91 1058.17 654.67
00001711 00000044 744.69 214.39 436.93 664.87 865.92 419.07 1062.53 415.01 969.12 544.18 875.39 661.67 1051.88 657.11
00001712 00000045 746.10 218.24 432.54 666.28 865.35 417.33 1060.59 415.96 967.18 543.81 872.55 663.95 1045.89 662.18
00001713 00000046 745.22 215.83 431.99 663.35 865.05 418.23 1059.48 414.90 968.63 541.62 873.90 662.24 1046.17 658.71
00001714 00000047 743.34 210.61 436.68 656.88 863.00 418.37 1061.60 412.98 969.78 539.97 873.52 658.06 1053.44 651.86
00001715 00000048 743.65 204.96 437.15 658.10 863.12 418.14 1063.37 412.76 972.08 537.30 872.87 655.60 1055.13 649.19
00001716 00000049 743.61 203.30 436.27 658.13 862.41 416.96 1062.56 411.14 971.25 536.08 874.07 655.54 1053.72 648.81
00001717 00000050 744.54 199.97 429.77 650.14 857.58 413.83 1060.24 414.61 968.63 539.49 868.41 654.81 1048.91 654.14
00001718 00000051 741.69 204.10 436.85 658.87 860.12 419.20 1058.16 411.87 967.20 536.57 871.74 656.30 1050.94 648.52
00001719 00000052 740.07 210.17 433.96 657.27 859.78 418.03 1054.62 413.11 961.94 538.87 868.10 653.89 1047.06 648.25
00001720 00000053 739.68 210.02 433.76 659.98 859.52 416.47 1054.37 412.64 960.60 539.97 865.55 653.32 1045.67 648.58
00001721 00000054 740.94 210.82 431.27 663.81 860.90 416.09 1057.23 412.88 963.34 542.20 866.94 657.03 1046.38 653.06
00001722 00000055 740.90 210.95 431.88 663.25 861.71 416.57 1057.64 413.21 962.97 542.56 868.25 656.37 1047.69 652.10
00001723 00000056 742.44 210.10 431.19 664.55 862.77 416.60 1057.83 413.77 963.77 542.55 868.31 655.13 1049.47 651.15
00001724 00000057 743.39 209.00 433.97 663.71 863.95 416.86 1058.84 412.86 964.71 541.12 870.22 653.80 1052.13 648.73
00001725 00000058 743.73 209.11 434.98 662.60 864.80 415.97 1059.59 413.22 965.75 540.57 869.91 652.18 1052.94 648.15
00001726 00000059 743.01 208.03 436.68 659.26 864.20 415.29 1059.03 411.89 965.62 539.37 870.28 650.99 1051.87 646.43
00001727 00000060 741.71 207.28 437.43 657.16 862.88 414.49 1058.86 411.49 965.34 538.24 869.28 649.30 1051.16 645.16
00001728 00000061 741.92 205.57 437.81 655.72 862.11 415.59 1058.67 411.89 966.18 537.35 869.34 648.97 1051.59 644.14
00001729 00000062 745.36 199.02 431.12 646.21 860.22 413.03 1059.36 416.19 968.08 537.79 867.56 645.80 1049.72 647.01
00001730 00000063 746.19 198.88 431.44 645.76 860.63 413.90 1060.93 416.37 969.33 536.91 869.24 647.12 1051.70 647.75
00001731 00000064 747.28 198.93 431.87 645.78 860.83 414.08 1062.92 415.66 970.27 535.89 870.76 648.81 1053.45 648.73
00001732 00000065 747.53 197.12 431.69 647.55 860.71 413.82 1064.09 415.34 970.88 535.95 871.47 650.29 1052.41 650.17
00001733 00000066 746.66 195.95 431.64 649.38 859.30 413.46 1063.75 414.70 970.45 536.91 871.64 652.95 1049.64 652.75
00001734 00000067 746.46 195.60 430.87 648.91 858.00 413.32 1063.26 414.10 969.76 536.93 871.37 654.28 1048.42 653.75
00001735 00000068 746.42 194.74 430.72 649.37 857.62 413.02 1064.20 414.45 969.92 537.87 870.65 655.51 1047.55 655.60
00001736 00000069 747.73 194.29 430.39 649.70 858.31 413.48 1065.46 414.45 971.09 538.54 873.33 658.48 1047.95 658.22
00001737 00000070 750.09 194.57 428.02 647.64 860.01 414.09 1067.90 414.36 973.49 538.33 876.75 660.90 1048.93 660.07
00001738 00000071 751.91 193.16 427.35 649.21 861.75 413.11 1070.23 413.00 975.58 537.09 878.83 660.65 1053.03 659.15
00001739 00000072 753.49 192.75 425.95 649.70 861.96 413.22 1071.03 412.15 976.44 537.96 880.79 662.86 1054.16 660.56
00001740 00000073 753.42 193.85 426.70 649.26 861.79 412.41 1071.18 412.34 975.20 538.30 880.03 662.40 1053.48 660.96
00001741 00000074 753.55 193.40 425.96 649.44 861.13 412.62 1071.04 413.25 973.91 538.40 878.19 663.11 1051.83 662.36
00001742 00000075 753.65 194.20 425.72 647.96 860.70 412.82 1070.93 413.61 973.47 539.23 878.00 663.25 1052.34 662.60
00001743 00000076 753.49 195.56 425.99 646.33 860.02 413.12 1070.43 413.49 972.76 539.73 878.41 663.79 1052.17 662.78
00001744 00000077 754.49 194.59 424.84 646.95 860.96 413.28 1070.57 413.14 973.56 540.28 880.72 664.02 1052.62 662.56
00001745 00000078 754.69 194.30 424.80 647.57 861.15 413.79 1071.13 413.20 974.77 541.91 882.27 665.20 1054.24 663.30
00001746 00000079 754.57 195.70 424.47 646.24 860.58 414.18 1070.44 413.89 973.84 542.83 881.69 665.59 1053.25 663.95
00001747 00000080 753.69 197.01 424.96 644.19 860.44 413.89 1069.44 414.31 973.51 542.54 880.78 664.40 1051.72 663.42
00001748 00000081 752.08 196.88 426.51 644.64 860.47 414.33 1068.00 416.43 972.54 541.66 877.98 661.97 1049.10 662.55
00001749 00000082 750.68 198.62 427.49 643.22 860.42 414.69 1065.35 417.76 970.53 541.88 876.32 660.14 1044.82 661.66
00001750 00000083 749.53 200.20 428.01 643.02 860.57 414.56 1062.42 419.27 967.90 541.97 873.27 656.72 1040.91 659.57
00001751 00000084 746.69 204.88 435.87 650.00 861.31 418.67 1059.02 418.45 962.19 542.56 875.56 655.24 1045.27 653.46
00001752 00000085 747.45 213.01 434.64 645.58 861.44 418.99 1056.96 419.08 959.95 543.51 872.47 652.93 1047.87 651.21
00001753 00000086 749.74 218.67 433.14 642.51 864.48 419.69 1060.41 418.66 963.67 541.88 872.79 650.30 1055.67 647.17
00001754 00000087 754.09 218.06 431.42 650.52 870.25 417.34 1068.18 417.13 972.59 539.98 874.74 649.48 1065.83 646.79
00001755 00000088 756.70 220.22 428.97 657.62 875.37 417.86 1072.12 415.35 977.93 541.67 877.35 651.51 1070.78 646.99
00001756 00000089 756.09 226.41 429.86 659.07 875.08 419.74 1071.64 416.53 977.87 544.54 875.89 652.68 1072.60 647.70
00001757 00000090 755.60 227.63 429.37 657.79 871.47 421.11 1067.95 418.42 972.52 546.01 870.68 650.99 1071.08 646.33
00001758 00000091 747.09 226.46 435.73 661.23 864.89 421.92 1060.92 420.05 964.13 548.35 863.44 650.52 1061.97 646.93
00001759 00000092 744.45 226.59 434.08 663.59 859.51 422.80 1055.56 424.01 955.49 552.53 856.09 650.26 1053.84 649.21
00001760 00000093 741.62 226.72 436.76 669.46 856.64 422.05 1053.80 424.56 950.96 555.19 852.46 651.15 1053.11 651.00
00001761 00000094 743.17 228.00 435.39 664.93 858.29 424.30 1055.43 425.16 954.16 554.31 853.99 651.51 1055.22 650.11
00001762 00000095 744.29 231.66 434.66 657.88 860.31 425.12 1058.99 424.22 960.79 556.09 857.63 650.89 1060.73 648.10
00001763 00000096 748.67 231.72 432.31 662.53 865.35 425.39 1062.72 423.97 966.65 556.55 859.99 652.69 1064.99 649.55
00001764 00000097 750.10 232.41 430.64 672.49 866.31 424.21 1060.77 422.50 966.35 556.27 858.46 656.40 1063.79 652.97
00001765 00000098 746.73 231.86 431.51 672.79 864.43 425.33 1056.96 423.16 963.20 554.89 855.99 657.51 1056.89 654.03
00001766 00000099 742.74 232.15 433.76 670.07 859.78 421.36 1054.23 421.07 956.14 551.51 852.30 655.05 1051.30 653.04
00001767 00000100 741.32 230.87 435.34 661.08 855.50 419.50 1054.20 420.40 951.01 550.28 851.00 649.85 1052.35 648.34
00001768 00000101 740.65 228.61 437.48 653.62 855.43 418.87 1054.69 419.96 951.81 547.53 853.17 646.82 1054.13 645.27
00001769 00000102 742.70 228.47 437.94 645.13 861.03 419.15 1059.50 420.11 958.28 545.75 859.17 647.19 1053.62 646.00
00001770 00000103 746.66 224.00 435.77 647.49 867.12 422.83 1065.18 420.39 971.53 548.74 869.30 654.07 1059.25 650.35
00001771 00000104 748.70 222.28 434.06 649.05 868.49 424.44 1068.80 420.47 976.94 549.22 878.94 660.26 1060.15 654.92
00001772 00000105 747.67 220.11 432.78 657.10 866.96 424.69 1067.78 420.99 974.77 548.43 880.30 667.52 1054.88 662.93
00001773 00000106 749.26 220.59 430.21 666.12 863.31 424.35 1062.85 421.63 965.62 546.71 879.84 675.45 1045.68 672.41
00001774 00000107 747.03 220.05 431.36 672.94 861.97 421.81 1061.08 422.08 962.93 544.14 875.28 674.58 1043.00 674.26
00001775 00000108 746.00 219.26 432.18 670.71 861.05 420.59 1059.59 420.73 961.45 542.38 873.69 671.78 1042.09 671.25
00001776 00000109 748.23 218.25 431.64 671.32 862.70 418.83 1061.71 417.71 965.47 538.87 874.62 670.50 1046.64 668.69
00001777 00000110 751.20 216.28 430.26 670.83 865.82 417.62 1066.16 415.72 972.17 538.81 877.97 671.32 1050.95 668.69
00001778 00000111 752.02 206.83 432.01 669.33 867.57 417.81 1070.63 412.65 981.59 541.72 880.85 671.07 1059.01 665.24
00001779 00000112 752.70 200.16 428.85 658.69 856.06 414.59 1072.47 412.54 974.64 551.89 878.52 677.14 1061.36 673.42
00001780 00000113 752.78 199.34 427.11 656.87 854.32 414.51 1072.49 413.72 972.49 553.35 876.11 678.43 1058.04 675.97
00001781 00000114 750.61 200.77 431.81 671.98 862.14 416.24 1071.27 413.91 975.69 545.32 877.66 674.83 1055.84 671.48
00001782 00000115 749.11 202.27 433.19 674.63 862.24 415.86 1069.10 414.88 973.95 543.40 873.81 672.11 1052.75 670.21
00001783 00000116 748.20 209.20 433.51 674.32 865.84 418.60 1065.38 415.07 972.56 542.17 876.67 670.21 1051.14 666.43
00001784 00000117 749.29 210.48 435.87 670.60 868.69 417.87 1065.91 415.04 972.15 541.32 878.24 663.35 1054.80 659.78
00001785 00000118 750.84 210.39 436.54 670.43 870.36 417.22 1066.33 412.53 973.90 539.31 878.76 660.61 1057.87 655.15
00001786 00000119 751.72 210.27 436.92 669.27 871.39 415.53 1067.04 411.74 973.69 535.74 876.85 656.53 1059.15 651.70
00001787 00000120 751.45 208.13 437.17 668.92 870.02 413.18 1066.84 409.69 972.07 532.78 874.04 652.76 1059.76 648.04
00001788 00000121 751.87 206.27 437.66 669.97 870.63 412.28 1068.00 409.98 972.66 531.81 873.04 650.59 1060.77 646.79
00001789 00000122 752.66 206.99 436.67 669.46 870.52 412.75 1067.80 410.16 972.25 531.36 872.64 650.40 1061.19 646.27
00001790 00000123 752.62 207.91 435.57 670.53 869.05 412.75 1067.28 409.97 971.52 531.31 870.66 650.69 1061.06 646.43
00001791 00000124 751.50 210.00 435.32 669.46 868.19 413.11 1066.24 409.74 970.33 531.23 870.14 651.19 1060.00 646.53
00001792 00000125 751.88 211.67 433.14 670.04 867.28 413.36 1065.19 410.22 969.25 531.34 869.37 652.15 1058.80 647.79
00001793 00000126 750.86 213.47 432.34 667.12 867.26 413.92 1064.57 411.56 969.56 532.04 869.32 652.72 1057.28 648.92
00001794 00000127 751.45 216.96 429.06 665.87 866.05 413.80 1063.53 412.05 969.09 532.36 867.41 653.96 1055.87 650.90
00001795 00000128 750.44 218.09 428.81 667.78 864.57 413.82 1063.54 412.16 967.26 533.98 865.46 655.36 1054.98 652.45
00001796 00000129 750.79 219.48 427.76 671.11 864.23 414.15 1062.63 412.58 967.14 535.15 864.04 656.29 1054.93 653.50
00001797 00000130 749.63 218.02 427.64 672.64 864.34 417.56 1060.77 415.85 966.06 536.63 863.35 655.56 1054.76 652.69
00001798 00000131 749.93 221.44 426.79 668.00 866.33 420.08 1062.59 419.38 966.86 537.82 864.01 654.96 1055.41 652.96
00001799 00000132 750.86 219.54 427.05 668.56 866.61 418.97 1063.44 416.20 969.09 537.46 866.01 655.80 1057.15 651.88
00001800 00000133 752.07 219.01 426.95 667.95 866.87 416.92 1063.67 414.73 970.11 536.48 866.47 655.02 1057.90 651.54
00001801 00000134 752.15 218.04 428.14 666.91 866.95 416.58 1064.19 414.16 970.43 536.23 866.66 654.15 1058.21 650.49
00001802 00000135 752.51 218.39 428.62 667.51 866.84 416.45 1064.55 413.95 970.19 536.01 866.67 654.31 1058.59 650.61
00001803 00000136 751.68 217.02 429.99 666.02 867.55 416.44 1065.32 414.03 971.14 536.41 867.85 653.65 1059.21 649.98
00001804 00000137 750.86 215.26 434.26 663.80 868.05 416.29 1067.35 414.71 971.57 536.57 869.05 651.18 1062.14 647.72
00001805 00000138 750.76 214.04 436.07 664.42 868.15 415.65 1067.78 414.77 972.71 534.84 866.53 648.56 1066.58 645.38
00001806 00000139 749.51 214.89 436.85 662.41 867.80 416.58 1066.98 415.36 971.88 535.64 866.65 648.65 1065.71 645.19
00001807 00000140 747.60 216.67 437.29 656.52 867.13 416.68 1065.69 414.27 970.31 538.13 870.62 649.63 1061.31 645.45
00001808 00000141 746.77 218.64 436.08 655.92 866.46 418.21 1064.14 414.86 968.92 539.27 870.11 652.43 1057.85 647.81
00001809 00000142 745.43 221.52 437.07 649.03 864.46 418.63 1063.74 418.17 965.22 539.02 865.16 647.49 1059.67 644.87
00001810 00000143 742.24 220.32 438.64 644.97 861.13 419.89 1060.06 420.64 963.34 542.00 858.21 644.92 1056.07 643.37
00001811 00000144 740.46 220.02 439.42 645.81 859.45 418.75 1057.60 420.15 959.90 542.34 856.54 644.53 1053.40 643.40
00001812 00000145 739.85 219.27 438.73 649.10 858.80 417.56 1057.43 418.37 958.53 543.39 857.50 646.10 1052.46 644.48
00001813 00000146 740.78 217.26 439.40 653.21 861.15 419.06 1061.00 418.30 963.39 544.71 861.84 648.72 1055.76 645.83
00001814 00000147 744.84 217.22 438.51 652.93 865.70 419.66 1067.08 417.99 973.19 543.62 867.02 649.58 1063.19 645.98
00001815 00000148 751.06 215.70 435.24 652.37 874.12 418.26 1074.58 415.28 984.39 540.98 879.99 652.21 1070.77 647.31
00001816 00000149 751.17 213.64 435.28 653.83 877.23 418.70 1076.48 414.53 988.34 542.32 885.11 655.89 1069.29 650.24
00001817 00000150 749.64 211.04 435.86 656.90 873.88 420.64 1073.40 414.70 986.43 541.49 884.05 658.83 1065.47 651.92
00001818 00000151 745.05 211.72 438.13 661.30 867.32 420.91 1067.34 416.30 976.70 543.47 876.61 661.61 1055.27 656.30
00001819 00000152 739.75 210.93 434.57 666.74 860.14 419.57 1056.03 419.87 960.65 543.66 868.58 665.05 1037.33 664.84
00001820 00000153 735.60 207.52 433.60 678.75 852.33 415.27 1049.62 420.40 948.85 540.11 863.82 670.91 1022.73 675.48
00001821 00000154 733.66 206.18 435.07 681.39 850.97 413.53 1047.76 420.46 944.95 541.37 861.78 671.16 1016.76 677.57
00001822 00000155 733.56 200.71 437.83 676.82 851.45 415.77 1050.93 418.53 951.10 540.05 862.82 666.82 1026.02 669.08
00001823 00000156 739.84 196.93 429.74 660.60 852.26 414.91 1060.21 417.56 962.83 548.24 865.91 669.28 1034.20 670.90
00001824 00000157 744.71 195.37 429.99 656.97 856.70 415.71 1065.97 417.83 970.29 546.92 873.29 668.28 1042.41 669.31
CROP_BBOX: 440 0 1527 1069
