Video ID: 	x6WO874lLn4
H: 	1080
W: 	1920
FPS: 	25.0

FRAME INDEX X0 Y0 W H [Landmarks (5 Points)]

00039149 00000000 752.60 215.73 491.49 690.34 788.33 505.45 957.10 500.48 798.14 638.23 830.75 761.43 952.28 757.83
00039150 00000001 746.53 211.14 493.87 691.60 786.40 503.42 952.33 497.43 790.86 633.63 828.27 756.99 949.65 752.24
00039151 DELETE   738.58 205.02 494.59 696.62 783.05 494.51 947.11 488.39 784.33 623.61 824.00 748.48 945.40 743.58
00039152 00000003 734.44 196.91 491.45 702.41 781.74 486.13 941.74 478.69 778.93 614.68 817.80 743.89 935.80 738.04
00039153 00000004 731.15 185.85 491.16 701.12 778.43 476.78 933.56 471.58 771.29 611.02 809.82 735.79 927.84 731.89
00039154 DELETE   729.24 179.70 490.99 702.96 774.13 472.22 931.86 467.40 767.66 604.08 804.08 729.51 924.46 725.71
00039155 DELETE   725.90 169.59 491.77 710.20 774.31 466.38 929.82 462.03 764.72 597.74 801.88 725.99 923.15 722.18
00039156 00000007 725.04 166.92 487.81 705.33 771.59 462.15 927.46 459.64 759.78 598.48 800.50 720.93 925.70 718.19
00039157 00000008 721.19 164.84 490.83 707.62 770.17 460.96 924.58 456.89 755.21 595.90 798.73 721.35 923.68 717.07
00039158 00000009 717.30 165.32 491.67 708.10 769.42 457.85 922.20 453.27 755.81 592.58 800.44 720.35 920.90 715.44
00039159 00000010 716.32 165.08 490.67 706.39 767.48 457.75 919.84 451.78 754.07 592.11 799.55 720.83 918.07 714.87
00039160 00000011 715.97 164.56 490.67 706.05 766.08 456.74 918.03 451.84 752.28 593.58 798.70 719.20 917.70 714.12
00039161 00000012 716.41 164.45 487.65 703.80 766.90 455.34 916.98 450.53 750.88 591.39 797.74 716.91 915.67 711.82
00039162 00000013 716.51 164.91 486.14 701.29 767.75 453.77 917.71 450.82 751.55 589.00 797.82 713.51 914.70 710.01
00039163 00000014 717.02 163.92 485.05 698.79 768.26 452.32 918.90 450.43 752.55 587.64 797.26 710.56 914.82 708.02
00039164 00000015 717.94 164.15 484.30 695.67 766.84 453.31 918.37 449.92 752.08 588.53 797.49 711.55 915.63 707.81
00039165 00000016 718.61 163.24 484.29 695.02 766.01 453.76 919.08 450.76 752.01 589.47 796.03 712.27 915.05 708.90
00039166 00000017 715.74 164.87 486.34 698.12 758.83 457.43 921.20 452.83 745.24 584.07 797.74 715.26 909.34 709.22
00039167 00000018 717.20 166.14 485.18 696.95 759.76 456.92 922.54 453.27 746.04 584.25 798.31 715.47 910.70 710.21
00039168 00000019 717.96 167.99 485.95 694.97 761.76 455.15 924.27 454.19 747.90 584.77 798.98 714.03 911.18 711.04
00039169 00000020 721.78 164.87 486.31 696.79 772.87 451.09 922.78 452.22 754.39 586.11 798.06 709.84 913.84 710.01
00039170 00000021 723.42 166.60 486.09 692.70 775.29 451.35 923.82 453.00 755.86 586.53 800.49 708.90 915.42 709.52
00039171 00000022 723.81 167.92 485.99 690.74 775.26 451.68 924.89 452.95 757.52 587.18 801.42 708.12 919.23 708.46
00039172 00000023 726.11 169.89 486.24 689.89 779.33 451.35 925.23 453.91 758.34 585.43 803.95 705.22 919.22 706.61
00039173 00000024 727.36 166.98 485.96 694.10 781.41 450.65 926.47 453.92 759.80 585.32 805.57 704.83 919.81 706.90
00039174 00000025 727.89 167.25 485.63 693.18 781.79 450.27 927.50 453.75 761.85 584.84 806.40 703.26 921.09 705.60
00039175 00000026 729.39 167.44 484.00 688.26 781.67 451.52 928.07 453.54 762.82 582.77 805.55 701.45 919.79 702.87
00039176 00000027 730.72 165.70 482.30 688.92 782.66 451.18 929.49 452.69 764.83 581.10 807.08 699.74 920.96 700.78
00039177 00000028 732.22 164.87 483.38 689.03 784.71 450.60 930.10 452.52 765.87 581.65 809.36 700.44 920.90 701.79
00039178 00000029 728.81 165.70 490.54 691.11 778.26 452.94 929.97 453.01 758.59 580.29 810.82 705.56 916.38 703.81
00039179 00000030 729.72 163.72 491.51 695.79 780.91 451.97 930.16 451.24 759.19 578.56 813.01 705.98 916.93 703.58
00039180 00000031 736.05 161.77 485.61 695.59 790.31 447.91 930.27 448.66 766.52 578.49 814.92 700.16 922.23 700.57
00039181 00000032 736.55 161.98 484.97 694.59 790.89 447.99 930.67 447.75 767.98 577.34 816.33 699.49 922.74 699.10
00039182 00000033 737.54 162.97 481.95 691.21 791.42 447.91 931.88 447.69 768.90 576.07 815.25 698.36 921.97 698.12
00039183 00000034 738.71 162.82 481.92 683.81 789.43 448.27 932.47 447.68 769.46 575.31 812.85 695.76 921.45 695.43
00039184 00000035 739.63 161.66 481.89 682.88 788.86 448.87 933.16 447.87 770.63 574.88 812.84 694.73 923.41 694.10
00039185 00000036 739.75 160.69 482.16 682.06 788.97 447.34 932.84 447.40 770.73 574.93 813.43 692.81 924.25 693.04
00039186 00000037 735.76 159.70 487.66 693.10 785.66 450.17 931.15 447.05 761.23 574.48 817.33 700.98 920.37 696.75
00039187 00000038 735.35 159.18 488.48 697.82 785.94 451.23 931.11 447.86 761.96 575.40 819.35 700.76 923.76 696.26
00039188 00000039 734.75 160.76 487.72 700.52 786.78 451.12 930.37 447.88 761.48 575.54 819.99 700.70 924.32 696.22
00039189 00000040 733.70 161.60 488.40 698.02 785.23 451.48 930.78 448.59 761.04 576.54 818.09 702.47 923.27 698.21
00039190 00000041 739.20 161.94 482.63 691.66 791.71 448.59 932.67 448.07 769.57 577.16 815.69 698.23 923.25 697.78
00039191 00000042 732.98 161.15 489.79 698.63 784.59 452.23 931.24 448.99 761.12 576.73 817.11 705.23 919.91 700.84
00039192 00000043 732.74 161.50 490.66 699.56 785.19 452.74 930.84 447.73 761.86 576.59 819.48 707.44 920.79 701.54
00039193 00000044 739.29 160.29 484.92 693.92 790.48 450.01 932.69 447.22 768.99 578.65 816.66 701.56 927.41 699.12
00039194 00000045 739.67 159.93 486.25 694.16 790.52 450.26 932.88 447.13 769.50 578.12 817.29 700.77 928.31 698.04
00039195 00000046 739.87 160.96 487.62 694.44 792.43 451.00 933.20 446.85 772.11 578.52 820.50 701.94 929.10 698.35
00039196 00000047 739.73 160.79 488.81 698.13 793.23 451.45 933.87 446.71 773.31 577.53 821.63 700.91 931.47 696.78
00039197 00000048 740.15 161.28 486.28 698.88 794.84 451.86 935.40 447.63 774.74 575.73 821.39 699.63 932.83 695.97
00039198 00000049 743.10 161.59 485.22 696.98 795.08 453.77 937.12 447.90 777.01 575.56 822.08 700.39 934.94 695.53
00039199 00000050 739.02 161.53 495.16 696.64 787.53 458.05 938.02 451.73 769.18 579.34 823.71 706.55 932.39 699.89
00039200 00000051 740.89 162.66 494.40 689.87 789.70 452.64 938.94 453.04 767.85 578.93 824.34 699.97 933.58 698.44
00039201 00000052 743.97 158.94 494.93 690.47 794.01 448.71 940.36 453.21 767.00 577.82 826.19 695.94 932.85 697.63
00039202 00000053 743.76 157.97 497.13 689.47 793.38 446.96 939.70 448.99 764.43 575.65 824.91 695.79 931.98 695.51
00039203 00000054 745.33 156.52 491.71 689.30 791.26 451.38 938.46 448.24 766.58 573.62 822.47 697.07 931.81 693.01
00039204 00000055 745.86 156.28 487.63 688.04 790.49 449.84 938.10 447.57 767.78 572.64 821.22 695.93 930.98 692.81
00039205 00000056 745.78 155.51 485.63 687.13 789.67 449.29 937.34 444.30 768.68 571.27 821.41 696.15 930.36 691.02
00039206 00000057 745.80 155.23 490.28 694.26 792.90 449.98 934.69 443.51 766.41 571.48 826.24 697.33 932.12 690.55
00039207 00000058 746.48 154.64 492.33 696.13 793.91 448.27 935.02 442.78 766.75 572.82 827.35 699.50 930.00 693.63
00039208 00000059 745.83 155.36 491.44 695.57 792.95 447.72 934.74 441.64 766.73 572.74 827.53 699.65 930.32 693.36
00039209 00000060 745.76 154.88 493.26 695.15 792.93 447.27 934.12 440.58 765.19 571.55 827.87 698.71 931.20 691.63
00039210 00000061 744.68 154.27 490.56 695.34 789.96 447.04 933.46 440.12 764.54 571.49 825.48 697.91 931.42 690.76
00039211 00000062 744.65 154.63 492.57 693.12 789.61 445.41 933.84 439.44 764.26 572.11 825.97 696.78 932.89 690.40
00039212 00000063 743.60 153.16 495.25 694.32 788.29 444.03 934.04 437.96 763.10 571.60 824.81 696.44 933.10 690.02
00039213 00000064 742.33 153.69 494.45 693.17 786.86 443.84 932.50 437.67 763.31 572.00 824.57 695.45 932.97 689.14
00039214 00000065 742.69 152.56 493.61 693.62 786.99 442.34 931.60 436.39 762.55 570.06 824.54 693.74 933.09 687.82
00039215 00000066 741.90 151.07 492.84 692.70 786.16 439.97 932.26 434.12 762.64 567.55 823.84 692.04 933.23 686.34
00039216 00000067 740.42 151.44 493.33 692.34 784.81 439.91 932.02 432.11 761.99 566.47 822.95 692.34 933.23 684.85
00039217 00000068 740.06 148.58 492.99 695.13 783.53 439.96 931.35 429.57 762.48 566.07 823.19 693.70 933.18 684.36
00039218 00000069 740.00 148.24 493.33 695.36 783.66 440.00 931.87 429.20 762.93 565.82 823.03 693.88 933.35 684.17
00039219 00000070 740.39 147.87 494.29 695.88 784.30 440.11 932.21 428.85 763.33 565.27 823.08 694.92 932.46 684.86
00039220 00000071 740.20 148.86 492.66 695.44 784.29 440.56 932.23 428.77 763.92 565.24 823.55 695.84 932.27 685.34
00039221 00000072 740.55 148.25 492.82 697.91 786.15 440.85 931.26 428.61 764.20 564.54 824.83 696.80 930.28 686.02
00039222 00000073 740.29 150.18 491.15 696.51 785.54 442.04 930.08 429.24 763.44 564.67 824.68 697.98 928.53 686.81
00039223 00000074 739.21 152.48 491.50 695.25 784.62 442.02 929.37 429.78 762.14 564.13 822.61 698.65 925.43 687.74
00039224 00000075 738.66 151.78 489.42 696.86 783.80 441.80 927.89 430.79 760.42 565.57 822.11 698.50 924.29 688.74
00039225 00000076 738.64 151.20 488.57 695.07 782.97 441.23 927.44 431.20 759.44 565.40 820.35 697.95 922.55 688.96
00039226 00000077 738.59 150.91 488.20 693.91 782.36 440.51 927.41 429.92 758.95 564.71 818.97 696.93 921.05 687.69
00039227 00000078 738.41 149.24 488.64 693.86 781.69 440.04 927.64 430.13 758.67 564.86 817.04 696.49 919.08 687.86
00039228 00000079 737.62 148.65 488.64 690.55 780.76 439.32 927.58 429.68 757.99 563.47 813.67 693.74 917.84 685.35
00039229 00000080 737.39 148.33 488.14 688.64 779.93 438.71 927.16 429.00 757.33 562.68 812.90 692.31 918.08 683.93
00039230 00000081 738.71 148.80 487.80 688.72 781.27 439.10 927.68 427.88 757.74 562.00 815.09 693.36 920.19 683.42
00039231 00000082 738.34 149.75 489.33 692.27 782.72 439.67 928.17 426.56 759.38 561.15 818.02 696.58 920.79 685.01
00039232 00000083 738.12 149.63 491.56 695.77 781.63 439.77 929.02 426.97 758.27 562.76 818.56 696.69 925.68 685.18
00039233 00000084 739.21 149.27 492.49 697.13 784.60 437.60 929.60 424.97 760.14 561.35 822.16 696.44 927.49 684.97
00039234 00000085 741.03 148.35 490.60 697.89 788.28 436.62 928.83 423.83 761.77 558.94 824.89 693.80 927.99 682.27
00039235 00000086 741.23 148.02 491.49 696.51 787.76 436.97 929.51 424.03 762.63 559.98 824.38 694.73 927.66 683.28
00039236 00000087 740.13 147.62 491.29 694.00 785.91 437.28 928.47 425.18 761.82 561.84 823.12 694.00 926.16 683.36
00039237 00000088 739.42 147.62 492.03 693.51 785.44 436.80 928.63 425.21 760.74 560.84 821.85 693.96 924.71 683.50
00039238 00000089 740.19 148.94 491.96 698.52 786.29 436.82 928.16 424.33 759.82 559.85 822.58 695.75 924.70 684.46
00039239 00000090 740.81 149.57 491.26 698.45 785.95 437.60 927.84 424.37 759.60 559.80 822.82 696.18 924.82 684.31
00039240 00000091 740.86 149.41 490.85 698.98 786.31 437.33 928.02 425.21 758.77 559.65 821.88 695.41 924.77 684.41
00039241 00000092 740.68 148.91 490.99 698.70 785.86 437.57 928.13 425.36 758.90 559.43 821.43 695.41 924.40 684.34
00039242 00000093 740.69 148.91 490.97 697.72 785.42 438.13 927.92 425.58 758.51 559.35 820.76 695.68 922.97 684.39
00039243 00000094 740.17 148.70 491.52 699.14 786.10 438.00 928.04 424.90 758.71 557.85 820.43 696.17 921.95 684.42
00039244 00000095 740.28 148.86 491.42 700.21 787.25 436.91 928.26 424.43 759.21 556.99 820.89 695.53 921.82 684.30
00039245 00000096 739.68 147.60 492.59 701.84 787.36 436.82 928.41 424.14 758.81 557.83 821.83 696.47 922.99 684.95
00039246 00000097 739.08 148.41 491.96 700.55 785.26 436.37 928.75 425.48 757.77 559.72 819.67 696.10 923.77 686.07
00039247 00000098 739.10 148.57 492.55 700.53 785.77 436.58 929.37 424.85 758.76 559.28 820.40 697.25 923.72 686.56
00039248 00000099 739.77 147.72 493.37 707.29 788.43 436.54 929.22 424.79 759.14 557.60 822.25 697.30 924.19 686.52
00039249 00000100 739.78 150.03 491.53 709.42 788.00 438.71 927.98 427.62 758.05 560.82 823.83 698.33 926.44 687.80
00039250 00000101 741.74 155.30 490.88 708.25 789.26 442.90 923.38 432.08 755.35 567.31 830.05 699.50 930.51 688.67
00039251 00000102 741.24 156.51 490.40 706.49 790.13 444.07 923.15 434.73 755.60 569.43 830.08 699.64 930.04 689.88
00039252 00000103 741.37 156.29 489.52 705.21 790.15 444.35 923.00 434.25 756.41 569.68 831.61 699.07 932.32 688.57
00039253 00000104 742.52 155.96 490.76 702.67 790.23 444.47 923.70 434.91 757.39 570.54 831.89 697.45 933.26 687.62
00039254 00000105 744.58 153.95 492.50 703.02 790.87 441.52 927.62 432.23 760.28 566.86 832.85 695.66 937.36 686.33
00039255 00000106 746.09 147.69 495.30 703.96 792.59 437.69 932.93 427.49 764.01 561.72 831.81 693.49 938.47 683.85
00039256 00000107 747.30 140.68 495.64 706.81 794.78 433.61 934.94 422.94 766.72 557.62 831.64 689.68 937.96 680.18
00039257 00000108 751.33 137.37 496.82 708.39 798.34 432.80 937.88 420.50 769.98 553.70 833.56 686.96 940.82 676.20
00039258 00000109 756.39 134.66 497.30 711.27 804.41 429.56 940.62 419.59 772.31 551.29 837.47 683.67 943.19 674.65
00039259 00000110 760.73 131.23 496.49 717.40 807.50 428.51 942.68 418.26 774.37 549.03 840.00 682.79 946.34 673.36
00039260 00000111 762.55 134.07 494.39 715.82 811.88 425.62 943.91 417.35 777.55 545.38 840.60 680.93 943.27 673.21
00039261 00000112 762.05 131.74 493.42 714.25 813.01 422.68 944.74 417.35 779.89 542.92 838.47 678.35 939.37 673.11
00039262 00000113 762.73 125.39 489.00 715.20 814.01 418.35 945.22 414.46 783.39 539.34 836.06 674.25 935.70 670.64
00039263 00000114 766.44 122.85 480.68 709.61 815.76 411.90 949.25 411.67 789.45 536.48 835.55 665.98 938.51 665.99
00039264 00000115 763.52 128.23 474.75 689.32 812.77 410.40 958.82 403.70 789.46 532.88 838.69 665.62 945.65 658.50
00039265 00000116 765.75 125.80 476.79 684.38 812.64 408.74 962.37 399.75 792.27 530.15 839.05 664.14 949.97 655.30
00039266 00000117 766.67 121.58 477.55 691.10 814.57 403.11 965.13 396.41 794.53 526.67 840.64 660.56 952.49 653.44
00039267 00000118 767.75 118.20 482.23 703.29 817.56 401.45 964.73 395.98 793.63 524.62 843.83 663.09 951.16 656.88
00039268 00000119 768.17 118.02 482.45 703.31 817.80 400.49 965.10 395.90 793.95 526.40 844.41 663.34 951.93 657.87
00039269 00000120 768.70 119.47 482.56 704.93 819.06 400.32 964.36 396.42 793.97 527.20 845.96 663.23 953.46 657.93
00039270 00000121 768.56 128.01 480.16 690.44 818.39 402.27 963.17 394.71 799.38 532.55 839.02 667.66 953.92 661.40
00039271 00000122 770.61 127.42 480.06 686.19 817.30 405.51 964.07 399.10 798.92 534.33 834.72 666.97 950.32 662.18
00039272 00000123 773.06 131.11 480.79 683.43 820.73 406.69 969.05 403.53 801.64 534.51 834.73 664.83 951.35 662.86
00039273 DELETE   777.12 133.32 485.57 684.18 828.58 410.69 968.54 410.64 799.63 537.69 839.24 667.95 950.94 668.20
00039274 DELETE   778.89 136.60 487.65 686.75 834.38 410.50 978.11 414.94 805.53 539.95 844.72 670.32 958.43 674.01
00039275 00000126 784.51 144.82 485.57 688.01 841.49 414.93 984.38 420.07 811.57 544.67 850.99 675.94 963.02 680.14
00039276 DELETE   792.28 152.89 482.08 681.76 848.76 421.98 994.01 428.84 818.68 550.40 855.99 677.87 968.24 683.87
00039277 DELETE   797.95 155.33 483.22 679.83 850.37 425.10 999.73 436.47 822.63 556.63 857.26 678.78 970.79 688.79
00039278 DELETE   807.88 158.08 482.70 676.13 855.49 429.43 1008.02 443.18 828.40 559.35 858.89 680.43 974.19 692.66
00039279 00000130 817.87 159.21 479.09 683.05 864.39 431.94 1012.25 448.45 834.21 562.15 865.45 682.60 976.70 696.98
00039280 00000131 827.35 157.51 476.06 696.61 875.92 430.83 1020.43 450.17 838.65 562.10 873.94 685.66 983.56 702.33
00039281 DELETE   835.67 161.32 481.02 712.55 890.92 432.77 1030.09 450.16 850.71 557.66 884.50 693.56 990.67 708.49
00039282 DELETE   836.67 173.72 487.22 702.44 897.05 432.26 1047.81 447.98 864.69 564.10 896.33 701.65 1010.49 713.50
CROP_BBOX: 507 0 1706 1080
