Video ID: 	1q2st1ULOnM
H: 	1080
W: 	1920
FPS: 	25.0

FRAME INDEX X0 Y0 W H [Landmarks (5 Points)]

00035451 00000000 770.21 296.78 397.50 533.17 842.66 517.36 1005.64 509.67 896.44 596.05 867.27 705.80 990.25 698.93
00035452 00000001 764.99 297.82 401.75 537.49 838.72 523.13 1003.52 514.13 892.84 600.10 863.12 713.40 984.57 705.51
00035453 00000002 758.94 301.58 398.05 541.20 820.61 526.85 988.63 526.31 873.14 614.88 841.58 717.38 963.49 716.32
00035454 00000003 745.26 306.87 403.33 546.67 804.44 528.35 981.38 527.18 853.76 623.39 823.05 731.07 953.81 731.25
00035455 DELETE   740.42 311.74 403.00 552.03 808.24 542.23 976.07 541.62 850.61 632.17 819.58 735.58 942.54 734.92
00035456 DELETE   738.37 325.23 399.81 548.75 809.43 549.52 976.74 553.48 855.57 643.65 826.18 745.24 942.86 748.15
00035457 DELETE   744.92 338.05 393.03 543.66 817.15 555.75 991.03 564.45 875.84 660.24 837.72 756.37 961.10 762.82
00035458 00000007 744.91 350.08 395.99 541.85 824.40 564.02 1002.49 569.40 897.39 674.20 851.17 765.22 985.41 769.90
00035459 00000008 745.82 352.37 398.85 543.62 829.34 569.40 1009.96 572.95 907.78 681.76 854.72 765.06 1002.29 767.54
00035460 00000009 745.42 353.02 401.15 542.63 831.44 573.05 1012.83 572.93 913.29 684.05 859.85 767.72 1007.63 767.07
00035461 00000010 743.74 354.13 401.73 542.63 829.06 572.90 1010.66 571.08 911.79 683.45 861.17 771.40 1005.52 769.54
00035462 00000011 740.38 356.68 400.11 544.20 820.80 578.02 1003.13 572.26 900.98 678.07 854.39 781.45 993.31 775.38
00035463 00000012 740.06 355.97 398.57 543.51 818.10 576.87 999.92 572.21 895.60 676.61 849.32 780.96 985.04 776.02
00035464 00000013 740.34 354.69 399.31 542.40 818.71 574.90 1000.52 570.86 895.91 675.92 849.10 779.07 984.71 774.63
00035465 00000014 745.49 358.33 400.84 539.35 831.51 569.98 1009.62 570.38 912.00 678.80 863.33 765.79 998.82 765.74
00035466 00000015 750.76 349.24 401.84 542.52 844.23 570.18 1021.74 570.66 921.27 676.12 873.55 763.12 1011.67 763.42
00035467 DELETE   753.80 349.52 407.76 542.85 853.88 570.70 1033.12 567.47 938.31 676.88 887.55 765.22 1028.02 762.31
00035468 00000017 756.51 351.23 408.71 541.79 860.46 570.42 1039.69 567.77 947.07 675.38 894.75 764.09 1034.77 761.72
00035469 00000018 760.36 350.91 407.73 548.22 864.30 569.72 1040.56 568.11 950.39 674.67 898.49 764.67 1036.36 763.38
00035470 00000019 760.15 350.48 406.72 547.52 857.29 571.08 1041.47 566.28 944.96 676.65 895.32 769.09 1040.99 764.61
00035471 00000020 758.96 349.64 404.92 550.37 848.06 573.94 1035.37 571.41 931.39 678.27 882.44 771.09 1034.11 768.32
00035472 DELETE   760.99 349.94 400.85 558.07 840.13 585.79 1019.47 579.76 916.35 694.26 871.83 786.59 1012.66 780.93
00035473 00000022 750.71 367.93 400.45 551.92 825.24 587.89 1003.38 585.42 889.75 703.50 858.36 796.46 992.13 794.63
00035474 00000023 748.51 370.02 400.07 552.83 822.12 592.73 995.54 589.18 882.37 701.79 854.86 800.15 977.96 797.69
00035475 00000024 753.05 368.20 399.80 548.74 825.99 587.22 998.82 585.48 883.44 696.38 855.32 793.57 978.37 792.73
00035476 00000025 768.32 362.48 396.55 543.15 843.98 579.48 1010.81 581.02 904.54 686.15 869.28 779.39 993.09 780.16
00035477 00000026 771.12 352.21 397.73 546.02 851.42 576.84 1019.92 575.96 915.60 679.66 879.89 774.10 1004.82 772.55
00035478 00000027 774.15 351.64 399.06 546.63 856.18 575.04 1027.94 574.16 925.68 681.67 884.93 772.65 1016.09 770.97
00035479 00000028 774.96 358.79 398.22 541.73 856.08 578.37 1029.11 575.12 929.34 685.29 886.52 776.21 1019.97 772.31
00035480 00000029 774.35 359.96 398.56 544.44 854.78 580.69 1028.70 576.35 928.85 688.76 887.45 778.93 1022.05 773.94
00035481 00000030 771.37 357.91 398.98 543.54 853.82 573.09 1029.69 574.48 923.14 675.65 882.26 768.26 1023.58 769.67
00035482 00000031 773.82 352.08 401.00 538.61 858.96 561.78 1034.35 562.47 928.90 664.73 886.74 758.44 1026.02 759.13
00035483 00000032 780.28 340.17 400.39 541.50 867.91 552.42 1045.73 552.99 940.58 654.21 890.93 749.11 1034.41 750.10
00035484 00000033 785.46 325.36 403.59 555.38 876.04 546.32 1048.86 546.88 948.34 644.00 896.19 744.77 1034.81 746.11
00035485 00000034 788.87 322.99 403.48 557.60 881.01 546.93 1053.32 547.54 955.72 643.64 902.67 745.19 1037.86 746.67
00035486 00000035 790.69 324.20 403.51 551.57 884.38 545.92 1056.53 546.75 959.43 643.49 904.79 743.12 1040.13 744.69
00035487 00000036 793.01 316.01 401.33 556.08 886.51 536.60 1060.63 539.70 962.60 634.37 904.83 736.72 1042.35 739.87
00035488 00000037 797.43 298.22 399.83 569.00 888.63 525.47 1062.29 530.85 964.25 622.52 905.82 726.57 1044.04 730.98
00035489 00000038 803.08 288.51 396.44 566.66 889.90 515.88 1067.22 523.76 963.03 608.21 902.11 717.63 1042.53 724.34
00035490 00000039 808.27 285.38 392.62 558.26 889.92 515.00 1065.80 526.50 954.45 603.12 895.45 709.32 1039.47 719.22
00035491 00000040 808.75 288.75 392.54 549.00 885.64 515.10 1061.26 528.70 940.79 601.62 886.33 705.17 1032.24 716.92
00035492 00000041 808.52 282.65 390.35 550.15 877.04 511.60 1050.73 529.39 923.51 602.17 874.82 704.38 1019.11 719.38
00035493 00000042 810.93 282.68 385.92 551.16 874.11 509.97 1039.88 530.08 913.48 602.72 869.34 702.15 1006.93 719.40
00035494 00000043 813.08 283.60 385.70 551.94 872.94 510.58 1036.58 530.39 908.62 603.74 867.24 703.09 1003.47 720.10
00035495 00000044 811.09 293.38 389.82 548.42 880.99 507.03 1046.54 532.19 913.16 597.88 869.14 700.83 991.68 721.45
00035496 00000045 812.51 290.42 391.16 552.53 883.92 504.75 1051.79 530.51 914.99 597.53 870.84 699.48 995.51 720.68
00035497 00000046 816.02 284.07 392.54 558.50 889.60 502.74 1058.97 528.37 921.29 594.89 876.01 696.88 1004.86 718.07
00035498 00000047 823.74 285.59 388.64 552.25 891.36 498.57 1065.32 521.18 932.50 593.63 883.32 695.49 1021.32 716.07
00035499 00000048 824.15 286.61 389.25 547.36 890.58 498.75 1065.42 521.66 931.27 593.63 882.29 694.37 1020.93 715.45
00035500 00000049 821.50 283.88 389.37 550.54 887.73 497.65 1061.57 522.17 927.13 594.16 878.24 691.50 1018.52 713.55
00035501 00000050 818.19 291.42 389.09 542.25 884.23 496.64 1056.53 522.49 922.72 596.76 875.33 692.06 1013.55 715.19
00035502 00000051 814.34 282.51 392.62 546.76 873.16 504.96 1045.49 525.16 908.45 601.14 867.32 695.95 1015.32 712.69
00035503 00000052 813.20 283.16 392.94 546.72 872.30 506.13 1043.92 525.71 908.62 602.16 867.38 696.55 1014.99 712.82
00035504 00000053 811.82 281.23 392.79 547.40 871.58 507.53 1043.14 525.96 910.38 603.61 868.07 697.38 1015.72 712.61
00035505 00000054 810.09 282.01 394.38 552.09 870.16 510.83 1041.56 525.84 909.64 604.71 868.74 700.85 1018.11 713.29
00035506 00000055 807.76 284.68 393.67 555.82 867.35 514.44 1036.24 526.95 906.36 608.48 868.08 706.50 1015.67 717.06
00035507 00000056 805.73 290.89 389.67 547.48 862.37 517.34 1028.20 527.49 901.49 611.50 866.67 713.56 1006.95 722.39
00035508 00000057 804.27 295.43 387.46 544.71 863.65 519.30 1027.23 529.44 904.86 615.66 869.22 716.93 1005.02 726.00
00035509 DELETE   805.77 304.70 390.16 540.26 871.93 528.42 1037.55 536.98 920.39 624.49 880.53 720.44 1017.72 728.10
00035510 DELETE   809.42 309.43 392.72 533.48 885.47 537.00 1060.21 539.94 951.22 630.28 900.35 721.71 1052.11 724.09
00035511 DELETE   808.69 306.86 396.45 544.92 893.84 539.33 1074.49 537.45 972.98 629.91 915.37 726.54 1071.61 724.48
00035512 00000061 802.67 309.88 402.79 550.13 896.51 539.94 1076.53 535.67 981.20 628.90 922.60 729.10 1075.30 724.73
00035513 DELETE   796.06 319.03 404.67 553.17 887.60 543.50 1063.31 534.50 969.41 632.02 916.66 736.16 1065.08 728.32
00035514 DELETE   782.75 328.45 406.05 550.70 868.86 544.38 1044.43 536.27 943.84 638.74 898.28 740.82 1044.30 734.38
00035515 00000064 771.56 326.33 405.17 549.97 859.06 543.46 1037.43 544.07 932.37 640.21 884.79 739.54 1027.80 740.29
00035516 00000065 768.09 326.51 405.18 549.92 857.47 545.10 1036.80 547.07 932.86 643.69 884.54 740.33 1028.78 741.88
00035517 00000066 766.59 328.33 409.33 555.56 859.59 547.61 1038.49 545.19 940.68 647.49 891.71 743.67 1040.27 740.85
00035518 00000067 762.84 326.46 411.74 564.64 857.22 547.14 1036.57 542.22 940.18 647.52 893.61 747.34 1043.27 741.88
00035519 00000068 757.21 326.09 409.54 561.03 845.48 543.51 1027.81 541.32 921.98 642.87 877.22 744.21 1028.21 741.39
00035520 DELETE   753.10 322.56 404.02 560.14 824.75 541.05 1004.79 535.11 888.16 641.18 854.98 746.43 1000.05 740.65
00035521 00000070 745.42 322.88 403.65 562.05 811.76 539.33 987.61 535.70 868.11 642.56 841.91 745.24 984.75 741.03
00035522 00000071 744.39 320.00 404.71 566.98 811.03 537.32 986.15 531.82 867.85 640.02 842.92 746.72 984.34 741.20
00035523 00000072 747.58 317.39 403.95 573.33 817.08 538.01 991.67 529.14 875.67 637.90 851.24 749.60 989.58 741.38
00035524 00000073 747.89 311.30 405.69 568.02 816.52 537.52 995.72 529.14 878.44 634.91 849.37 744.26 989.06 736.97
00035525 00000074 746.68 311.01 403.37 553.77 808.69 534.39 990.91 529.70 869.82 636.48 839.50 740.87 980.84 736.90
00035526 00000075 742.74 309.34 398.15 549.75 808.63 542.59 982.77 536.56 865.93 638.94 830.43 737.17 975.52 732.16
00035527 00000076 739.65 312.18 397.05 548.52 803.00 544.51 972.83 540.20 854.13 641.22 823.02 740.12 964.33 736.89
00035528 00000077 736.94 316.75 398.39 549.86 801.63 544.86 965.84 540.98 849.30 641.37 820.98 740.54 956.27 737.76
00035529 00000078 736.29 316.98 398.74 551.20 801.53 544.39 966.41 540.40 850.24 640.53 820.40 739.04 958.85 736.04
00035530 00000079 737.38 315.57 397.50 550.00 802.81 543.35 970.21 540.19 853.54 640.30 820.05 736.63 961.48 734.46
00035531 00000080 738.79 311.92 395.60 550.80 804.36 542.34 974.16 540.26 857.64 641.26 820.59 735.46 965.64 734.22
00035532 00000081 739.30 313.08 394.37 548.62 804.95 542.80 975.04 541.43 858.33 642.60 820.35 736.01 965.51 735.45
00035533 00000082 738.56 313.53 394.34 547.20 804.85 543.13 974.32 543.82 857.47 645.15 818.63 736.38 963.09 737.45
00035534 00000083 738.45 313.96 394.65 545.90 804.58 543.07 974.12 544.38 856.41 644.73 817.25 734.35 963.41 735.87
00035535 00000084 740.02 311.04 393.79 545.26 804.42 540.79 975.82 542.66 856.12 641.60 816.49 731.35 965.62 733.26
00035536 00000085 741.46 305.32 394.60 548.17 806.30 537.91 979.78 541.01 859.38 639.02 818.41 729.35 969.02 732.15
00035537 00000086 746.84 307.36 398.45 543.73 805.77 526.56 985.90 530.99 861.50 633.28 825.26 727.18 968.85 731.37
00035538 00000087 751.36 304.86 398.63 545.45 813.54 523.81 992.61 530.36 866.35 630.86 829.85 722.36 974.09 728.07
00035539 00000088 756.27 306.10 399.41 543.57 820.74 522.95 996.23 532.89 869.34 631.04 831.56 718.51 975.21 726.87
00035540 00000089 760.39 308.21 400.96 540.34 826.08 522.50 1000.63 533.40 871.77 629.67 834.55 717.36 978.97 726.27
00035541 00000090 766.02 309.24 401.45 541.55 833.51 520.30 1007.29 531.51 876.07 626.69 841.99 717.53 984.31 726.49
00035542 00000091 775.58 304.64 395.58 550.06 847.11 518.01 1015.21 531.29 896.92 623.46 852.63 709.08 993.40 718.13
00035543 00000092 782.76 300.48 389.69 553.63 855.54 517.07 1019.16 536.05 902.85 615.89 854.47 706.91 994.71 722.61
00035544 00000093 786.32 300.47 392.08 554.23 861.35 516.68 1024.63 535.40 910.93 614.07 860.25 705.81 1000.89 721.55
00035545 00000094 789.28 300.97 395.06 558.27 865.62 518.04 1029.66 533.91 917.00 614.08 866.08 708.39 1008.55 722.06
00035546 00000095 792.42 306.83 395.22 555.46 868.60 523.61 1033.94 537.62 920.48 619.44 870.05 713.22 1014.43 725.57
00035547 00000096 799.01 310.93 394.18 553.44 870.96 528.11 1036.96 539.92 920.18 628.08 873.02 720.29 1017.04 730.93
00035548 00000097 803.49 315.49 395.97 550.50 874.58 533.03 1041.46 542.88 923.52 635.64 878.25 723.29 1025.23 731.97
00035549 00000098 806.42 311.50 395.56 553.76 878.45 532.19 1045.05 541.95 927.82 634.97 882.26 720.40 1030.05 728.90
00035550 00000099 811.05 307.48 392.47 549.69 882.18 527.57 1050.62 538.42 932.82 629.16 885.26 713.74 1034.05 723.13
00035551 00000100 814.34 300.55 393.68 556.67 887.24 523.48 1057.67 535.12 938.61 625.07 889.80 712.18 1038.27 722.32
00035552 00000101 816.40 297.16 392.78 562.48 889.59 523.34 1059.40 533.05 942.08 624.11 894.02 712.69 1041.84 721.28
00035553 00000102 815.84 296.16 392.52 562.32 888.22 524.64 1059.14 533.65 942.17 625.62 893.76 715.07 1042.66 722.89
00035554 00000103 813.73 299.44 393.07 554.47 885.68 526.55 1057.71 535.37 940.07 627.09 891.68 715.41 1041.71 722.91
00035555 00000104 811.44 302.77 393.66 551.99 883.02 527.88 1053.31 536.86 936.41 629.43 888.76 716.43 1036.39 724.11
00035556 00000105 810.62 307.67 392.45 549.47 880.68 530.33 1048.44 539.02 932.87 633.00 887.03 719.36 1030.88 727.06
00035557 00000106 809.17 313.31 391.60 546.97 879.91 533.12 1046.56 542.03 931.00 637.23 885.06 723.12 1026.51 731.24
00035558 00000107 807.29 317.99 393.81 545.37 880.58 537.02 1045.97 546.59 930.93 643.93 885.79 728.36 1025.18 737.02
00035559 00000108 804.61 326.53 396.88 541.42 882.38 541.20 1048.36 550.49 935.07 648.17 888.33 730.62 1028.03 739.32
00035560 00000109 801.16 330.24 399.93 544.32 883.17 543.85 1050.86 553.74 938.76 651.69 889.47 732.30 1033.60 741.39
00035561 00000110 800.57 331.04 398.52 543.07 882.88 546.34 1051.09 555.27 940.30 653.51 891.27 733.83 1035.68 742.08
00035562 00000111 799.14 332.30 397.46 541.98 883.66 548.02 1052.53 558.15 943.28 653.86 891.23 732.20 1038.74 741.41
00035563 00000112 798.86 332.09 398.00 541.52 887.95 549.36 1052.73 558.98 949.43 649.28 897.21 729.46 1041.71 738.11
00035564 00000113 800.44 331.79 396.64 541.04 891.23 549.27 1054.58 557.31 956.19 644.89 903.28 727.57 1046.42 734.76
00035565 DELETE   799.46 325.90 399.14 541.94 893.27 544.60 1059.83 549.56 964.09 640.35 907.20 724.71 1052.60 728.90
00035566 00000115 799.35 321.24 398.59 546.59 893.75 541.42 1060.58 544.32 967.31 638.75 908.67 723.57 1055.24 725.91
00035567 00000116 798.55 320.06 401.04 545.19 892.26 541.84 1061.13 542.54 968.46 641.04 910.44 725.27 1057.56 725.64
00035568 00000117 795.53 321.48 404.36 555.26 891.60 542.74 1063.12 542.07 970.93 643.99 910.25 728.18 1063.40 727.46
00035569 00000118 793.24 321.63 407.21 564.72 891.84 544.53 1065.23 543.80 973.00 647.23 908.69 728.08 1070.49 727.07
00035570 00000119 794.02 323.23 406.89 563.45 893.31 546.68 1067.95 545.84 975.72 651.37 909.04 727.58 1075.21 726.70
00035571 00000120 796.68 322.76 406.56 563.97 896.79 546.49 1073.43 546.13 980.42 653.52 910.22 725.15 1081.77 724.99
00035572 00000121 799.21 324.44 405.34 564.65 899.20 547.89 1076.62 546.95 983.69 657.68 911.83 725.08 1086.81 724.67
00035573 00000122 798.90 327.95 405.53 562.49 898.02 551.87 1076.39 550.03 982.70 663.18 911.79 727.58 1087.99 726.49
00035574 00000123 798.66 335.61 402.63 557.90 897.48 554.11 1074.58 553.89 979.39 668.13 908.12 729.38 1085.25 729.85
00035575 00000124 800.14 340.35 398.33 554.44 896.94 556.63 1071.54 562.47 973.68 671.71 903.57 730.92 1077.81 736.40
00035576 00000125 799.75 343.11 397.14 550.19 893.59 552.37 1070.01 563.30 965.82 669.18 894.26 727.12 1072.32 737.03
CROP_BBOX: 355 0 1378 1069
