Video ID: 	lDMd_myAl1M
H: 	1080
W: 	1920
FPS: 	25.0

FRAME INDEX X0 Y0 W H [Landmarks (5 Points)]

00004600 00000000 656.69 202.58 483.01 642.64 713.24 484.91 882.21 429.97 764.63 578.68 789.53 696.84 935.26 648.95
00004601 DELETE   660.41 203.02 483.45 642.35 718.43 493.21 891.01 442.62 775.47 590.91 792.68 698.89 942.80 654.49
00004602 00000002 668.46 211.97 481.23 649.07 726.32 500.84 900.73 448.75 787.10 591.48 798.33 708.81 952.00 663.11
00004603 DELETE   675.54 221.17 487.69 663.22 741.42 497.81 920.68 451.68 806.98 605.81 816.74 724.25 969.13 683.14
00004604 00000004 681.69 217.75 497.82 687.14 761.86 504.44 944.13 457.01 837.56 621.65 840.93 742.97 994.91 701.20
00004605 00000005 683.06 224.98 506.41 691.71 775.02 512.79 960.81 465.07 862.64 635.70 861.34 753.59 1016.35 712.82
00004606 00000006 691.77 231.25 508.00 683.70 787.85 524.69 980.71 470.41 887.22 641.81 878.12 760.26 1036.65 715.46
00004607 00000007 694.18 237.69 513.05 680.27 792.41 526.94 991.46 473.28 898.28 647.34 886.09 764.19 1049.44 719.68
00004608 00000008 694.26 242.29 522.29 691.00 794.13 533.83 993.90 478.87 901.87 653.82 891.60 770.90 1057.65 724.80
00004609 00000009 695.34 251.59 522.68 693.24 791.60 541.24 992.71 487.50 897.56 665.76 889.97 782.19 1054.97 737.05
00004610 00000010 686.98 259.93 531.44 688.51 776.21 549.68 978.63 494.91 874.10 680.19 874.78 793.07 1037.32 745.06
00004611 00000011 686.52 262.33 533.68 692.16 773.76 552.02 975.04 501.48 866.84 687.62 869.52 794.69 1035.38 749.79
00004612 00000012 687.60 264.37 532.74 690.17 775.79 551.81 975.70 504.08 867.67 689.98 870.80 792.47 1036.71 749.68
00004613 00000013 693.55 266.98 527.43 683.00 783.63 550.84 985.30 500.88 880.28 681.32 878.42 788.42 1046.52 743.24
00004614 00000014 701.89 267.27 529.06 672.83 794.79 553.70 992.82 504.96 891.13 692.26 889.22 784.97 1050.26 742.03
00004615 00000015 708.09 269.14 528.54 663.25 804.82 556.54 1008.52 504.59 911.21 693.29 898.96 782.48 1068.64 737.16
00004616 00000016 718.71 267.12 520.86 663.19 816.45 564.67 1024.71 509.01 930.53 690.67 905.92 785.32 1085.57 736.78
00004617 00000017 723.70 263.77 524.89 675.86 827.26 573.67 1030.70 509.43 943.30 688.75 923.45 792.45 1100.76 737.05
00004618 00000018 718.25 256.88 536.29 687.40 833.72 561.98 1042.28 503.24 956.20 685.11 934.04 792.87 1107.21 740.95
00004619 00000019 715.50 256.86 549.06 698.08 836.44 554.68 1049.40 497.48 963.66 682.10 943.74 797.77 1117.11 746.97
00004620 00000020 717.31 255.17 543.79 689.42 837.73 553.16 1051.08 494.38 967.04 677.25 944.97 793.86 1115.86 742.17
00004621 00000021 721.40 253.50 539.06 691.60 834.39 553.91 1049.05 492.32 960.70 679.74 941.96 798.72 1108.70 746.14
00004622 00000022 715.28 252.03 540.70 689.24 826.06 547.21 1040.94 489.89 948.13 678.93 932.49 797.30 1093.59 748.10
00004623 00000023 709.97 254.60 542.07 688.55 814.67 545.08 1028.26 490.02 932.99 679.87 921.50 797.96 1081.48 750.18
00004624 00000024 701.42 260.54 539.64 691.86 801.99 547.71 1013.21 488.80 910.95 669.29 906.01 796.38 1069.23 746.12
00004625 00000025 694.51 259.93 539.42 697.34 788.01 543.35 994.82 486.19 893.76 674.25 891.15 801.44 1060.15 749.88
00004626 00000026 693.52 255.28 532.15 689.57 776.23 544.30 981.04 493.89 868.93 684.81 870.80 792.42 1037.75 747.64
00004627 00000027 685.87 255.12 529.01 673.67 763.92 539.82 968.50 493.04 852.10 682.28 858.30 785.79 1022.17 744.67
00004628 00000028 679.08 251.96 529.88 676.40 756.71 537.16 962.29 493.81 842.96 681.89 848.30 783.69 1013.32 745.58
00004629 00000029 677.70 254.66 527.06 672.53 753.57 537.64 960.58 494.18 840.73 683.34 844.54 784.21 1010.85 746.00
00004630 00000030 676.90 255.68 528.20 672.16 754.99 539.63 961.94 494.17 844.34 684.69 848.42 785.69 1014.42 745.76
00004631 00000031 680.29 257.99 525.54 664.96 759.59 541.74 965.58 493.88 851.82 685.01 855.37 786.66 1017.89 744.94
00004632 00000032 689.85 255.58 519.69 677.49 773.05 545.82 974.76 496.34 868.11 683.34 868.77 790.69 1028.42 748.69
00004633 00000033 695.02 258.89 519.48 674.99 780.39 545.81 986.21 495.11 881.65 681.90 876.29 790.06 1040.16 747.36
00004634 00000034 697.16 259.62 521.77 672.85 785.99 543.12 992.96 492.41 889.26 676.95 881.74 786.92 1046.00 744.38
00004635 00000035 701.22 258.02 520.01 675.74 789.62 542.23 996.54 491.09 893.34 675.91 885.05 786.52 1049.41 743.71
00004636 00000036 698.29 263.20 526.55 664.53 786.98 544.06 991.53 492.27 887.38 681.45 884.83 786.84 1041.33 742.02
00004637 00000037 700.77 265.31 526.69 669.52 790.29 543.37 992.48 491.52 890.23 679.62 888.95 789.65 1044.21 744.64
00004638 00000038 708.36 267.60 523.72 668.10 794.01 545.05 995.53 492.86 892.76 682.18 893.54 791.98 1046.18 746.94
00004639 00000039 714.15 270.47 521.07 663.86 800.72 544.34 1002.20 494.05 899.02 679.48 898.04 789.38 1049.32 746.21
00004640 00000040 722.83 268.91 515.51 657.06 806.87 540.97 1011.22 494.89 905.09 676.39 900.03 781.20 1052.53 741.49
00004641 00000041 731.77 262.92 506.01 655.76 815.92 539.07 1016.26 495.63 911.85 676.46 901.62 771.23 1057.47 733.58
00004642 00000042 736.57 255.81 505.89 659.18 813.29 532.65 1024.20 490.29 910.86 671.00 898.01 773.55 1064.14 737.16
00004643 00000043 742.44 251.61 502.70 665.68 819.48 527.85 1027.46 488.18 913.76 667.63 903.75 775.44 1061.44 741.99
00004644 00000044 749.72 250.47 500.49 664.98 832.49 519.08 1029.46 485.51 919.65 668.50 915.69 763.23 1060.80 734.31
00004645 00000045 750.03 244.42 502.38 667.58 834.87 509.29 1031.94 476.12 922.21 660.07 917.97 758.18 1064.21 729.56
00004646 00000046 752.83 236.40 499.39 667.10 835.99 503.05 1033.87 471.51 921.18 651.74 913.34 752.00 1063.65 724.48
00004647 00000047 753.52 231.60 497.31 664.71 833.33 503.07 1030.26 468.92 917.71 647.75 909.84 748.78 1060.78 719.01
00004648 00000048 750.23 233.62 498.78 664.06 829.85 504.13 1025.15 468.88 914.58 648.79 910.19 750.19 1057.51 719.39
00004649 00000049 746.93 241.50 498.93 663.95 826.59 509.19 1021.51 474.45 910.54 654.25 907.10 753.97 1052.96 723.74
00004650 00000050 742.31 251.34 499.72 658.57 818.96 517.73 1013.14 482.89 901.74 664.87 901.50 762.05 1044.73 732.03
00004651 00000051 735.51 260.61 501.61 654.66 811.03 530.90 1008.17 492.06 897.14 676.19 897.19 773.46 1040.17 740.21
00004652 00000052 731.01 268.01 507.19 658.22 806.06 541.45 1004.53 499.69 893.20 683.76 893.76 786.33 1038.36 750.78
00004653 00000053 721.06 274.87 514.45 669.46 805.84 549.83 1005.47 506.75 896.26 691.07 897.59 798.85 1051.10 759.97
00004654 00000054 723.18 278.31 518.48 676.32 805.58 557.45 1005.13 514.32 895.27 702.23 898.62 807.65 1055.33 768.78
00004655 00000055 722.18 281.50 520.18 678.61 803.87 561.61 1007.05 521.08 894.94 710.97 895.97 813.29 1056.72 776.79
00004656 00000056 721.04 288.21 520.55 676.55 802.40 565.29 1007.32 531.27 890.90 720.35 890.24 817.44 1050.40 786.90
00004657 00000057 722.58 296.80 517.42 671.75 803.84 573.68 1004.87 543.83 889.28 731.99 891.03 823.34 1045.14 796.68
00004658 00000058 721.99 313.53 521.61 672.68 803.20 581.01 1004.72 552.44 888.58 746.58 894.50 836.89 1041.13 811.80
00004659 00000059 723.79 322.65 522.65 681.11 805.31 592.18 1005.30 559.29 891.54 754.47 900.64 856.34 1037.38 827.86
00004660 00000060 727.62 328.19 521.27 681.71 805.98 597.09 1009.15 564.37 894.41 761.77 901.98 864.47 1038.33 836.07
00004661 00000061 731.73 325.76 521.16 684.04 809.63 595.20 1013.96 563.06 898.31 760.63 905.31 864.41 1043.07 836.38
00004662 00000062 739.69 310.47 518.67 698.93 818.39 581.50 1021.75 552.78 902.89 751.79 908.36 854.10 1050.13 828.95
00004663 00000063 746.17 296.01 516.86 692.75 823.86 569.18 1033.20 542.04 910.87 738.48 908.80 837.45 1059.31 813.67
00004664 00000064 748.89 280.91 520.49 691.54 830.24 558.84 1044.92 533.49 919.82 723.08 906.07 823.29 1062.88 800.87
00004665 00000065 756.07 277.11 516.56 683.87 829.76 553.16 1050.09 523.52 919.17 716.74 907.92 822.63 1066.57 797.09
00004666 00000066 759.05 265.98 517.50 695.11 837.09 545.94 1051.83 519.95 926.38 707.04 911.55 814.46 1068.54 793.43
00004667 00000067 770.33 267.68 511.96 700.45 846.59 543.81 1055.12 516.24 933.69 704.85 921.33 812.71 1077.80 789.96
00004668 00000068 780.75 270.58 509.43 694.44 854.66 542.58 1061.12 515.13 940.80 702.29 929.98 809.38 1086.60 786.21
00004669 00000069 788.17 274.24 504.56 677.84 858.90 541.05 1070.69 511.41 950.94 696.93 933.64 801.59 1094.89 776.37
00004670 00000070 794.53 269.85 499.54 668.72 866.22 535.93 1077.89 506.03 958.14 685.81 938.11 789.84 1100.99 763.98
00004671 00000071 802.36 261.03 501.04 667.06 873.41 526.89 1085.61 504.62 960.92 684.43 942.91 778.96 1099.85 759.77
00004672 00000072 805.87 260.51 501.25 668.33 877.96 518.03 1088.63 495.41 963.66 674.00 951.17 775.40 1103.71 755.75
00004673 00000073 815.16 243.30 494.15 684.96 886.25 510.58 1092.43 486.19 967.48 661.98 955.14 770.25 1112.66 749.18
00004674 00000074 821.93 234.57 489.02 691.86 892.73 503.16 1095.58 477.78 971.61 649.28 957.77 763.03 1118.92 740.92
00004675 00000075 824.20 231.86 486.98 693.69 893.68 498.59 1097.82 472.35 972.80 644.87 957.32 759.77 1123.04 736.89
00004676 00000076 823.82 229.31 487.83 700.40 895.18 495.32 1101.27 468.49 975.96 641.10 955.70 755.44 1128.81 731.81
00004677 00000077 822.91 226.56 488.38 699.91 894.09 492.71 1100.69 466.06 975.81 639.91 955.63 753.18 1128.74 729.61
00004678 00000078 821.57 226.28 487.89 697.92 893.36 492.03 1100.19 466.06 975.62 639.08 953.60 750.53 1127.27 727.44
00004679 00000079 817.81 226.21 490.14 688.76 889.09 491.57 1097.20 465.25 972.99 638.32 951.16 748.37 1122.53 724.99
00004680 00000080 811.52 222.58 492.93 687.40 882.71 489.95 1094.89 461.98 968.51 634.58 945.01 747.25 1118.72 722.62
00004681 00000081 804.03 223.11 498.50 684.09 877.85 488.51 1088.32 458.38 962.46 629.12 943.05 746.46 1113.71 720.03
00004682 00000082 795.01 222.68 501.31 686.81 871.60 484.73 1080.19 450.26 958.08 623.89 940.16 745.27 1109.06 715.19
00004683 00000083 787.16 221.40 502.73 693.94 867.28 484.04 1069.78 447.99 951.02 619.54 935.86 744.55 1103.06 713.24
00004684 00000084 778.81 222.92 503.47 697.68 860.23 487.22 1062.99 449.83 944.72 620.49 929.49 747.17 1096.87 715.19
00004685 00000085 772.59 223.89 502.32 700.51 853.25 491.33 1056.81 452.82 935.89 622.34 921.59 748.83 1090.52 716.05
00004686 00000086 761.48 224.43 507.69 702.88 840.67 494.37 1048.24 453.82 922.59 622.84 911.49 753.80 1083.00 719.35
00004687 00000087 750.50 223.89 511.75 703.57 830.66 496.69 1040.61 453.44 918.05 624.24 906.01 758.13 1077.20 721.46
00004688 00000088 752.44 222.27 504.50 709.77 831.41 490.53 1029.02 452.49 910.28 627.06 904.27 754.47 1067.19 720.92
00004689 00000089 746.03 222.47 506.10 708.14 822.21 492.63 1019.16 452.19 899.47 627.32 897.17 754.20 1060.86 718.32
00004690 00000090 742.40 221.55 504.00 709.94 815.64 493.50 1009.47 449.86 888.19 624.62 891.40 752.25 1057.20 713.49
00004691 00000091 737.53 222.40 503.36 712.22 808.53 494.32 1000.13 448.44 879.45 622.45 885.46 755.71 1046.73 715.42
00004692 00000092 734.18 223.89 500.97 715.64 805.70 494.40 995.77 451.07 875.71 624.15 882.91 761.32 1036.51 723.93
00004693 00000093 727.55 227.97 505.71 718.19 800.53 498.91 991.54 458.24 869.89 629.28 876.67 766.63 1025.89 732.07
00004694 00000094 726.43 232.46 506.44 719.86 797.47 505.32 989.51 466.99 866.17 639.11 873.44 774.28 1023.08 741.85
00004695 00000095 723.38 235.80 506.85 718.97 793.67 509.52 988.30 470.73 862.56 642.95 869.07 777.09 1021.97 744.27
00004696 00000096 721.18 234.24 506.93 697.56 787.38 509.71 984.13 471.45 856.07 642.29 861.14 769.44 1016.51 736.89
00004697 00000097 721.24 228.27 500.49 685.15 784.35 504.08 983.08 469.27 852.83 637.61 850.88 759.59 1007.66 730.46
00004698 00000098 715.98 227.15 499.90 686.06 782.49 502.01 981.37 470.36 850.75 634.07 843.77 756.86 997.86 730.88
00004699 00000099 711.71 230.55 502.86 698.26 780.87 503.24 979.13 472.06 848.15 634.95 843.45 766.05 991.54 740.69
00004700 00000100 707.23 235.06 507.60 700.28 778.15 508.93 976.90 476.26 845.36 641.21 846.16 775.06 991.85 748.30
00004701 00000101 706.08 239.05 506.51 687.33 777.52 515.57 977.13 482.61 848.78 651.76 849.74 772.46 997.22 745.25
00004702 00000102 705.94 243.38 506.73 673.99 774.85 519.95 974.96 488.04 849.28 662.69 848.81 769.83 999.10 743.34
00004703 00000103 703.05 248.55 508.28 672.61 772.69 524.67 976.77 493.05 851.20 670.88 848.75 775.57 999.49 749.30
00004704 00000104 703.00 258.11 509.99 669.43 771.41 527.53 978.68 497.11 851.78 679.54 847.81 782.38 999.94 757.17
00004705 00000105 701.80 261.47 509.26 682.24 773.74 533.38 979.43 503.55 855.71 679.93 845.08 788.18 1002.66 763.32
00004706 00000106 707.03 262.92 509.47 681.83 779.44 533.69 984.92 504.50 861.85 680.97 851.59 789.89 1008.64 765.35
00004707 00000107 718.76 258.55 502.64 680.13 787.71 525.76 997.56 498.23 874.16 676.25 856.61 783.73 1016.18 760.44
00004708 00000108 737.89 249.73 502.20 673.55 801.33 515.63 1013.12 497.15 880.36 675.80 865.45 769.70 1021.20 754.23
00004709 00000109 756.11 235.43 493.89 688.79 820.85 504.71 1028.11 488.69 894.68 663.72 881.18 765.97 1033.31 752.47
00004710 00000110 764.90 228.41 496.56 687.81 832.72 497.81 1051.21 480.19 910.62 644.92 885.68 762.84 1049.01 748.98
00004711 00000111 786.88 217.50 486.90 694.25 850.80 486.40 1059.83 470.78 919.22 630.64 889.72 745.98 1059.45 734.10
00004712 00000112 799.64 212.42 489.30 696.70 862.94 477.41 1075.19 460.52 936.30 621.55 903.59 741.93 1075.84 728.61
00004713 00000113 822.57 212.01 480.00 708.57 880.36 472.56 1093.49 459.12 950.82 614.02 920.31 744.71 1090.56 733.46
00004714 00000114 829.12 209.91 481.43 702.79 891.25 468.90 1107.48 462.14 964.25 614.87 924.84 735.07 1098.94 729.60
00004715 00000115 835.32 210.41 482.56 691.34 905.13 468.43 1125.54 465.55 977.07 613.80 937.54 732.65 1106.20 730.68
00004716 00000116 840.65 203.40 485.46 697.42 918.40 465.63 1133.52 462.60 987.41 606.62 935.51 724.47 1112.18 723.27
00004717 00000117 850.92 201.45 480.64 700.03 925.85 461.72 1136.70 459.98 991.94 603.61 942.52 723.63 1112.92 723.89
00004718 00000118 856.79 201.95 481.88 700.65 933.65 459.60 1142.35 458.91 998.67 600.25 948.62 723.06 1111.65 724.61
00004719 00000119 863.99 203.47 477.84 698.10 939.60 459.26 1148.16 459.87 1005.93 601.04 955.50 724.40 1113.31 727.16
00004720 00000120 869.32 205.94 478.85 697.85 942.50 462.79 1152.26 462.69 1009.23 605.66 959.43 728.68 1116.43 731.20
00004721 00000121 871.79 211.19 479.82 696.58 944.87 469.26 1151.95 467.70 1009.60 610.51 962.50 735.12 1113.53 736.55
00004722 00000122 871.00 214.26 477.08 703.80 943.40 474.66 1147.69 472.87 1005.05 617.50 961.53 743.59 1110.93 744.65
00004723 00000123 867.85 220.48 478.47 705.39 940.14 480.52 1143.38 476.47 1000.43 626.06 964.35 752.69 1111.54 751.65
00004724 00000124 859.73 230.58 483.64 701.48 938.97 482.28 1143.31 478.92 1004.23 628.86 969.50 756.67 1123.73 755.04
00004725 00000125 862.65 224.88 476.59 695.43 927.99 485.31 1137.25 479.53 994.90 631.37 956.46 751.17 1121.20 748.07
00004726 00000126 857.90 217.85 480.69 695.25 923.35 484.05 1133.55 476.91 989.26 626.85 951.20 743.27 1123.66 738.71
00004727 00000127 847.94 216.90 484.39 693.19 913.57 484.12 1128.65 474.84 982.55 627.55 944.25 740.50 1124.07 733.71
00004728 00000128 832.68 221.81 487.93 685.85 900.98 488.99 1114.90 476.20 971.47 633.35 941.82 743.75 1116.84 732.84
00004729 00000129 827.45 222.35 484.65 686.71 881.84 495.36 1087.49 477.24 944.42 640.21 928.59 746.52 1101.07 730.35
00004730 00000130 803.90 229.11 498.75 677.47 866.77 506.32 1063.95 481.48 930.06 647.31 924.34 752.46 1084.92 731.27
00004731 00000131 791.44 233.60 501.71 682.99 856.95 514.23 1053.44 484.79 922.25 650.89 918.99 759.62 1081.34 734.56
00004732 00000132 784.21 233.03 501.29 681.82 849.80 514.48 1046.22 482.47 915.71 648.08 912.35 759.83 1076.75 732.55
00004733 00000133 779.24 229.41 500.25 678.16 844.67 508.24 1045.35 477.98 913.99 642.36 903.53 753.16 1069.36 727.94
00004734 00000134 771.82 222.30 501.23 673.55 839.60 499.81 1043.57 474.41 911.46 634.82 894.51 742.45 1060.57 721.68
00004735 00000135 764.82 223.24 495.11 667.74 832.72 494.21 1036.30 471.79 903.23 629.53 884.08 737.86 1047.01 719.78
00004736 00000136 758.66 224.19 490.98 679.21 824.60 495.58 1022.63 473.09 890.97 635.25 875.16 738.79 1028.27 719.51
00004737 00000137 750.60 232.30 488.38 676.17 812.15 505.19 1004.78 482.90 874.44 646.34 864.77 748.09 1011.82 730.01
00004738 00000138 733.95 240.27 497.49 671.04 802.78 512.79 993.68 491.18 868.77 658.10 863.76 759.00 1000.75 741.62
00004739 00000139 726.60 240.86 495.82 673.49 796.43 517.30 985.55 491.65 864.31 659.01 864.14 767.65 993.59 747.29
00004740 00000140 722.74 240.69 493.24 673.08 793.61 516.84 979.04 488.53 859.48 653.68 862.51 765.63 989.92 743.10
00004741 00000141 717.34 236.90 495.21 676.27 790.85 515.81 975.46 487.31 856.56 649.60 858.08 762.98 985.83 740.32
00004742 00000142 712.38 235.01 498.23 677.94 787.33 517.56 973.49 487.57 853.82 650.89 855.19 762.20 987.97 738.11
00004743 00000143 709.08 236.78 499.89 682.25 782.85 521.00 970.56 486.57 851.38 652.28 854.22 765.85 992.63 737.65
00004744 00000144 705.17 240.37 506.54 693.49 778.31 523.22 967.61 483.57 845.79 652.05 854.29 774.46 1000.66 741.12
00004745 00000145 701.21 241.38 512.98 697.45 774.44 524.59 966.68 481.41 843.88 653.92 853.56 776.13 1008.78 739.13
00004746 00000146 701.66 236.35 508.55 687.57 775.98 523.68 968.78 482.54 849.70 653.76 852.87 767.71 1007.22 733.00
00004747 00000147 703.99 233.84 503.05 681.19 777.09 522.03 970.24 482.39 851.75 652.19 848.86 760.10 1006.28 726.83
00004748 00000148 702.98 234.85 504.27 677.25 777.72 520.97 971.16 481.16 854.59 651.56 851.34 758.72 1006.67 725.34
00004749 00000149 700.97 237.73 507.26 685.19 779.99 522.40 972.62 480.08 858.98 650.48 858.52 765.60 1007.43 730.21
00004750 00000150 702.12 241.30 506.73 687.80 785.26 523.36 973.56 480.31 863.21 645.90 867.71 773.93 1002.75 738.18
00004751 00000151 705.59 241.98 506.87 685.82 788.50 521.79 977.23 477.49 868.33 643.83 871.50 771.94 1007.13 735.01
00004752 00000152 710.81 239.00 505.66 683.26 793.18 519.12 980.63 475.47 872.99 644.33 876.37 767.30 1013.59 730.81
00004753 00000153 716.59 237.52 504.41 678.44 795.97 517.38 984.76 475.54 874.96 648.17 879.12 763.55 1018.78 728.22
00004754 00000154 719.89 235.67 505.87 679.92 798.81 515.27 989.54 476.68 877.04 650.43 878.79 761.39 1022.27 728.64
00004755 00000155 722.78 237.33 511.20 685.30 802.63 516.12 994.28 476.11 882.15 652.70 885.90 765.11 1035.21 730.57
00004756 00000156 725.38 241.10 512.18 683.38 805.74 517.24 997.81 477.75 886.25 655.63 888.27 763.24 1043.88 728.62
00004757 00000157 728.31 240.53 511.63 681.69 806.67 518.67 1002.17 479.15 888.18 657.12 886.45 761.96 1046.90 727.27
00004758 00000158 732.48 245.08 508.12 674.07 808.84 524.03 1008.20 484.91 891.99 661.21 884.47 760.41 1050.46 726.13
00004759 00000159 734.28 251.24 508.29 667.21 811.43 529.59 1013.54 489.37 898.54 667.50 890.11 764.26 1054.48 729.26
00004760 00000160 737.63 261.82 504.66 655.20 816.36 538.97 1018.76 496.06 908.09 670.83 894.75 766.93 1057.41 729.91
00004761 00000161 737.50 281.53 499.92 641.41 820.84 547.76 1024.64 499.15 925.22 667.33 903.53 777.54 1068.29 735.80
00004762 00000162 738.83 287.46 500.47 644.93 826.90 549.89 1027.47 505.46 929.64 676.21 912.25 786.25 1068.06 748.30
00004763 00000163 741.47 293.95 507.24 648.75 835.98 555.64 1041.59 510.65 940.25 687.69 924.38 798.88 1079.68 760.23
00004764 00000164 741.47 282.58 517.93 672.26 849.88 553.72 1060.80 516.55 961.98 695.63 936.48 801.39 1097.12 769.67
00004765 00000165 755.39 288.48 516.53 674.51 867.03 560.46 1075.44 516.78 984.34 694.51 956.72 806.82 1121.12 770.86
00004766 00000166 764.67 288.00 513.21 665.40 878.70 560.92 1087.33 515.63 999.13 692.65 963.96 800.24 1132.54 763.06
00004767 00000167 770.17 288.33 512.32 660.22 885.02 557.20 1096.53 513.44 1007.48 691.05 969.14 797.37 1137.87 761.00
00004768 00000168 777.64 290.81 512.48 654.43 889.28 552.10 1103.58 508.85 1012.55 688.43 974.84 793.98 1144.62 757.48
