Video ID: 	I3mb4OUZnQY
H: 	2160
W: 	3840
FPS: 	29.97002997002997

FRAME INDEX X0 Y0 W H [Landmarks (5 Points)]

00001587 00000000 1970.31 294.11 702.35 987.05 2104.06 717.37 2401.09 664.24 2235.43 891.54 2189.79 1098.24 2433.72 1055.60
00001588 00000001 1961.22 311.17 694.50 996.02 2085.09 716.14 2384.77 660.30 2219.72 890.37 2199.46 1102.87 2409.39 1052.76
00001589 DELETE   1941.93 313.64 708.97 1001.00 2073.22 732.86 2378.28 683.99 2210.80 924.41 2181.91 1111.59 2400.44 1075.61
00001590 00000003 1925.86 321.22 708.28 1002.62 2057.59 744.03 2366.66 694.38 2198.16 932.83 2168.33 1121.95 2387.02 1085.52
00001591 00000004 1913.11 320.51 714.81 1006.87 2039.46 749.28 2353.80 694.14 2180.91 935.06 2155.92 1126.55 2382.69 1084.78
00001592 00000005 1913.40 319.19 714.71 1008.83 2039.78 748.97 2354.19 694.50 2181.21 936.16 2156.16 1126.78 2383.04 1085.54
00001593 00000006 1906.35 314.64 715.73 1019.68 2029.46 752.65 2350.00 698.36 2172.59 940.61 2148.63 1132.28 2381.79 1090.24
00001594 00000007 1904.01 316.57 713.37 1044.04 2028.57 755.34 2347.27 703.96 2168.90 943.97 2144.29 1144.65 2377.49 1105.02
00001595 00000008 1904.57 318.13 711.98 1050.19 2027.59 758.34 2345.04 711.62 2162.88 947.16 2138.57 1147.61 2374.26 1111.91
00001596 00000009 1901.35 317.23 713.40 1036.64 2024.30 760.72 2346.34 713.69 2159.85 949.69 2138.10 1145.35 2373.34 1109.27
00001597 00000010 1901.03 319.74 713.49 1030.45 2022.53 761.65 2348.01 714.55 2157.58 952.32 2135.97 1146.42 2373.21 1110.31
00001598 00000011 1900.81 319.11 713.81 1030.49 2022.19 761.67 2348.04 714.20 2157.50 951.77 2135.52 1146.00 2373.34 1109.54
00001599 00000012 1902.18 320.54 712.76 1028.35 2023.00 762.76 2349.49 716.67 2156.64 952.81 2134.98 1145.06 2373.79 1109.81
00001600 00000013 1903.87 320.12 711.24 1033.74 2024.62 762.84 2349.51 716.84 2158.11 954.72 2136.31 1145.77 2375.61 1110.68
00001601 00000014 1908.56 318.64 708.92 1042.28 2029.45 760.23 2351.41 718.76 2161.63 956.44 2137.42 1146.18 2375.19 1115.47
00001602 00000015 1912.57 319.37 706.14 1049.76 2034.30 757.10 2356.46 718.18 2166.44 954.69 2137.77 1147.74 2374.74 1119.60
00001603 00000016 1915.06 320.39 705.42 1056.92 2037.79 754.69 2357.18 718.84 2169.96 954.05 2137.20 1147.66 2373.50 1122.29
00001604 00000017 1914.43 321.47 707.24 1056.70 2037.60 754.95 2357.03 718.72 2169.77 953.31 2136.71 1147.98 2373.36 1122.32
00001605 00000018 1923.83 322.90 703.40 1057.72 2038.27 748.73 2358.39 704.52 2174.97 944.91 2126.39 1153.91 2373.11 1125.06
00001606 00000019 1914.71 310.64 708.01 1057.33 2036.80 748.33 2356.27 709.46 2169.08 943.38 2139.69 1142.01 2374.28 1114.17
00001607 DELETE   1909.96 303.16 718.93 1017.79 2036.50 736.29 2353.78 692.92 2171.30 922.11 2137.69 1116.40 2367.50 1084.31
00001608 00000021 1917.62 293.85 714.48 997.38 2043.09 717.12 2356.74 672.11 2175.41 903.17 2133.63 1090.05 2366.28 1056.37
00001609 00000022 1923.34 283.33 710.73 991.41 2043.57 701.96 2362.51 654.71 2173.42 881.81 2128.96 1079.20 2365.09 1044.61
00001610 00000023 1923.06 284.17 711.63 990.37 2043.63 701.86 2362.52 654.60 2173.67 882.11 2129.68 1079.22 2365.45 1044.60
00001611 00000024 1926.07 286.98 711.48 986.07 2043.25 692.54 2371.93 645.87 2171.91 868.14 2121.77 1074.44 2366.90 1041.12
00001612 00000025 1927.42 283.77 717.20 995.01 2045.40 692.06 2374.55 651.06 2169.67 869.35 2119.15 1070.40 2373.77 1041.58
00001613 00000026 1925.68 285.73 719.60 999.44 2046.87 706.30 2369.97 666.56 2172.07 885.70 2124.09 1076.95 2373.18 1048.31
00001614 00000027 1925.21 296.59 715.08 997.41 2046.98 719.54 2366.58 675.94 2179.75 901.73 2137.98 1090.72 2378.36 1058.59
00001615 00000028 1922.51 292.24 716.02 1025.04 2049.94 723.92 2367.04 679.71 2184.16 905.65 2148.51 1109.00 2377.15 1077.02
00001616 00000029 1922.68 292.87 716.45 1025.41 2049.71 723.52 2367.75 679.28 2183.96 905.35 2148.20 1109.64 2377.43 1077.60
00001617 00000030 1922.08 292.31 720.35 1023.47 2049.22 724.60 2370.04 679.12 2184.60 907.71 2150.46 1106.65 2386.02 1073.16
00001618 00000031 1925.74 297.29 718.90 998.52 2051.97 722.06 2373.73 675.62 2190.58 906.39 2150.39 1095.43 2390.14 1060.90
00001619 00000032 1932.92 297.26 715.00 994.35 2053.86 719.73 2376.11 673.34 2190.53 903.62 2149.81 1090.06 2394.67 1055.02
00001620 00000033 1934.17 298.47 714.09 990.76 2058.96 720.42 2376.29 671.32 2197.84 908.97 2159.72 1093.39 2395.85 1056.28
00001621 00000034 1930.48 296.44 717.98 997.23 2062.48 721.37 2378.00 673.66 2203.35 915.18 2167.49 1098.49 2396.31 1062.98
00001622 00000035 1930.37 296.33 718.05 997.52 2062.56 721.54 2378.27 673.93 2203.72 915.30 2167.76 1098.83 2396.80 1063.41
00001623 00000036 1930.85 299.46 716.81 998.86 2065.89 725.31 2381.84 681.23 2204.38 918.11 2167.31 1101.49 2395.56 1069.31
00001624 00000037 1931.19 300.29 717.02 1004.97 2067.02 724.61 2383.12 682.64 2205.62 918.64 2166.95 1104.07 2393.44 1073.88
00001625 00000038 1933.50 296.63 717.34 1008.99 2065.45 722.58 2381.33 673.98 2202.61 908.70 2165.83 1103.94 2394.53 1068.01
00001626 00000039 1939.79 294.39 713.15 987.74 2067.83 710.37 2385.71 656.99 2205.44 897.87 2165.92 1092.15 2394.26 1052.34
00001627 00000040 1954.99 281.40 686.48 970.27 2070.99 690.13 2381.88 649.73 2197.26 868.66 2145.77 1072.60 2389.72 1041.40
00001628 00000041 1955.24 281.50 685.92 970.14 2071.03 690.11 2382.02 649.86 2197.22 868.62 2145.61 1072.62 2389.76 1041.54
00001629 00000042 1956.41 277.03 687.68 971.11 2072.81 685.17 2384.72 644.88 2200.47 862.05 2146.47 1068.67 2390.39 1037.64
00001630 00000043 1957.54 277.48 689.05 990.29 2072.79 688.67 2385.95 647.94 2200.42 868.58 2148.19 1077.75 2392.86 1046.31
00001631 00000044 1958.06 293.55 690.73 1000.86 2088.53 695.21 2386.15 650.40 2216.31 880.96 2182.84 1095.94 2392.58 1056.11
00001632 00000045 1960.50 300.81 689.36 1018.77 2083.94 710.84 2386.23 672.69 2208.79 905.02 2177.75 1115.53 2393.89 1080.29
00001633 00000046 1951.11 302.86 704.54 1039.03 2060.13 724.21 2383.71 682.17 2186.07 913.44 2156.53 1137.44 2397.71 1103.54
00001634 00000047 1951.13 302.77 704.32 1038.87 2060.37 724.01 2384.06 682.11 2186.79 913.28 2156.76 1137.33 2397.80 1103.48
00001635 00000048 1951.36 306.09 705.63 1040.37 2061.18 721.29 2384.00 680.30 2186.66 909.93 2156.60 1138.40 2392.95 1105.55
00001636 00000049 1963.41 304.61 688.85 1023.87 2077.68 712.38 2387.43 681.74 2198.03 908.33 2167.67 1120.68 2381.11 1091.33
00001637 00000050 1962.77 294.47 687.66 1007.39 2085.81 696.90 2388.56 665.68 2206.52 890.01 2167.77 1094.66 2388.66 1065.71
00001638 00000051 1962.14 294.98 689.50 995.28 2085.00 692.88 2391.70 656.85 2212.09 885.37 2163.77 1087.67 2394.45 1055.13
00001639 00000052 1963.37 293.22 691.53 994.19 2086.32 692.23 2393.34 655.32 2213.02 887.86 2163.91 1086.91 2397.26 1053.84
00001640 00000053 1963.45 292.36 691.40 995.39 2087.31 692.91 2393.78 655.80 2214.79 886.92 2164.69 1087.43 2397.81 1054.23
00001641 00000054 1964.23 292.68 689.68 996.31 2089.27 693.57 2393.29 657.86 2215.35 889.17 2169.27 1092.60 2392.01 1060.68
00001642 00000055 1967.26 297.89 688.69 998.49 2090.01 698.06 2391.83 663.43 2212.11 890.52 2169.13 1096.24 2390.12 1065.11
00001643 00000056 1967.12 298.43 689.25 1005.92 2091.66 701.23 2395.30 668.91 2213.47 893.50 2168.70 1098.95 2392.48 1069.49
00001644 00000057 1968.89 301.61 686.86 1005.89 2092.17 702.53 2392.90 670.19 2211.78 893.91 2168.70 1102.73 2390.92 1073.23
00001645 00000058 1967.85 302.32 688.40 1008.25 2090.86 701.24 2394.09 670.19 2211.94 895.42 2168.28 1104.82 2390.64 1076.23
00001646 00000059 1967.89 303.15 688.99 1007.79 2090.81 701.37 2393.99 670.09 2211.69 895.44 2168.36 1105.20 2390.40 1076.43
00001647 00000060 1969.08 304.14 687.62 1007.12 2091.41 701.31 2393.94 669.42 2211.48 894.57 2169.39 1105.87 2390.17 1076.55
00001648 00000061 1969.16 286.83 686.76 1019.75 2086.27 712.09 2396.84 681.28 2210.11 898.70 2155.95 1105.06 2396.47 1081.73
00001649 00000062 1972.62 290.67 685.84 1016.44 2090.24 711.11 2398.55 679.97 2211.76 896.77 2159.30 1105.43 2398.81 1082.20
00001650 00000063 1974.88 292.50 685.33 1014.58 2093.00 708.52 2402.78 679.64 2215.11 897.11 2161.31 1105.69 2402.02 1083.99
00001651 00000064 1977.64 293.17 684.87 1013.89 2096.66 707.41 2405.52 679.09 2217.60 895.33 2163.58 1105.13 2405.31 1083.96
00001652 00000065 1977.44 293.13 685.89 1011.88 2096.71 707.25 2405.61 679.15 2217.39 895.80 2163.39 1104.67 2405.11 1083.71
00001653 00000066 1979.58 291.38 685.21 1014.40 2099.79 707.45 2407.29 679.66 2219.07 895.69 2165.58 1104.47 2407.04 1084.06
00001654 00000067 1981.53 291.22 684.55 1012.07 2101.71 704.72 2408.72 678.10 2220.90 894.83 2166.37 1102.61 2407.41 1083.08
00001655 00000068 1982.33 289.13 684.69 1011.70 2104.10 702.83 2411.06 676.02 2222.90 893.50 2169.14 1101.89 2408.81 1082.32
00001656 00000069 1986.21 287.65 683.01 1010.45 2105.95 700.47 2411.99 673.49 2222.33 888.76 2170.17 1100.21 2408.70 1080.87
00001657 00000070 1985.79 285.40 685.95 1011.28 2106.68 697.18 2416.26 670.75 2225.89 888.44 2171.05 1098.76 2411.88 1079.34
00001658 00000071 1985.38 284.92 685.89 1011.34 2106.63 697.43 2416.28 670.85 2225.77 888.55 2171.25 1098.79 2412.23 1079.28
00001659 00000072 1989.14 285.06 684.47 1012.13 2108.82 697.12 2419.24 671.14 2227.72 888.37 2172.66 1098.65 2414.30 1079.71
00001660 00000073 1990.99 283.65 683.60 1014.77 2109.96 698.55 2419.96 672.54 2228.87 888.12 2174.13 1098.79 2415.27 1080.03
00001661 00000074 1994.27 285.30 681.94 1014.23 2119.40 700.22 2417.42 679.23 2231.33 886.23 2176.73 1100.85 2414.26 1085.14
00001662 00000075 1995.36 286.62 681.42 1014.07 2118.99 700.55 2417.69 679.06 2232.53 886.36 2177.38 1101.90 2414.36 1085.82
00001663 00000076 1997.36 283.42 682.66 1016.82 2120.16 700.06 2419.73 677.72 2232.77 886.33 2178.85 1101.09 2416.02 1084.51
00001664 00000077 1997.32 283.48 681.79 1011.76 2114.40 699.79 2422.36 674.11 2233.93 886.28 2177.59 1096.86 2417.56 1078.87
00001665 00000078 1997.21 282.57 681.82 1011.66 2114.42 699.95 2422.20 674.12 2233.91 886.51 2177.89 1096.42 2417.77 1078.29
00001666 00000079 1996.95 283.10 682.17 1009.26 2113.78 697.59 2422.09 670.78 2233.93 886.74 2177.87 1096.80 2418.76 1077.75
00001667 00000080 1997.71 277.98 682.90 1022.05 2117.46 698.28 2418.92 673.28 2232.06 888.08 2179.63 1102.56 2418.61 1083.55
00001668 00000081 1996.28 287.61 679.44 1017.46 2111.91 710.20 2415.11 681.97 2230.63 898.43 2180.47 1103.29 2416.71 1083.01
00001669 00000082 1997.57 288.21 678.94 1031.83 2112.99 718.46 2408.03 688.30 2229.02 913.06 2181.26 1124.86 2413.79 1101.82
00001670 00000083 1992.80 300.01 685.93 1022.74 2105.62 732.05 2408.91 704.92 2221.27 931.74 2172.31 1136.59 2408.95 1115.79
00001671 00000084 1992.69 300.09 685.83 1022.57 2105.68 732.11 2408.94 704.85 2221.55 931.71 2172.44 1136.62 2409.16 1115.71
00001672 00000085 1987.30 313.88 688.06 1017.88 2099.97 733.85 2410.82 713.32 2215.14 937.58 2157.97 1135.66 2400.57 1120.03
00001673 00000086 1992.25 307.29 683.85 1014.73 2101.57 725.18 2407.52 705.88 2213.23 924.11 2157.30 1123.15 2398.68 1108.50
00001674 00000087 1989.63 297.51 682.67 1022.26 2104.85 707.27 2408.80 681.32 2210.89 902.67 2171.20 1106.35 2395.39 1082.18
00001675 00000088 1998.59 287.10 685.12 1003.43 2110.02 693.87 2413.51 671.94 2216.82 888.43 2164.41 1084.38 2407.58 1068.22
00001676 00000089 1999.41 281.58 688.65 999.90 2108.14 685.56 2418.04 661.12 2217.65 878.23 2164.86 1076.48 2412.47 1057.98
00001677 00000090 1999.39 282.12 687.97 999.51 2108.24 685.60 2418.22 661.38 2217.62 877.94 2164.62 1076.27 2412.82 1057.93
00001678 00000091 1999.48 282.26 686.38 1001.93 2111.42 686.02 2418.94 659.86 2223.08 878.58 2170.75 1077.74 2417.48 1057.72
00001679 00000092 1997.62 282.14 685.02 1025.03 2110.93 696.89 2421.33 666.80 2229.70 888.96 2178.08 1096.43 2423.58 1074.28
00001680 00000093 1995.02 290.37 679.54 1030.10 2108.91 712.15 2413.43 681.94 2227.44 903.56 2177.93 1107.88 2418.97 1085.54
00001681 00000094 1996.11 292.89 679.44 1035.22 2109.44 726.41 2414.53 694.82 2230.64 924.08 2178.26 1131.59 2424.44 1107.10
00001682 00000095 1987.00 309.14 699.11 1051.17 2091.83 726.75 2422.91 698.01 2214.23 938.50 2173.71 1149.68 2423.20 1126.30
00001683 00000096 1987.36 308.00 697.88 1052.87 2092.19 726.69 2423.25 697.79 2214.61 937.99 2174.24 1149.13 2423.91 1125.60
00001684 00000097 1988.18 322.22 698.32 1041.54 2094.90 735.77 2423.82 708.81 2221.05 950.22 2173.43 1156.38 2424.68 1134.73
00001685 00000098 1984.53 327.67 699.97 1022.15 2093.90 738.47 2422.23 714.10 2222.35 956.08 2169.27 1156.79 2422.27 1136.93
00001686 00000099 1980.79 339.78 696.95 1005.39 2100.86 755.17 2427.81 726.46 2238.01 956.40 2169.38 1146.82 2418.30 1127.58
00001687 00000100 1979.51 343.06 697.64 1002.45 2101.43 757.27 2426.95 729.49 2237.27 960.08 2168.64 1146.92 2417.48 1128.35
00001688 00000101 1982.29 348.94 693.58 1003.29 2103.73 764.92 2423.03 740.57 2234.90 965.20 2164.67 1149.75 2413.66 1133.63
00001689 00000102 1982.21 348.83 693.56 1004.10 2103.83 764.61 2423.25 740.38 2235.12 965.26 2164.41 1149.58 2413.87 1133.55
00001690 00000103 1988.90 343.17 705.05 1013.51 2099.24 751.77 2420.03 742.13 2218.77 975.40 2162.44 1158.66 2422.54 1150.99
00001691 00000104 1980.99 359.92 694.74 1004.34 2106.02 772.68 2419.52 753.81 2231.63 973.74 2158.59 1150.97 2410.37 1139.41
00001692 00000105 1980.99 358.16 695.07 1006.75 2106.45 771.37 2420.78 753.50 2231.92 971.51 2157.43 1150.89 2409.08 1140.16
00001693 00000106 1982.62 355.72 695.79 1005.01 2107.42 767.72 2422.53 750.37 2231.70 967.97 2156.68 1149.32 2407.70 1138.81
00001694 00000107 1982.72 348.84 697.00 1005.33 2105.35 761.29 2423.77 742.55 2230.82 963.61 2158.19 1149.35 2407.04 1137.67
00001695 00000108 1982.71 348.21 697.00 1005.01 2105.33 761.44 2423.58 742.62 2230.73 963.95 2158.33 1149.42 2406.66 1137.70
00001696 00000109 1982.81 346.46 697.56 1002.60 2103.34 757.76 2426.10 737.40 2231.78 958.98 2157.78 1146.95 2408.35 1134.12
00001697 00000110 1985.24 342.95 694.91 1003.08 2104.70 758.21 2426.31 737.19 2234.28 958.75 2160.59 1145.95 2408.76 1132.74
00001698 00000111 1985.96 342.63 695.03 1002.12 2104.38 755.73 2427.66 733.29 2236.69 956.74 2163.65 1146.10 2410.02 1131.54
00001699 00000112 1987.44 340.68 694.38 1007.13 2105.72 754.10 2429.88 732.75 2238.76 958.15 2165.95 1146.76 2411.71 1132.67
00001700 00000113 1988.72 339.69 695.06 1011.11 2107.13 756.22 2430.85 733.47 2240.44 955.78 2168.42 1147.61 2412.78 1132.41
00001701 00000114 1995.95 324.90 697.50 1023.62 2103.95 740.87 2423.56 722.95 2220.61 957.61 2167.43 1156.88 2418.31 1142.90
00001702 00000115 1996.45 319.83 695.59 1031.68 2104.32 744.94 2423.93 724.80 2221.05 954.69 2169.05 1158.17 2419.65 1142.18
00001703 00000116 1993.24 325.82 696.62 1021.18 2107.89 741.51 2431.76 727.85 2226.83 952.26 2168.14 1153.55 2420.14 1142.45
00001704 00000117 1991.11 327.31 695.59 1014.18 2108.04 750.80 2435.53 728.65 2242.57 949.15 2168.26 1140.85 2418.08 1126.44
00001705 00000118 1995.08 326.23 693.88 998.51 2107.31 744.35 2432.62 718.71 2240.42 940.59 2168.87 1124.79 2424.21 1107.52
00001706 00000119 2002.64 308.41 690.04 1008.50 2107.00 736.95 2428.30 715.23 2234.65 931.70 2176.42 1128.16 2430.62 1111.05
00001707 00000120 2002.15 308.61 690.07 1006.85 2106.78 736.47 2428.13 714.99 2234.38 931.24 2176.53 1127.64 2430.24 1110.72
00001708 00000121 2000.76 303.49 692.90 1002.19 2123.43 729.69 2433.21 712.38 2244.56 923.00 2169.52 1113.88 2433.25 1100.92
00001709 00000122 2007.90 308.58 687.38 985.44 2133.29 725.80 2432.27 706.32 2247.77 919.34 2180.18 1106.55 2430.05 1090.21
00001710 00000123 2017.33 303.35 680.72 990.44 2137.58 717.88 2440.22 700.95 2252.93 908.08 2185.55 1098.59 2428.64 1085.12
00001711 00000124 2028.82 280.74 684.86 1023.63 2140.95 700.20 2455.71 688.20 2254.56 888.32 2197.70 1092.18 2439.43 1081.99
00001712 00000125 2021.25 283.48 688.26 1000.28 2149.30 696.64 2468.82 689.54 2271.70 891.13 2191.82 1083.04 2438.55 1078.93
00001713 00000126 2021.35 283.73 688.64 1000.22 2149.27 696.62 2468.93 689.53 2271.72 891.18 2191.88 1083.13 2438.73 1079.03
00001714 00000127 2031.17 282.47 677.40 984.88 2162.41 691.47 2468.27 689.04 2280.77 889.22 2197.10 1080.58 2439.27 1079.18
00001715 00000128 2033.18 282.77 689.33 990.67 2163.15 686.14 2483.38 681.99 2291.87 876.92 2206.90 1059.21 2448.37 1058.46
00001716 00000129 2042.26 277.80 683.10 985.50 2173.76 678.47 2485.54 680.80 2296.75 869.54 2208.35 1063.11 2448.83 1065.93
00001717 00000130 2047.18 279.65 685.44 981.73 2179.43 677.74 2496.27 677.52 2303.19 867.16 2218.18 1059.44 2458.95 1061.63
00001718 00000131 2045.17 278.18 692.02 990.25 2181.32 678.30 2500.66 681.42 2308.64 868.60 2216.33 1062.35 2458.36 1066.15
00001719 00000132 2045.01 278.36 690.23 990.52 2181.32 678.63 2500.84 681.63 2308.78 867.92 2216.33 1062.72 2458.74 1066.42
00001720 00000133 2047.93 274.54 688.29 993.89 2182.36 677.12 2501.26 680.12 2308.98 868.42 2218.80 1062.44 2458.60 1066.02
00001721 00000134 2049.94 273.88 685.97 996.80 2182.91 677.52 2499.71 680.84 2307.72 867.20 2219.21 1062.77 2458.85 1066.70
00001722 00000135 2050.12 274.35 685.63 996.96 2182.58 676.12 2499.67 679.34 2307.55 867.13 2220.66 1062.87 2457.47 1066.69
00001723 00000136 2048.21 275.15 686.66 995.51 2180.45 674.09 2497.96 676.69 2305.80 865.54 2218.12 1063.04 2456.46 1066.26
00001724 00000137 2047.54 273.86 688.12 995.88 2179.14 673.22 2497.96 676.83 2303.29 864.32 2216.24 1062.08 2454.30 1066.22
00001725 00000138 2047.39 273.69 688.06 995.53 2179.10 673.41 2497.57 676.97 2303.06 864.51 2215.83 1062.25 2454.41 1066.32
00001726 00000139 2046.85 274.09 687.68 995.60 2178.18 673.64 2496.16 677.05 2301.11 864.22 2214.27 1062.05 2453.01 1065.98
00001727 00000140 2046.30 274.82 688.69 996.05 2177.95 674.26 2495.12 677.07 2300.25 863.55 2214.10 1062.38 2452.30 1065.93
00001728 00000141 2046.17 274.67 687.95 995.51 2178.34 674.91 2495.03 678.12 2301.12 864.39 2213.76 1062.82 2452.75 1066.64
00001729 00000142 2046.57 276.84 685.95 992.31 2179.22 676.42 2494.76 680.36 2302.37 866.58 2214.52 1062.98 2452.91 1067.38
00001730 00000143 2047.92 275.45 683.30 994.62 2178.74 677.13 2491.03 678.71 2301.60 867.45 2216.48 1064.11 2452.45 1066.55
00001731 00000144 2048.45 276.44 682.54 993.70 2179.01 677.33 2490.62 678.49 2301.61 867.56 2217.15 1063.75 2453.19 1065.84
00001732 00000145 2047.73 275.65 684.64 994.42 2179.79 680.22 2492.69 680.68 2303.47 869.57 2217.44 1064.45 2455.13 1066.00
00001733 00000146 2048.20 276.91 685.48 993.29 2179.65 679.21 2492.86 680.08 2303.17 869.22 2217.23 1064.57 2455.11 1066.48
00001734 00000147 2049.64 274.92 684.17 996.18 2180.06 680.35 2494.51 683.11 2303.19 870.02 2216.85 1065.79 2455.01 1069.30
00001735 00000148 2049.31 275.92 685.35 997.56 2179.89 680.01 2494.50 683.60 2302.66 871.06 2216.63 1067.50 2455.21 1071.71
00001736 00000149 2048.32 275.41 686.82 998.74 2179.73 680.02 2495.10 684.25 2302.75 871.75 2216.41 1068.44 2455.34 1073.07
00001737 00000150 2048.18 275.95 685.80 998.78 2179.49 680.15 2494.52 683.97 2302.34 871.66 2216.32 1068.74 2455.35 1073.01
00001738 00000151 2048.98 273.05 685.70 1004.77 2180.96 683.04 2495.32 686.36 2302.06 875.70 2217.39 1071.98 2456.63 1075.86
00001739 00000152 2048.34 274.53 682.74 1005.51 2182.44 683.68 2492.60 686.21 2302.65 878.50 2216.78 1074.54 2457.15 1077.71
00001740 00000153 2047.99 274.94 684.62 1005.51 2181.26 685.78 2491.45 688.41 2300.06 880.04 2216.71 1076.31 2455.33 1079.65
00001741 00000154 2045.83 280.40 684.53 996.03 2177.40 686.87 2488.97 688.90 2296.88 883.10 2213.89 1077.04 2453.79 1079.77
00001742 00000155 2047.27 279.20 682.89 995.78 2176.30 689.43 2485.36 692.11 2292.23 885.58 2212.13 1078.47 2451.12 1081.77
00001743 00000156 2047.64 278.29 681.86 996.34 2176.78 689.50 2485.22 692.23 2292.59 885.86 2212.20 1078.47 2451.61 1081.79
00001744 00000157 2042.87 292.65 684.84 986.47 2169.83 692.05 2484.06 689.08 2288.66 888.32 2211.30 1068.22 2445.82 1068.41
00001745 00000158 2036.61 282.84 685.18 990.88 2161.09 691.79 2481.54 684.69 2286.04 879.47 2204.18 1060.05 2451.39 1057.01
