Video ID: 	gOOsDV4igHY
H: 	1080
W: 	1920
FPS: 	25.0

FRAME INDEX X0 Y0 W H [Landmarks (5 Points)]

00003211 00000000 1065.94 206.94 480.11 632.80 1331.60 475.83 1521.82 470.15 1502.22 574.33 1356.22 687.46 1500.68 682.59
00003212 00000001 1065.19 205.88 481.26 636.26 1331.06 475.91 1522.09 470.74 1502.23 575.51 1354.65 688.32 1500.54 683.68
00003213 00000002 1066.18 205.61 478.65 636.82 1330.31 477.99 1522.96 472.22 1502.37 574.99 1351.23 688.20 1500.25 683.40
00003214 00000003 1063.90 208.50 479.51 632.62 1324.78 477.29 1521.06 471.24 1498.73 574.62 1348.58 689.15 1497.93 683.98
00003215 00000004 1061.04 211.67 482.60 629.23 1317.61 476.18 1521.22 473.99 1493.06 574.32 1341.91 688.57 1494.71 686.61
00003216 00000005 1049.31 208.36 491.74 636.18 1310.77 469.72 1516.46 476.80 1484.24 572.80 1334.42 689.64 1484.47 694.77
00003217 DELETE   1041.52 190.75 504.05 646.11 1298.43 469.63 1495.57 471.37 1467.89 576.74 1331.45 695.54 1471.96 698.19
00003218 00000007 1044.35 187.89 499.22 651.77 1295.15 467.68 1492.22 475.67 1456.89 574.84 1321.74 694.28 1462.19 702.18
00003219 00000008 1034.74 187.80 501.77 656.25 1288.81 462.79 1488.30 476.65 1450.75 570.07 1312.43 690.35 1456.10 702.98
00003220 00000009 1033.44 190.80 496.47 653.68 1269.80 463.67 1482.26 476.57 1436.63 570.86 1297.47 690.25 1455.52 701.90
00003221 00000010 1025.88 187.79 499.77 658.37 1263.23 467.11 1474.95 475.11 1427.55 574.36 1289.44 690.50 1446.98 698.11
00003222 00000011 1019.85 198.52 494.69 657.33 1266.99 462.34 1475.21 465.91 1428.58 583.09 1270.95 688.82 1441.72 690.87
00003223 00000012 1016.04 198.83 494.24 655.98 1261.05 462.31 1473.42 467.44 1424.28 583.25 1262.31 685.65 1439.93 689.03
00003224 00000013 1012.11 200.10 493.71 650.65 1254.82 461.14 1470.45 466.81 1417.28 580.74 1258.51 684.28 1435.38 687.91
00003225 00000014 1009.61 199.78 493.93 651.66 1252.27 463.02 1467.97 469.91 1414.56 579.41 1258.10 686.50 1433.44 690.99
00003226 00000015 1006.69 197.04 493.83 654.19 1247.48 460.78 1468.50 470.68 1411.10 578.12 1254.21 686.68 1432.18 693.85
00003227 00000016 1002.73 194.48 498.34 657.51 1240.49 455.99 1467.10 466.63 1406.81 576.98 1250.87 688.29 1430.99 696.10
00003228 00000017 1000.69 194.67 499.96 659.60 1238.69 456.04 1463.38 468.12 1404.67 575.60 1250.80 688.26 1430.21 697.15
00003229 00000018 1000.17 196.14 499.66 656.51 1235.47 454.95 1465.00 468.48 1403.24 574.57 1247.48 687.39 1430.09 697.66
00003230 00000019 998.05 196.79 501.27 655.65 1236.23 454.43 1464.72 470.48 1403.24 573.83 1246.72 686.25 1428.15 698.62
00003231 00000020 997.33 193.95 501.46 663.75 1236.45 453.82 1460.06 471.20 1400.24 573.26 1246.32 687.66 1424.54 700.95
00003232 00000021 995.75 192.08 502.97 670.70 1237.94 452.97 1459.61 471.87 1401.38 572.36 1246.70 688.27 1423.18 702.83
00003233 00000022 996.01 192.03 505.02 677.17 1239.90 451.10 1458.60 472.58 1400.81 572.67 1246.83 688.38 1421.96 705.17
00003234 00000023 994.81 190.83 508.10 682.08 1240.34 451.10 1456.87 472.11 1400.25 571.74 1248.43 691.64 1420.28 708.01
00003235 00000024 995.03 190.02 507.37 689.54 1241.18 451.48 1456.40 473.91 1401.50 571.41 1250.42 694.94 1421.40 712.29
00003236 00000025 992.60 191.56 510.41 691.93 1241.91 453.32 1454.30 473.50 1402.76 573.52 1250.69 695.72 1421.70 711.35
00003237 00000026 994.71 192.56 507.08 688.73 1240.84 454.16 1454.80 473.24 1401.78 573.58 1251.28 696.63 1422.04 711.15
00003238 00000027 993.53 188.95 508.87 692.57 1239.65 453.18 1455.34 472.20 1401.47 574.67 1250.28 698.10 1422.76 712.48
00003239 00000028 993.13 191.99 508.53 691.38 1237.36 454.51 1454.35 472.99 1400.05 576.37 1248.19 699.45 1422.88 713.34
00003240 00000029 992.73 192.26 510.97 689.51 1236.21 453.99 1456.29 473.63 1399.06 577.51 1244.15 697.85 1422.20 712.85
00003241 00000030 990.89 193.60 512.98 686.80 1234.68 452.91 1456.54 473.38 1398.02 576.81 1241.73 696.42 1420.50 712.24
00003242 00000031 989.76 192.33 512.51 687.79 1234.53 452.51 1454.90 473.00 1397.51 575.64 1242.35 695.28 1419.56 711.15
00003243 00000032 988.29 192.36 511.94 687.16 1233.39 454.04 1451.98 474.70 1395.63 574.48 1241.33 694.69 1417.29 710.52
00003244 00000033 988.85 194.57 508.69 685.77 1233.10 456.05 1447.81 474.99 1393.71 575.22 1241.70 695.10 1415.58 709.42
00003245 00000034 987.17 196.98 508.93 681.72 1232.11 454.83 1447.13 475.09 1392.48 574.84 1240.90 694.03 1413.44 709.62
00003246 00000035 982.92 192.82 509.46 684.57 1232.00 454.09 1444.01 475.18 1391.93 570.82 1242.13 693.05 1410.00 709.10
00003247 00000036 984.84 190.67 508.90 684.44 1233.09 454.69 1443.70 475.02 1391.02 569.45 1245.02 693.79 1409.84 709.20
00003248 00000037 982.51 191.55 508.95 684.18 1233.42 454.76 1439.99 475.04 1390.24 569.67 1245.00 693.07 1406.36 708.51
00003249 00000038 982.88 190.25 509.72 687.92 1234.58 454.06 1440.94 475.14 1391.96 571.17 1246.56 696.02 1406.76 712.30
00003250 00000039 982.72 191.81 512.22 686.71 1232.87 453.49 1441.88 473.44 1391.58 572.90 1246.39 698.23 1408.15 713.58
00003251 00000040 982.82 195.98 510.64 689.91 1233.86 454.56 1442.40 475.24 1393.41 576.93 1247.25 702.24 1410.98 718.13
00003252 00000041 985.23 195.08 508.04 690.05 1234.83 456.39 1443.77 476.74 1393.79 578.67 1247.38 701.62 1412.99 717.13
00003253 00000042 985.93 195.15 509.18 689.10 1234.98 458.22 1445.89 477.14 1395.25 580.36 1248.58 703.54 1416.59 717.91
00003254 00000043 985.78 194.17 508.14 687.48 1235.12 457.72 1446.94 475.74 1396.93 581.43 1250.89 703.84 1418.20 717.31
00003255 00000044 985.02 194.87 508.51 685.80 1233.28 457.12 1447.12 474.90 1395.86 580.98 1248.41 703.35 1418.09 716.53
00003256 00000045 984.07 195.29 509.09 682.84 1231.83 458.12 1447.12 474.28 1395.64 580.42 1248.22 703.93 1417.06 715.96
00003257 00000046 985.04 195.34 508.31 682.36 1232.01 458.62 1446.41 473.76 1394.71 580.65 1250.05 705.27 1417.14 716.39
00003258 00000047 983.37 196.79 508.67 681.39 1230.33 458.77 1444.87 473.50 1393.65 580.74 1249.51 705.85 1415.85 716.71
00003259 00000048 980.51 198.34 506.81 678.85 1230.60 459.01 1440.51 475.06 1392.20 581.09 1247.24 703.85 1411.64 716.05
00003260 00000049 978.06 200.10 509.01 674.75 1228.29 458.82 1438.01 474.90 1389.39 580.08 1247.23 703.68 1409.02 715.76
00003261 00000050 976.79 198.71 510.43 676.69 1225.81 458.42 1435.48 474.38 1385.09 580.54 1244.00 703.29 1405.39 715.17
00003262 00000051 975.69 198.60 512.05 680.23 1223.26 458.65 1432.42 475.49 1380.40 580.09 1240.82 704.63 1401.33 717.34
00003263 00000052 975.77 197.04 510.83 680.74 1223.76 458.76 1430.51 475.49 1379.67 578.05 1241.07 702.28 1400.17 714.78
00003264 00000053 972.05 197.28 511.53 679.54 1223.14 457.58 1427.73 475.46 1378.61 578.61 1239.45 700.43 1396.20 713.85
00003265 00000054 970.59 198.61 509.33 677.72 1221.28 458.28 1423.39 475.90 1375.61 577.80 1235.69 697.33 1391.93 710.25
00003266 00000055 969.83 197.50 511.54 676.58 1219.53 459.82 1420.64 476.20 1372.02 575.45 1234.16 695.26 1388.83 707.03
00003267 00000056 968.17 195.46 511.43 681.87 1220.21 459.30 1418.39 479.22 1370.42 575.38 1231.01 695.71 1382.54 710.57
00003268 00000057 966.14 196.57 513.51 682.40 1217.97 458.82 1417.99 479.90 1368.08 574.81 1228.96 695.79 1381.06 711.60
00003269 00000058 964.10 195.57 516.53 684.41 1216.45 455.88 1419.10 480.28 1366.42 575.37 1223.97 695.27 1378.36 713.90
00003270 00000059 960.23 194.47 520.36 686.61 1213.17 454.85 1418.13 479.12 1365.29 574.98 1219.05 694.86 1378.33 713.45
00003271 00000060 965.34 185.05 518.01 688.87 1206.08 456.29 1415.61 479.89 1361.77 574.22 1217.43 694.08 1380.84 713.65
00003272 00000061 964.79 184.91 518.36 689.03 1204.61 455.79 1414.61 480.19 1360.41 573.45 1215.27 693.68 1380.15 713.80
00003273 00000062 962.29 184.51 518.39 690.26 1201.42 453.89 1414.11 477.98 1359.11 572.82 1211.91 691.91 1380.51 711.62
00003274 00000063 959.46 184.63 517.60 687.04 1199.31 454.40 1414.55 477.81 1358.70 572.00 1210.65 690.72 1379.74 709.97
00003275 00000064 957.96 184.41 518.49 685.27 1197.62 454.80 1412.81 478.30 1356.40 569.53 1208.23 688.88 1377.61 708.32
00003276 00000065 956.91 182.73 519.12 685.13 1193.49 453.64 1412.16 477.35 1352.03 567.18 1203.73 687.41 1377.12 706.77
00003277 00000066 956.55 185.49 514.23 681.61 1193.44 455.54 1408.55 478.79 1351.28 566.59 1203.82 686.42 1375.04 705.52
00003278 00000067 954.44 183.32 507.90 683.09 1189.60 455.61 1406.23 475.24 1349.68 566.86 1201.89 687.26 1373.98 703.55
00003279 00000068 952.40 183.55 507.82 680.89 1185.61 456.64 1403.47 473.27 1345.96 566.71 1201.10 688.42 1373.26 702.18
00003280 00000069 949.23 185.55 510.88 680.07 1183.71 455.22 1402.62 471.28 1344.79 566.73 1199.55 688.35 1372.75 701.35
00003281 00000070 949.48 185.58 510.16 679.33 1182.01 453.31 1401.90 468.61 1342.83 566.79 1197.43 687.59 1370.70 699.86
00003282 00000071 948.08 182.67 509.24 681.60 1179.39 454.28 1398.49 468.82 1339.77 567.20 1197.32 688.74 1369.17 700.48
00003283 00000072 946.14 184.23 509.54 682.50 1179.21 455.05 1398.17 468.81 1340.47 567.74 1198.67 689.44 1369.61 700.54
00003284 00000073 948.06 183.99 508.15 682.15 1179.38 458.07 1397.58 470.79 1339.37 567.62 1199.73 690.45 1369.52 700.75
00003285 00000074 945.95 185.07 510.25 681.50 1179.19 460.01 1398.42 473.23 1340.82 568.71 1200.46 691.66 1371.48 702.27
00003286 00000075 946.39 184.55 509.26 680.19 1178.96 458.25 1399.18 470.54 1341.68 568.92 1201.84 692.40 1372.49 702.35
00003287 00000076 948.75 188.23 501.70 685.11 1188.40 453.08 1402.28 465.31 1347.15 576.36 1197.33 693.02 1371.84 702.08
00003288 00000077 946.06 185.02 509.24 684.65 1177.90 458.22 1399.93 468.29 1342.75 568.64 1203.58 694.15 1377.21 702.16
00003289 00000078 949.44 190.64 498.35 685.79 1187.81 454.02 1402.38 465.33 1347.20 577.88 1196.49 693.46 1375.70 701.68
00003290 00000079 952.51 192.27 496.39 679.11 1187.75 457.69 1403.15 466.25 1348.17 578.45 1200.49 695.09 1378.69 700.80
00003291 00000080 952.80 185.12 504.63 676.15 1180.55 464.35 1402.35 470.70 1345.50 570.25 1207.24 694.25 1380.65 699.36
00003292 00000081 950.60 185.54 508.98 679.89 1180.27 463.11 1403.47 472.34 1344.42 571.63 1207.41 696.30 1379.46 703.90
00003293 00000082 951.55 187.98 508.32 679.53 1181.38 463.67 1402.04 472.57 1343.07 571.34 1206.86 695.56 1377.46 702.94
00003294 00000083 952.54 187.36 509.06 679.36 1182.27 462.35 1403.07 473.78 1342.63 574.05 1203.80 695.98 1375.10 705.46
00003295 00000084 952.70 188.72 511.40 679.20 1182.94 462.22 1405.23 474.65 1343.26 574.58 1200.92 695.84 1374.57 706.24
00003296 00000085 952.00 185.52 512.03 681.95 1184.00 460.50 1405.64 475.16 1343.98 573.19 1198.07 692.28 1373.54 704.44
00003297 00000086 951.99 186.30 512.50 681.04 1183.60 460.81 1404.79 476.36 1342.50 572.86 1198.43 692.53 1372.09 705.41
00003298 00000087 953.18 188.58 509.01 679.70 1182.91 461.68 1404.98 476.04 1342.69 573.98 1196.77 693.41 1372.02 705.52
00003299 00000088 952.00 186.93 511.50 677.51 1183.77 459.44 1405.04 474.73 1343.10 572.27 1197.47 690.59 1371.42 703.39
00003300 00000089 952.01 185.88 511.11 680.07 1183.11 459.70 1404.05 474.53 1342.43 570.97 1196.78 690.70 1371.42 702.96
00003301 00000090 950.79 186.18 509.71 681.68 1182.80 460.30 1403.07 474.85 1342.98 570.67 1198.50 692.21 1372.31 704.20
00003302 00000091 951.38 185.73 509.78 680.99 1183.08 460.85 1403.39 474.81 1343.29 570.35 1199.37 692.43 1372.74 703.93
00003303 00000092 952.49 184.93 511.28 681.78 1183.37 461.37 1403.65 474.84 1342.92 570.81 1200.27 693.08 1373.25 704.11
00003304 00000093 953.56 183.92 508.79 681.47 1182.94 462.52 1402.55 474.32 1342.83 570.90 1202.53 693.05 1375.27 702.68
00003305 00000094 956.81 185.05 505.90 678.61 1184.23 462.62 1403.86 472.73 1344.62 570.62 1208.85 694.72 1379.28 703.13
00003306 00000095 955.86 186.53 505.43 681.23 1185.17 461.34 1403.88 473.39 1345.51 570.75 1210.17 695.23 1379.26 705.29
00003307 00000096 957.30 187.74 505.03 675.78 1187.06 462.27 1404.21 473.58 1346.97 570.70 1212.90 694.01 1380.06 703.50
00003308 00000097 958.60 189.40 504.91 665.28 1188.24 463.75 1405.53 474.75 1348.05 572.14 1214.82 692.15 1379.60 701.70
00003309 00000098 960.18 189.70 504.19 659.57 1188.49 465.31 1407.60 475.19 1349.25 574.37 1217.13 693.22 1381.41 702.00
00003310 00000099 960.91 187.88 506.57 659.99 1186.92 466.55 1409.06 474.05 1349.16 574.54 1214.73 693.64 1383.90 700.21
00003311 00000100 962.28 189.43 505.82 652.66 1188.48 465.73 1411.50 473.68 1351.34 574.77 1215.05 691.50 1384.38 698.63
00003312 00000101 962.14 188.56 504.56 652.72 1188.37 465.45 1411.30 474.53 1350.92 575.44 1213.15 690.37 1383.25 698.24
00003313 00000102 963.29 189.13 504.53 651.43 1188.78 465.51 1411.51 474.31 1351.31 575.19 1213.33 690.63 1383.58 698.36
00003314 00000103 961.70 188.13 504.80 650.72 1189.40 465.84 1412.35 474.31 1353.02 576.36 1213.54 690.94 1383.32 698.46
00003315 00000104 961.52 188.46 504.44 648.74 1189.08 466.01 1412.02 474.10 1352.49 577.23 1212.41 690.24 1382.51 697.41
00003316 00000105 961.57 189.28 504.32 647.75 1188.66 466.91 1411.84 474.10 1352.23 577.71 1212.10 690.41 1382.02 696.92
00003317 00000106 961.76 189.21 501.08 646.86 1185.71 469.09 1412.10 473.69 1352.16 580.13 1210.89 692.35 1384.93 696.55
00003318 00000107 961.62 191.60 503.28 641.61 1186.49 471.00 1412.62 473.63 1354.45 581.68 1214.59 693.77 1386.04 696.57
00003319 00000108 961.43 189.54 501.47 644.86 1184.62 471.22 1411.76 474.02 1352.13 583.93 1212.21 693.64 1386.87 696.09
00003320 00000109 960.95 190.14 502.28 644.69 1184.15 471.16 1411.31 472.60 1352.30 583.99 1212.07 694.94 1386.17 696.48
00003321 00000110 961.75 189.27 501.19 646.15 1183.28 472.01 1409.47 472.03 1350.72 585.32 1213.09 695.74 1385.85 696.13
00003322 00000111 960.36 192.13 500.80 642.06 1183.58 473.36 1408.66 471.54 1352.30 586.09 1215.37 696.47 1385.22 695.60
00003323 00000112 961.84 192.73 498.96 641.53 1184.52 474.23 1408.01 471.96 1352.46 586.04 1215.66 696.38 1384.69 695.26
00003324 00000113 961.45 192.22 499.27 642.87 1183.57 474.89 1407.87 472.54 1350.85 587.05 1214.75 697.08 1383.44 695.79
00003325 00000114 961.55 194.24 500.48 641.40 1183.69 473.55 1410.05 471.74 1351.50 586.29 1215.61 697.91 1384.32 697.03
00003326 00000115 961.65 192.98 498.93 643.42 1183.55 474.66 1409.48 472.50 1351.17 586.57 1215.36 698.51 1383.62 697.50
00003327 00000116 962.57 191.69 496.11 643.96 1183.39 473.56 1409.66 471.96 1351.10 586.84 1214.75 697.24 1384.47 696.56
00003328 00000117 962.01 191.12 498.90 642.77 1183.30 474.29 1406.70 471.84 1348.86 585.37 1215.75 696.61 1382.44 695.43
00003329 00000118 961.50 191.75 501.77 640.89 1183.55 474.78 1408.03 471.63 1349.36 586.58 1215.61 697.74 1382.71 696.02
00003330 00000119 961.17 193.59 500.47 640.74 1182.97 474.84 1408.23 472.26 1349.49 585.64 1214.88 698.41 1382.56 697.09
00003331 00000120 960.37 195.91 503.26 636.80 1182.87 475.19 1408.11 472.05 1349.43 586.70 1215.23 698.47 1381.09 696.89
00003332 00000121 959.64 195.00 504.47 637.66 1181.72 476.61 1406.95 472.76 1348.19 587.46 1214.37 698.18 1381.05 695.89
00003333 00000122 959.14 196.49 503.60 636.80 1180.48 475.50 1406.28 471.88 1346.64 587.04 1213.56 697.87 1380.31 695.70
00003334 00000123 958.71 195.22 501.88 640.56 1180.07 475.71 1404.55 471.99 1345.47 586.43 1213.20 697.79 1379.29 695.47
00003335 00000124 961.38 205.12 489.85 635.47 1183.74 464.89 1408.39 465.47 1343.48 591.99 1208.00 695.59 1381.32 694.37
00003336 00000125 959.60 195.67 500.92 639.30 1178.94 474.13 1407.03 473.02 1344.18 585.74 1210.81 697.83 1379.87 697.53
00003337 00000126 960.52 206.65 490.48 634.00 1182.92 466.17 1408.64 466.34 1343.27 593.17 1207.19 695.77 1381.03 694.33
00003338 00000127 959.49 206.53 493.23 635.09 1182.15 465.98 1409.23 465.88 1343.17 593.35 1206.37 696.78 1380.11 695.11
00003339 00000128 960.22 206.10 492.13 635.17 1184.27 467.53 1409.65 467.84 1344.20 594.56 1207.81 698.01 1379.44 696.71
00003340 00000129 960.67 209.05 491.01 633.69 1183.39 467.25 1408.79 467.16 1344.09 595.35 1207.16 698.91 1379.70 697.28
00003341 00000130 959.21 210.14 492.75 631.92 1182.74 467.04 1408.60 466.94 1343.33 595.01 1206.45 698.09 1379.19 696.43
00003342 00000131 957.06 208.87 493.53 636.01 1181.97 467.13 1406.49 468.02 1342.33 594.43 1204.46 698.73 1377.22 698.11
00003343 00000132 956.21 210.86 491.51 635.04 1179.72 467.39 1407.31 466.53 1342.21 596.28 1201.61 700.38 1376.44 698.51
00003344 00000133 955.05 210.53 491.94 634.82 1179.57 467.94 1404.56 468.91 1339.63 594.80 1199.99 698.20 1373.99 697.82
CROP_BBOX: 753 0 1738 1026
