Video ID: 	wFQsUOImpIw
H: 	1080
W: 	1920
FPS: 	25.0

FRAME INDEX X0 Y0 W H [Landmarks (5 Points)]

00024227 00000000 585.71 231.79 415.53 618.71 802.33 474.20 960.92 457.08 962.61 597.49 808.60 701.34 935.17 689.56
00024228 DELETE   592.79 227.29 415.26 620.44 807.32 468.63 968.06 446.65 971.93 594.37 817.67 702.46 942.20 686.50
00024229 00000002 597.59 219.14 414.13 631.70 810.92 464.17 971.32 442.10 974.26 591.71 825.00 704.81 945.46 688.41
00024230 00000003 599.52 220.49 414.25 632.06 812.59 464.19 972.62 440.59 976.04 591.95 829.61 707.31 947.78 689.65
00024231 00000004 602.59 236.07 419.69 618.36 825.05 461.00 977.50 446.13 979.90 590.71 834.87 703.88 948.87 694.15
00024232 00000005 601.98 232.82 421.54 626.68 826.10 460.05 979.13 449.25 980.82 591.09 833.87 705.37 948.31 699.04
00024233 00000006 600.58 238.75 423.73 620.02 825.29 460.44 980.24 447.85 981.33 592.58 833.68 705.17 949.08 697.29
00024234 00000007 602.52 244.26 423.14 606.77 828.69 461.29 983.80 447.25 985.52 593.23 835.00 700.29 952.96 691.51
00024235 00000008 606.60 240.48 419.58 610.05 831.98 461.86 983.34 447.93 986.53 591.83 850.18 705.95 959.61 696.57
00024236 00000009 609.20 242.53 417.40 608.76 834.18 462.83 983.88 447.21 988.96 593.11 854.33 708.01 962.21 697.35
00024237 00000010 610.20 242.04 418.37 610.43 833.79 463.42 984.32 446.97 989.00 593.62 851.16 707.15 962.30 696.03
00024238 00000011 611.71 244.87 417.77 611.36 835.77 462.49 983.75 448.70 989.32 595.17 844.65 706.10 955.10 697.89
00024239 00000012 611.58 244.58 418.68 615.54 839.73 462.78 984.63 452.01 992.03 597.44 843.01 706.47 951.79 701.13
00024240 00000013 612.65 240.17 419.99 619.80 840.26 464.34 986.96 452.98 993.90 599.72 841.03 706.83 951.89 701.54
00024241 00000014 612.93 246.13 421.04 614.30 838.51 464.83 987.70 453.39 992.59 600.83 840.27 707.96 953.01 702.28
00024242 00000015 612.27 243.17 421.78 615.75 836.21 465.90 987.84 453.81 991.52 600.46 838.27 707.30 953.93 701.05
00024243 00000016 611.25 244.33 421.84 613.21 834.51 467.07 987.48 455.30 989.20 600.10 837.46 706.70 953.56 700.42
00024244 00000017 611.35 240.07 423.29 618.48 833.58 465.63 988.23 453.22 989.53 599.88 835.11 706.12 953.66 699.47
00024245 00000018 610.15 245.56 423.98 615.21 833.38 463.95 987.19 452.23 989.70 598.15 833.16 705.03 951.44 699.03
00024246 00000019 610.75 244.76 422.77 614.29 834.84 461.63 987.34 453.90 988.67 596.70 832.70 702.90 949.22 700.23
00024247 00000020 610.19 241.82 423.14 612.85 834.28 462.78 988.36 454.03 988.03 597.63 833.04 701.64 950.22 698.13
00024248 00000021 608.32 243.21 423.70 607.73 832.98 465.41 988.28 454.27 989.01 598.37 831.32 699.20 952.58 693.68
00024249 00000022 610.03 245.30 423.05 610.19 834.45 464.71 987.67 453.86 988.75 598.08 832.62 700.73 952.15 695.47
00024250 00000023 610.49 246.60 421.95 614.34 832.87 464.10 985.86 454.39 988.29 598.94 830.86 705.08 948.40 700.99
00024251 00000024 610.21 247.80 422.12 614.44 832.67 464.13 985.10 453.88 988.23 598.44 830.36 705.30 948.20 700.77
00024252 00000025 611.11 245.71 421.48 616.16 832.78 465.23 985.01 454.48 988.55 599.27 829.74 705.74 947.76 701.02
00024253 00000026 613.44 244.64 419.41 613.34 832.43 465.94 986.78 453.98 988.47 599.57 832.35 705.33 951.21 699.50
00024254 00000027 614.74 242.83 419.44 614.63 833.57 466.38 988.92 453.17 990.00 600.18 835.58 706.34 954.00 699.25
00024255 00000028 617.15 241.56 419.30 616.92 836.49 464.40 992.24 451.10 993.41 600.36 837.43 706.34 957.49 699.38
00024256 00000029 617.74 238.00 419.42 621.95 840.62 462.59 993.36 451.95 994.11 600.09 840.83 705.64 957.57 700.73
00024257 00000030 622.48 237.85 414.29 618.60 842.65 473.62 996.51 464.46 993.21 601.85 851.78 706.66 969.33 701.62
00024258 00000031 623.47 235.41 413.78 617.10 843.53 475.21 997.11 462.99 995.84 601.38 856.15 706.32 973.30 698.72
00024259 00000032 622.45 229.11 416.02 622.37 842.63 470.33 996.70 458.61 994.47 599.95 855.53 705.95 972.22 698.75
00024260 00000033 623.48 235.40 413.97 615.41 842.90 467.88 996.05 457.07 994.76 597.07 856.34 704.89 971.95 698.56
00024261 00000034 621.88 236.42 415.61 613.57 842.47 467.25 995.91 455.59 995.73 597.04 854.65 703.55 971.56 696.76
00024262 00000035 621.96 241.00 417.68 614.32 841.14 468.28 998.68 456.01 995.24 600.47 848.65 705.34 971.34 698.28
00024263 00000036 620.20 246.43 420.61 617.55 839.79 468.56 994.95 457.82 992.66 604.89 846.44 716.50 962.31 710.71
00024264 00000037 620.86 264.04 418.98 609.52 837.97 472.36 995.22 460.84 993.16 609.02 841.07 721.19 962.18 714.58
00024265 00000038 619.25 275.07 423.73 601.66 838.87 474.52 996.18 461.36 995.88 614.21 834.26 722.24 958.73 714.82
00024266 00000039 617.23 276.66 424.55 597.98 837.06 476.03 993.46 460.46 994.55 615.41 832.89 722.88 955.10 713.82
00024267 00000040 613.67 278.61 424.45 591.32 833.93 474.09 990.60 460.14 991.65 611.56 829.66 719.60 950.46 712.03
00024268 00000041 611.77 269.85 421.85 597.82 832.77 470.51 988.04 461.39 989.43 606.40 826.57 715.03 945.41 711.48
00024269 00000042 606.60 263.62 422.31 603.58 831.03 468.68 984.54 463.65 986.57 603.60 827.58 714.07 941.77 713.25
00024270 00000043 603.96 256.80 422.47 611.96 829.57 468.56 980.06 463.75 985.11 602.10 825.95 713.92 938.23 713.28
00024271 00000044 601.58 256.63 422.11 614.99 826.63 469.91 978.04 464.81 983.37 603.52 823.68 715.61 936.23 714.47
00024272 00000045 598.59 262.78 423.56 613.26 822.86 472.52 974.98 465.76 981.01 606.68 821.48 718.37 935.11 715.42
00024273 00000046 599.34 261.44 422.66 618.97 817.99 477.26 972.76 470.38 973.31 611.70 816.15 722.00 933.75 718.32
00024274 00000047 592.28 260.76 429.74 615.24 815.82 486.40 972.05 484.07 970.49 617.61 809.87 721.33 927.60 721.54
00024275 00000048 587.13 254.11 431.79 624.12 813.11 485.39 968.15 488.39 959.41 619.29 802.91 721.18 918.58 725.66
00024276 00000049 580.55 255.00 427.55 628.09 807.63 479.71 960.42 485.96 944.47 618.86 790.73 719.80 907.41 726.66
00024277 00000050 576.83 262.78 427.55 619.83 803.29 476.78 956.77 480.59 938.21 622.02 786.26 721.23 901.11 726.07
00024278 00000051 576.89 263.61 422.76 609.80 798.02 478.14 951.98 478.70 943.41 625.23 776.04 711.07 908.01 715.23
00024279 00000052 571.71 264.67 421.91 606.55 794.55 478.05 946.06 477.89 941.37 624.35 770.96 707.90 901.61 711.75
00024280 00000053 569.35 263.42 419.91 605.18 791.71 475.97 942.82 476.42 939.57 621.44 767.68 705.20 897.44 709.81
00024281 00000054 565.92 246.28 420.44 619.03 792.53 472.25 940.70 473.68 941.38 616.88 770.61 704.09 895.39 710.13
00024282 00000055 569.32 235.69 415.13 618.04 793.06 470.06 942.94 472.33 943.72 613.32 775.92 698.92 899.41 705.98
00024283 00000056 568.26 231.81 410.07 623.37 792.30 465.20 943.70 453.23 951.86 607.12 783.34 702.20 904.23 696.56
00024284 00000057 569.38 230.06 409.36 624.20 791.57 459.46 943.21 448.96 950.94 598.45 786.14 698.42 906.89 693.58
00024285 00000058 569.45 236.71 415.71 611.48 791.74 455.23 941.56 456.86 944.65 593.96 785.96 691.37 904.88 697.24
00024286 00000059 571.62 232.87 409.44 609.32 793.85 452.83 943.98 442.34 955.50 589.48 791.16 689.05 910.22 683.96
00024287 00000060 571.60 232.11 411.98 611.13 794.55 453.91 943.04 439.34 957.88 589.44 792.94 689.09 912.58 680.87
00024288 00000061 577.57 233.98 411.55 612.87 796.50 456.21 949.54 440.87 960.80 593.74 795.39 692.37 920.34 683.36
00024289 00000062 581.14 230.19 412.74 618.90 798.52 461.40 953.35 440.59 966.27 592.81 812.98 705.49 928.37 690.77
00024290 00000063 585.59 225.42 411.41 627.35 804.94 466.52 960.70 440.55 973.82 595.70 821.53 710.21 936.18 691.25
00024291 00000064 587.00 223.20 416.45 624.95 820.92 473.84 965.59 455.73 975.39 597.58 822.40 700.62 940.68 689.37
00024292 00000065 590.62 236.04 422.08 623.32 822.56 469.31 967.46 464.00 975.20 593.57 825.87 700.64 936.86 698.77
00024293 00000066 595.48 213.10 413.87 647.58 817.46 475.66 962.58 457.11 977.84 596.55 810.51 702.36 934.09 691.68
00024294 00000067 596.27 222.13 412.68 636.29 821.22 472.44 965.18 456.42 980.01 599.26 813.49 702.85 934.74 694.22
00024295 00000068 599.96 239.54 415.60 624.66 825.75 463.69 969.84 455.11 982.61 595.19 828.14 706.74 935.63 702.76
00024296 00000069 602.59 241.95 419.53 624.98 828.69 463.86 976.54 454.46 985.84 597.17 827.88 708.92 940.48 704.48
00024297 00000070 606.88 247.35 421.62 617.33 833.46 464.60 983.15 456.53 989.44 598.94 830.84 709.20 944.96 706.47
00024298 00000071 612.63 243.67 421.33 621.94 836.79 468.58 986.59 459.49 992.66 604.46 830.44 710.81 946.47 707.89
00024299 00000072 613.51 243.67 424.39 622.82 840.86 468.82 991.66 458.91 998.19 605.79 833.92 710.45 953.06 706.80
00024300 00000073 618.92 239.03 424.34 630.22 847.93 471.05 995.78 461.38 1003.90 608.81 838.44 710.91 957.13 707.62
00024301 00000074 622.31 239.67 423.23 629.28 850.91 471.96 1000.04 462.65 1008.39 608.81 841.86 709.28 963.74 706.17
00024302 00000075 626.44 240.17 422.00 626.33 853.17 471.65 1003.95 464.24 1010.88 608.03 844.37 709.05 967.68 707.31
00024303 00000076 631.12 242.82 418.41 622.93 857.97 471.27 1006.85 464.69 1015.36 608.27 848.32 709.48 969.48 708.40
00024304 00000077 633.39 247.69 418.30 618.39 859.27 472.84 1008.01 465.24 1017.32 610.91 847.06 709.47 969.93 707.76
00024305 00000078 634.45 249.89 419.34 615.93 861.18 473.01 1010.02 464.74 1018.90 612.50 847.98 709.53 971.09 707.12
00024306 00000079 634.71 247.11 420.50 620.19 861.66 472.54 1010.72 464.54 1019.35 612.32 848.43 709.76 971.87 707.60
00024307 00000080 635.26 251.61 420.39 615.88 860.81 473.10 1010.81 465.22 1018.15 613.17 847.99 710.94 971.75 708.59
00024308 00000081 632.94 250.79 422.77 616.24 859.42 472.96 1010.79 464.93 1016.52 613.79 847.17 710.93 971.72 708.50
00024309 00000082 631.44 255.88 422.22 609.37 856.89 473.75 1009.59 465.90 1014.61 613.20 845.68 709.98 971.23 707.71
00024310 00000083 629.15 253.50 423.42 609.81 855.26 474.97 1007.81 467.28 1012.29 614.92 843.30 709.82 968.33 708.07
00024311 00000084 628.06 250.85 425.52 611.32 852.99 476.31 1008.17 468.14 1010.35 617.32 840.63 709.75 967.72 707.62
00024312 00000085 625.68 244.02 425.19 617.25 855.12 485.54 1008.36 482.72 1007.08 619.57 840.78 710.10 966.57 712.16
00024313 00000086 623.95 246.36 424.97 615.86 853.92 485.09 1005.36 480.48 1006.50 619.67 840.35 711.91 963.33 712.43
00024314 00000087 621.49 253.92 426.00 610.02 849.59 481.98 1002.03 472.91 1004.09 619.97 837.66 714.42 960.05 711.37
00024315 00000088 624.19 257.31 422.53 606.49 846.54 480.29 1000.55 468.99 1001.30 619.22 836.66 715.82 959.31 710.89
00024316 00000089 623.27 256.38 423.07 608.57 845.28 479.38 1000.31 469.25 1000.44 619.31 835.14 716.51 957.86 712.57
00024317 00000090 622.40 258.30 423.33 606.33 845.00 479.35 999.38 467.92 1001.21 620.27 835.26 717.82 956.75 712.95
00024318 00000091 623.14 257.93 423.18 606.74 844.94 479.24 999.05 467.97 1001.71 620.31 835.21 718.06 956.13 713.34
00024319 00000092 623.40 259.36 423.00 605.25 843.90 479.43 999.62 468.08 1001.17 620.32 835.37 718.80 957.03 714.00
00024320 00000093 622.49 260.61 423.18 604.46 843.48 479.05 998.91 467.81 1000.83 620.23 834.90 719.09 956.19 714.35
00024321 00000094 622.00 258.48 423.60 606.36 843.23 479.02 998.57 467.28 1000.38 620.18 835.01 719.05 955.96 713.82
00024322 00000095 622.09 258.73 423.38 607.17 843.04 479.37 998.74 467.30 1000.92 619.85 835.57 719.11 956.94 713.45
00024323 00000096 622.01 259.82 423.34 606.29 843.97 479.32 998.51 466.89 1002.10 619.42 836.03 718.09 957.54 712.19
00024324 00000097 622.23 261.97 423.54 604.56 843.97 478.97 999.06 467.14 1001.96 619.18 835.62 717.87 957.69 712.43
00024325 00000098 622.11 263.20 424.22 603.22 844.63 478.79 999.66 466.82 1002.43 619.49 836.26 718.17 958.33 712.59
00024326 00000099 622.18 262.12 424.04 604.39 844.28 478.81 1000.21 466.99 1002.22 619.63 836.27 718.67 958.84 713.15
00024327 00000100 621.93 262.49 424.54 604.38 843.80 478.87 1000.06 467.16 1002.02 619.72 836.12 718.86 958.98 713.38
00024328 00000101 622.19 261.54 424.00 605.49 843.30 478.80 1000.20 466.90 1001.91 619.58 835.85 718.55 959.54 712.87
00024329 00000102 622.41 261.47 423.50 605.03 843.65 479.83 1000.54 467.54 1002.21 620.51 836.12 718.68 959.93 712.68
00024330 00000103 622.90 262.45 423.23 603.84 842.99 479.81 1000.15 467.50 1001.55 620.70 835.76 718.74 959.93 712.68
00024331 00000104 622.61 263.22 423.23 602.65 842.75 479.89 999.72 467.56 1000.85 620.89 836.31 719.15 959.54 712.96
00024332 00000105 621.40 265.36 423.79 600.34 842.40 479.81 1000.09 467.26 1000.63 620.92 835.80 718.82 960.19 712.55
00024333 00000106 621.23 263.85 423.21 601.18 842.33 480.72 998.67 466.77 1000.63 620.82 834.93 718.80 958.37 711.63
00024334 00000107 620.52 266.99 423.92 599.42 840.90 480.64 998.18 466.64 998.89 620.92 833.95 719.48 957.86 712.14
00024335 00000108 619.60 268.85 423.61 597.63 839.98 480.74 996.78 467.64 997.56 621.19 832.73 719.37 956.00 712.73
00024336 00000109 619.94 268.13 422.01 595.29 838.38 480.93 995.54 467.97 994.99 620.75 832.57 719.88 954.80 713.34
00024337 00000110 610.75 270.68 428.31 595.91 825.34 481.77 989.44 464.12 985.03 622.87 822.44 721.89 949.67 711.49
00024338 00000111 601.29 265.55 430.14 606.82 811.41 482.84 983.35 471.96 968.92 622.36 806.54 726.53 939.72 720.66
00024339 DELETE   586.95 269.10 434.20 605.32 794.20 485.65 969.17 478.16 939.49 625.94 787.46 726.04 922.77 721.94
00024340 00000113 566.90 254.67 445.94 616.24 774.34 488.75 953.23 473.70 919.88 630.43 775.80 724.26 912.09 716.90
00024341 DELETE   559.90 260.03 441.94 610.48 753.50 489.97 937.75 477.38 898.98 632.24 750.65 716.02 903.09 710.72
00024342 00000115 556.64 267.31 440.69 592.09 731.77 485.16 928.21 469.59 882.21 632.70 736.96 713.84 902.65 703.50
00024343 00000116 549.02 262.12 443.00 612.23 726.17 485.27 920.81 474.12 872.07 634.63 729.85 718.65 890.36 711.45
00024344 00000117 548.41 266.96 442.39 609.43 725.39 486.63 920.58 474.86 871.60 636.65 733.62 724.21 891.88 716.11
00024345 00000118 555.75 263.80 438.12 602.85 735.07 489.85 926.98 473.85 883.54 636.39 751.26 726.70 902.43 714.89
00024346 00000119 562.53 267.22 436.94 603.42 747.24 489.67 933.92 471.70 899.45 630.41 759.94 723.08 914.19 709.64
00024347 00000120 574.52 255.63 430.26 625.81 776.75 476.75 948.81 474.09 910.32 618.03 777.76 716.97 908.74 715.21
00024348 00000121 582.86 259.55 427.10 616.79 793.13 478.39 961.59 468.96 935.07 616.14 787.33 713.88 924.42 707.76
00024349 00000122 589.85 251.22 419.33 621.51 800.23 475.10 966.70 463.88 951.49 606.72 797.49 712.53 933.26 705.24
00024350 DELETE   591.91 249.26 424.39 622.16 805.18 473.94 972.81 461.98 961.22 603.22 803.72 711.65 940.53 703.79
00024351 00000124 594.14 248.24 425.14 623.15 810.05 470.75 977.00 460.27 965.39 602.17 809.95 712.82 942.46 706.27
00024352 00000125 596.62 250.78 425.12 623.20 811.00 470.15 977.81 460.74 967.01 604.07 808.56 714.35 940.88 708.89
CROP_BBOX: 313 0 1273 1020
