Video ID: 	rXu4JYPS-TQ
H: 	1080
W: 	1920
FPS: 	25.0

FRAME INDEX X0 Y0 W H [Landmarks (5 Points)]

00028500 00000000 731.97 115.76 431.74 594.70 839.08 380.73 1013.21 346.26 938.87 481.80 906.69 580.81 1044.61 553.20
00028501 00000001 730.74 116.23 433.33 598.09 838.34 380.94 1012.59 346.86 937.91 482.70 905.34 580.33 1045.86 553.03
00028502 00000002 730.43 117.73 430.44 594.20 836.09 380.38 1011.62 346.26 935.70 481.23 901.42 578.84 1043.13 551.72
00028503 00000003 730.81 114.05 428.92 593.19 834.82 379.28 1011.66 344.43 935.12 478.84 899.99 577.03 1043.32 549.12
00028504 00000004 729.76 115.10 429.64 592.00 834.84 378.58 1012.54 342.25 937.09 476.86 902.01 576.96 1046.01 547.69
00028505 00000005 731.00 116.46 431.72 589.78 837.76 379.83 1014.00 342.91 939.46 477.85 906.92 577.38 1049.07 547.56
00028506 00000006 733.23 125.52 434.51 585.56 841.79 383.04 1018.06 346.13 944.35 487.86 913.07 581.22 1053.74 551.37
00028507 00000007 734.72 126.58 437.35 587.56 845.07 386.35 1023.78 350.01 949.46 493.56 918.52 586.43 1058.49 556.97
00028508 00000008 735.68 129.66 437.26 590.30 847.57 389.10 1026.54 354.03 952.55 497.11 920.18 589.35 1059.55 561.09
00028509 00000009 736.72 132.51 434.83 587.92 850.67 394.98 1030.44 358.92 958.38 501.96 921.78 593.18 1062.09 564.33
00028510 00000010 738.01 124.56 435.07 601.04 850.60 400.94 1033.43 363.42 961.09 509.38 921.05 600.12 1063.56 570.22
00028511 00000011 738.14 129.18 434.98 602.66 852.78 406.02 1035.00 371.21 961.65 515.58 921.94 603.98 1062.76 576.08
00028512 00000012 747.32 137.00 427.45 603.42 858.79 410.79 1039.34 380.03 968.26 520.33 918.25 613.45 1062.06 588.40
00028513 DELETE   756.37 136.59 428.17 603.51 870.42 400.93 1054.33 377.73 980.48 512.92 922.50 608.83 1064.55 589.48
00028514 DELETE   771.23 118.36 424.40 615.92 889.72 393.45 1071.21 377.14 992.66 507.26 930.87 600.04 1070.97 587.22
00028515 DELETE   779.67 117.30 425.46 620.07 902.84 391.04 1082.54 377.80 1003.25 506.32 941.95 600.91 1079.37 589.95
00028516 00000016 798.14 107.87 418.51 624.11 911.54 390.51 1095.51 377.82 1011.62 498.00 946.20 591.91 1090.51 583.29
00028517 00000017 803.03 108.23 416.68 615.65 916.44 387.04 1101.78 374.53 1019.14 496.03 951.61 587.79 1098.05 579.42
00028518 00000018 802.54 107.61 418.30 613.84 917.95 381.60 1103.51 369.35 1021.30 491.26 953.53 584.17 1099.12 576.03
00028519 00000019 801.08 110.54 417.86 608.13 915.76 380.02 1100.64 367.89 1016.85 489.01 951.17 582.58 1095.83 574.51
00028520 00000020 799.73 108.47 417.85 609.11 913.36 378.64 1098.39 366.54 1013.37 487.28 947.99 582.70 1093.42 574.59
00028521 00000021 787.20 116.07 421.17 602.06 909.54 383.11 1085.41 368.93 1006.74 490.97 949.95 587.85 1084.24 575.75
00028522 00000022 786.68 120.73 419.69 600.58 908.12 384.63 1082.60 368.46 1006.33 490.21 950.62 589.58 1083.96 575.91
00028523 00000023 782.01 116.25 423.33 600.40 904.44 384.51 1080.97 368.04 1003.18 490.37 948.28 589.26 1080.87 575.38
00028524 00000024 779.31 115.39 423.60 596.35 901.67 380.29 1077.99 363.65 1000.66 488.77 946.37 584.59 1078.41 570.62
00028525 00000025 779.28 112.33 421.92 594.15 900.07 377.84 1076.93 361.45 999.06 485.00 945.40 581.44 1076.79 567.77
00028526 00000026 779.18 112.22 421.53 593.57 899.64 377.96 1076.25 360.20 999.56 484.19 946.31 581.64 1077.15 566.89
00028527 00000027 778.24 113.67 421.42 594.33 899.46 380.07 1074.67 361.96 999.26 486.91 947.14 583.90 1076.61 569.08
00028528 00000028 779.82 111.20 419.72 605.65 898.92 383.19 1070.58 364.49 997.27 490.89 948.88 589.02 1076.25 573.72
00028529 00000029 780.47 113.57 415.79 606.33 897.62 385.18 1069.30 367.06 995.41 493.21 946.31 591.77 1074.34 577.06
00028530 00000030 778.45 115.82 416.49 600.67 895.97 385.89 1068.65 367.73 994.60 492.67 944.74 590.13 1073.04 575.57
00028531 00000031 775.34 118.33 418.51 591.22 891.44 384.14 1064.04 363.52 990.46 489.76 943.34 586.81 1070.30 570.35
00028532 00000032 772.72 116.03 422.12 589.21 889.98 381.00 1064.51 359.34 989.61 484.58 941.63 582.31 1070.97 564.72
00028533 00000033 773.11 115.77 422.25 587.17 890.36 380.21 1064.69 357.91 990.56 483.20 942.76 581.02 1071.60 562.79
00028534 00000034 776.32 113.98 419.22 588.80 891.37 380.67 1065.59 359.04 990.99 486.07 943.30 583.05 1071.91 565.45
00028535 00000035 777.83 114.06 415.80 589.28 891.68 384.18 1067.09 364.05 990.90 489.40 941.35 584.78 1071.45 568.33
00028536 00000036 776.13 110.91 411.48 592.64 893.76 387.60 1067.22 368.00 994.41 488.74 941.36 584.75 1069.74 568.78
00028537 00000037 778.46 113.46 410.77 588.25 895.07 389.05 1068.48 370.87 994.26 491.48 941.69 584.55 1069.16 569.80
00028538 00000038 780.88 112.07 411.14 591.16 896.83 388.86 1072.07 373.18 994.23 493.87 939.81 586.08 1068.90 573.29
00028539 00000039 785.92 114.00 411.63 600.01 898.66 388.96 1074.19 376.80 992.50 499.87 938.41 593.19 1067.41 583.70
00028540 00000040 792.67 123.11 410.28 599.66 907.18 389.80 1081.95 380.46 999.21 505.49 944.26 599.43 1071.23 592.41
00028541 00000041 810.43 121.84 407.14 603.66 915.09 395.79 1099.41 388.76 1009.46 507.15 942.41 598.57 1079.24 595.11
00028542 00000042 815.00 134.24 406.51 593.19 922.21 399.75 1109.30 394.48 1018.33 514.96 949.37 602.43 1085.88 600.25
00028543 00000043 819.30 137.70 407.56 598.09 926.95 405.10 1116.92 399.04 1024.16 521.92 955.38 608.65 1095.03 605.30
00028544 00000044 819.07 145.18 408.52 598.85 928.64 401.04 1116.05 396.66 1031.14 529.18 959.69 618.60 1093.95 616.01
00028545 00000045 820.64 149.21 409.24 595.93 933.43 406.11 1121.51 403.84 1035.69 535.17 960.46 620.43 1098.07 619.62
00028546 00000046 822.36 149.72 410.02 594.57 935.31 407.78 1123.62 404.43 1037.98 538.06 961.29 621.49 1102.25 619.62
00028547 00000047 821.53 147.96 409.50 595.18 933.82 405.96 1122.43 403.19 1035.93 534.71 960.37 619.28 1099.62 618.01
00028548 00000048 818.48 143.71 410.29 598.72 927.72 402.56 1116.19 396.89 1030.97 530.68 959.69 616.77 1097.73 612.99
00028549 00000049 820.43 139.71 410.37 600.15 927.34 403.95 1115.88 398.14 1024.37 522.93 958.74 609.00 1096.93 605.67
00028550 00000050 818.31 132.78 411.34 602.83 926.99 401.66 1116.87 394.87 1026.15 520.73 958.07 606.22 1098.26 602.16
00028551 00000051 815.25 127.79 409.33 602.26 922.17 397.64 1109.70 391.25 1019.42 513.93 950.92 600.97 1090.00 597.62
00028552 00000052 809.57 124.16 408.70 602.97 916.02 393.26 1101.50 386.73 1012.83 506.24 944.10 596.41 1082.89 593.27
00028553 00000053 806.17 114.68 409.73 610.28 914.36 388.88 1098.93 381.44 1012.29 501.95 945.79 592.42 1085.81 588.39
00028554 00000054 804.60 109.21 409.40 609.65 912.79 384.57 1094.27 375.36 1009.56 494.73 945.20 587.33 1083.34 581.77
00028555 00000055 793.19 117.66 412.13 591.44 909.99 383.96 1081.98 372.85 1001.69 492.49 945.84 585.49 1074.07 576.45
00028556 00000056 791.12 115.16 414.17 590.06 909.15 381.26 1083.47 369.68 1002.89 489.33 942.42 578.51 1077.34 568.66
00028557 00000057 791.14 112.55 415.20 594.59 907.55 375.78 1084.66 362.32 1004.10 482.45 943.29 576.74 1081.59 565.09
00028558 00000058 791.62 108.39 415.01 590.83 906.46 370.36 1084.90 354.94 1005.05 476.92 946.72 573.40 1083.86 560.25
00028559 00000059 792.67 106.71 413.13 584.33 906.60 365.76 1085.45 348.46 1006.78 470.73 948.42 569.35 1083.96 554.84
00028560 00000060 792.65 98.32 414.31 587.92 907.08 361.11 1087.08 342.10 1008.83 466.37 950.42 565.91 1086.64 550.10
00028561 00000061 790.08 92.42 419.15 588.99 906.52 355.63 1088.49 335.04 1010.49 457.97 950.61 559.86 1089.78 542.55
00028562 00000062 787.87 87.49 422.92 587.68 906.20 350.75 1087.79 330.96 1011.07 451.86 951.99 553.39 1090.46 536.33
00028563 00000063 787.74 79.78 421.59 591.68 905.44 347.43 1086.90 328.40 1011.28 448.72 950.34 548.94 1090.34 532.34
00028564 00000064 787.51 78.95 421.45 589.07 903.74 343.85 1086.65 324.92 1009.18 446.02 949.08 545.86 1090.32 529.17
00028565 00000065 787.92 81.31 421.40 590.31 904.62 344.27 1085.34 323.45 1010.62 445.53 952.18 547.25 1091.23 529.19
00028566 00000066 785.48 85.34 424.59 589.48 902.38 343.72 1084.63 322.30 1008.85 445.63 951.46 550.63 1089.73 532.19
00028567 00000067 782.58 78.72 423.09 595.89 899.97 344.22 1082.62 324.82 1006.20 448.77 947.86 551.23 1085.31 534.28
00028568 00000068 777.98 78.81 424.90 596.41 897.76 345.05 1080.50 325.45 1004.52 449.19 946.49 552.21 1082.68 535.43
00028569 00000069 775.86 83.73 425.15 592.60 893.95 346.00 1076.46 324.68 1001.14 450.18 944.90 553.14 1081.09 535.11
00028570 00000070 773.62 90.35 422.43 584.57 891.68 347.94 1071.74 326.90 997.44 451.53 942.95 551.96 1077.89 534.11
00028571 00000071 770.05 95.05 424.24 581.76 889.81 349.30 1069.82 327.96 995.66 451.59 942.40 552.92 1076.92 534.71
00028572 00000072 765.67 98.34 429.75 584.47 887.24 349.76 1065.75 325.78 993.48 452.59 942.20 553.93 1076.11 533.29
00028573 00000073 763.79 96.62 428.34 588.33 884.05 350.06 1059.31 323.87 988.92 451.32 940.99 553.16 1074.45 530.56
00028574 00000074 761.02 100.18 428.07 583.52 880.96 350.76 1056.76 322.28 987.45 450.43 940.35 553.80 1075.07 529.29
00028575 00000075 758.29 94.66 427.57 587.66 877.70 351.01 1053.74 323.06 984.64 448.47 936.14 551.54 1073.70 527.51
00028576 00000076 755.07 96.41 423.96 585.76 871.76 348.63 1048.17 320.75 978.68 446.74 928.34 549.44 1068.64 525.83
00028577 00000077 750.09 94.54 425.94 587.28 868.08 346.40 1044.86 318.77 976.31 445.82 924.50 546.99 1066.97 523.62
00028578 00000078 748.29 90.39 424.45 590.40 865.40 345.67 1040.32 315.68 974.19 444.58 924.27 547.44 1063.87 522.54
00028579 00000079 742.78 91.99 429.31 589.98 861.29 345.28 1038.65 313.96 971.04 443.40 922.52 547.74 1064.36 521.60
00028580 00000080 741.11 90.90 431.31 594.36 860.75 345.32 1036.59 314.97 968.40 443.48 922.61 548.84 1060.19 523.54
00028581 00000081 740.11 92.77 432.88 590.81 858.66 345.64 1035.39 315.32 965.43 443.75 920.48 549.82 1057.55 524.75
00028582 00000082 737.36 91.47 434.25 590.27 857.43 346.25 1033.09 317.66 962.45 444.19 916.85 548.94 1052.47 525.65
00028583 00000083 736.46 92.96 433.12 586.72 856.51 346.74 1031.18 317.51 961.22 444.38 915.89 548.78 1049.45 525.35
00028584 00000084 736.51 89.64 434.62 589.40 855.88 346.70 1029.25 317.03 960.21 444.97 914.75 547.08 1048.99 523.10
00028585 00000085 737.09 88.63 433.51 587.28 854.53 346.01 1025.96 314.44 958.37 442.07 913.13 544.58 1048.17 519.34
00028586 00000086 735.82 85.80 434.95 585.24 853.84 341.39 1026.68 309.90 958.80 435.89 911.90 539.03 1049.30 513.78
00028587 00000087 737.98 84.79 432.91 582.12 851.83 332.08 1025.92 302.18 956.42 427.77 910.43 533.68 1045.74 509.47
00028588 00000088 739.68 88.67 429.30 574.74 850.82 325.61 1025.28 297.77 953.65 421.10 909.17 529.78 1041.09 506.96
00028589 00000089 742.85 82.25 424.70 585.07 853.65 323.26 1024.98 296.84 955.93 418.94 910.26 530.59 1039.43 509.08
00028590 00000090 743.69 82.30 422.84 583.29 853.73 321.34 1025.60 294.94 955.96 414.80 910.90 529.12 1038.87 507.77
00028591 00000091 743.84 81.46 422.13 577.69 852.21 318.93 1027.39 291.85 955.02 412.42 909.14 525.34 1041.04 503.35
00028592 00000092 745.77 85.24 419.46 570.22 852.43 319.67 1028.45 291.14 955.73 413.07 909.61 525.62 1044.13 502.48
00028593 00000093 742.31 85.80 421.86 572.46 851.68 321.13 1027.76 292.32 956.40 415.18 909.59 528.70 1043.19 505.35
00028594 00000094 738.03 85.98 426.98 577.93 848.88 325.84 1024.96 294.70 954.82 419.00 907.70 530.62 1045.18 505.14
00028595 00000095 733.63 84.28 433.29 584.16 847.78 334.34 1025.56 300.69 955.86 422.94 908.31 534.35 1049.67 507.13
00028596 00000096 731.22 88.77 437.06 585.75 850.86 346.00 1025.72 310.25 957.99 434.25 911.55 542.30 1053.99 512.98
00028597 00000097 731.04 104.52 436.67 576.64 848.30 354.80 1025.98 319.34 956.30 452.20 913.25 554.06 1054.39 524.57
00028598 00000098 729.68 108.03 435.85 582.16 849.08 363.66 1027.55 328.53 957.97 459.84 913.99 561.47 1057.39 532.53
00028599 00000099 728.87 115.11 435.80 586.54 848.05 380.44 1024.67 343.07 956.39 478.36 911.68 571.04 1058.48 540.65
00028600 00000100 729.07 129.50 433.35 588.53 847.24 393.32 1021.98 358.03 954.20 495.45 912.60 582.29 1055.14 554.03
00028601 00000101 722.76 133.86 434.41 600.62 843.01 405.44 1022.65 365.06 957.25 506.51 911.25 596.69 1059.09 564.73
00028602 00000102 718.42 146.36 441.37 595.42 841.72 420.71 1019.00 374.82 958.68 521.37 907.81 610.84 1060.01 573.76
00028603 00000103 719.42 146.20 441.13 603.01 844.69 427.91 1018.65 380.97 961.18 528.47 911.91 614.67 1065.30 575.87
00028604 00000104 716.07 147.58 442.53 602.16 845.18 431.03 1017.08 382.18 962.96 527.99 911.40 614.22 1064.34 573.73
00028605 00000105 713.98 150.55 440.40 593.10 841.38 429.65 1011.26 377.45 959.47 526.09 907.57 609.74 1061.06 566.84
00028606 00000106 711.16 140.50 437.19 596.81 837.91 418.98 1016.01 371.15 956.83 518.90 906.46 598.05 1059.72 559.65
00028607 00000107 710.60 134.99 436.92 594.96 837.21 414.31 1013.95 363.82 957.99 510.48 908.05 590.97 1062.21 550.23
00028608 00000108 712.03 130.82 434.77 592.09 839.03 406.67 1014.41 359.40 958.54 502.43 908.64 582.56 1062.13 544.11
00028609 00000109 714.05 128.11 434.04 591.06 840.38 402.07 1014.97 356.27 958.54 499.08 907.91 578.03 1060.79 540.64
00028610 00000110 715.53 122.05 435.14 595.67 840.98 394.90 1014.69 350.36 957.25 493.02 908.10 574.44 1061.80 538.02
00028611 00000111 711.59 117.70 436.95 600.33 837.62 390.38 1009.26 344.59 953.34 487.45 906.90 571.51 1059.28 534.01
00028612 00000112 707.42 126.35 437.31 591.64 831.12 396.61 1002.08 341.34 950.79 489.16 898.77 582.64 1046.31 534.00
00028613 00000113 705.19 127.57 438.56 592.25 829.52 400.79 1000.79 342.27 951.00 491.80 898.16 583.72 1048.10 532.90
00028614 00000114 701.77 135.27 440.13 588.06 828.20 406.00 995.76 348.66 947.84 494.37 897.97 588.62 1042.74 539.12
00028615 00000115 700.93 137.65 439.20 591.07 828.03 411.98 996.27 353.65 948.34 503.48 895.60 593.07 1042.67 543.13
00028616 00000116 700.25 143.68 438.69 588.67 828.31 415.96 997.60 359.67 948.26 510.81 893.68 596.08 1042.02 547.83
00028617 00000117 699.24 148.01 440.63 587.18 827.06 419.34 999.63 362.94 948.56 517.66 890.79 599.17 1042.43 551.17
00028618 00000118 702.32 151.75 439.33 585.99 828.37 419.91 1001.70 366.14 948.89 518.34 892.07 602.85 1042.97 556.98
00028619 00000119 703.03 154.12 439.76 584.37 827.50 420.12 1001.16 367.71 947.03 519.31 890.53 604.33 1041.40 559.65
00028620 00000120 703.33 152.58 439.66 584.25 827.41 418.96 1001.60 366.96 947.07 518.35 891.15 603.85 1041.56 559.40
00028621 00000121 703.91 151.99 439.71 585.64 828.07 417.57 1002.27 366.64 947.73 515.74 892.65 604.15 1041.79 560.50
00028622 00000122 702.67 149.31 438.01 589.60 830.00 414.88 999.72 364.26 946.98 510.79 892.88 601.71 1039.02 558.06
00028623 00000123 702.07 146.44 436.71 594.84 829.71 411.59 997.03 362.44 945.42 504.95 893.11 601.31 1036.99 558.69
00028624 00000124 702.18 143.39 435.17 595.71 828.36 408.58 996.66 360.08 945.61 502.42 893.51 601.30 1035.43 559.18
00028625 00000125 701.42 144.90 436.17 590.10 828.81 412.37 997.50 361.91 946.40 505.47 893.70 600.26 1036.78 556.67
00028626 00000126 701.72 151.76 438.03 581.82 828.00 415.90 1000.43 364.59 947.72 512.74 892.51 602.19 1038.23 558.12
00028627 00000127 705.68 150.91 433.94 585.13 829.04 420.04 1003.15 370.74 948.45 520.64 894.82 613.03 1034.96 570.93
00028628 00000128 708.69 156.03 428.27 583.98 832.73 426.83 1006.28 379.11 951.81 530.23 899.86 621.43 1035.68 580.89
00028629 00000129 708.78 163.58 430.42 585.11 833.56 434.55 1007.56 384.55 954.95 536.14 900.32 627.22 1037.95 585.39
00028630 00000130 706.36 169.24 432.63 584.28 830.75 439.38 1004.23 388.44 950.36 538.07 893.99 627.33 1035.60 584.93
00028631 00000131 704.90 163.97 433.56 591.97 828.05 437.66 1002.25 387.77 946.79 537.85 891.45 627.94 1034.80 586.24
00028632 00000132 703.37 163.30 432.04 588.07 830.42 432.25 1001.82 383.70 948.68 533.42 896.23 625.45 1032.93 584.40
00028633 00000133 702.54 151.21 430.46 590.82 827.89 426.05 1000.39 377.91 946.49 527.43 897.52 622.22 1030.03 581.30
00028634 00000134 701.69 146.41 434.65 586.53 823.65 418.96 999.24 369.22 942.17 516.28 895.45 614.26 1032.09 571.26
00028635 00000135 698.82 130.87 438.58 590.26 822.32 412.39 994.42 357.51 941.36 504.20 896.24 600.97 1033.92 553.97
00028636 00000136 703.21 125.76 435.82 589.18 825.23 400.40 993.57 347.22 941.38 487.37 897.14 591.33 1033.12 544.90
00028637 00000137 708.12 101.16 443.66 606.37 829.61 380.27 1008.63 338.79 940.17 474.64 897.36 573.17 1045.69 539.48
00028638 00000138 706.98 95.10 444.86 609.21 831.21 370.00 1008.48 327.33 945.10 463.29 900.07 566.52 1048.53 531.32
00028639 00000139 707.58 93.80 447.63 609.16 831.95 360.12 1010.04 320.45 944.01 454.07 900.96 560.58 1046.16 527.50
00028640 00000140 710.12 94.44 447.36 596.70 832.49 353.86 1010.65 314.46 942.55 446.33 900.82 551.42 1043.22 518.34
00028641 00000141 707.53 89.84 440.76 594.33 833.47 350.44 1009.62 312.78 946.43 442.63 896.37 551.20 1031.97 518.59
00028642 00000142 703.36 88.87 439.02 581.84 831.20 342.95 1002.33 302.80 943.92 427.45 897.82 537.98 1031.60 503.06
00028643 00000143 705.50 80.94 438.17 582.74 829.49 334.55 1001.03 293.54 942.75 418.46 898.76 532.05 1032.51 495.93
00028644 00000144 704.35 76.02 441.60 579.10 826.70 327.65 1002.15 286.75 939.24 412.46 894.75 525.09 1033.82 488.43
00028645 00000145 704.78 70.54 441.06 583.40 825.11 325.31 999.64 282.84 936.37 411.73 891.41 522.68 1032.78 484.61
00028646 00000146 703.14 67.29 440.02 588.07 826.11 333.95 1000.04 292.84 939.24 412.34 892.13 525.31 1031.66 488.33
00028647 00000147 701.26 72.61 441.93 585.63 826.58 338.68 998.06 297.90 939.46 417.58 892.04 527.77 1028.94 491.69
00028648 00000148 703.29 70.15 442.56 589.34 829.19 345.51 1001.63 303.49 942.39 421.51 897.47 531.76 1034.17 494.69
00028649 00000149 714.75 60.75 442.35 612.20 838.22 346.46 1015.08 306.97 944.48 429.43 903.04 530.79 1047.80 499.29
00028650 00000150 723.28 66.16 444.63 611.05 837.30 348.70 1016.74 303.51 949.76 436.86 906.14 542.63 1054.85 505.82
00028651 00000151 724.90 70.12 447.92 613.00 841.03 348.32 1021.05 304.70 954.05 443.00 910.26 544.93 1063.08 508.43
00028652 00000152 724.63 72.41 448.95 610.32 840.90 347.96 1022.02 304.59 953.85 443.08 910.56 545.63 1063.23 509.40
00028653 00000153 723.11 71.56 448.40 611.35 839.76 346.44 1020.48 303.61 952.00 439.06 906.62 543.85 1060.61 508.15
00028654 00000154 721.95 71.08 448.23 612.60 839.34 343.76 1018.58 299.84 952.45 435.99 908.00 542.59 1060.01 505.93
00028655 00000155 722.82 71.83 448.75 611.30 841.88 343.78 1019.91 299.93 955.27 436.61 911.52 542.76 1061.97 505.92
00028656 00000156 723.68 69.16 448.56 615.85 843.31 345.59 1019.41 301.18 956.51 436.99 913.11 543.71 1063.81 506.19
00028657 00000157 724.08 70.35 448.49 615.72 844.74 345.14 1018.75 300.23 957.61 435.77 914.39 543.31 1064.15 505.37
00028658 00000158 723.48 76.43 446.77 607.30 844.55 339.71 1018.80 296.07 957.88 427.69 914.25 539.52 1061.66 502.33
00028659 00000159 720.53 75.96 446.35 605.09 843.77 334.52 1015.72 293.04 956.77 420.16 912.74 534.25 1057.44 498.98
00028660 00000160 716.30 72.85 451.13 603.15 840.33 329.67 1014.28 288.72 953.12 415.77 910.06 530.78 1054.02 496.02
00028661 00000161 715.51 77.46 450.97 594.68 838.56 325.49 1011.60 285.59 949.38 412.00 908.38 525.75 1050.59 491.56
00028662 00000162 712.02 77.24 453.12 591.28 834.74 322.21 1011.05 280.55 947.90 408.60 907.48 524.31 1049.51 488.96
00028663 00000163 714.31 69.33 446.92 596.39 835.10 318.45 1011.61 276.62 948.35 403.46 906.63 520.41 1048.83 485.10
00028664 00000164 711.56 52.00 447.47 603.62 834.46 311.69 1009.70 271.55 943.55 399.86 908.64 509.69 1050.64 477.55
00028665 00000165 712.54 50.10 445.80 600.47 834.08 309.70 1012.21 270.90 944.03 400.82 906.18 507.58 1051.33 476.23
00028666 00000166 716.89 51.57 448.28 596.84 836.95 312.08 1014.43 272.32 945.84 404.96 908.68 507.58 1053.74 475.53
00028667 00000167 720.55 54.89 450.09 596.97 840.98 312.44 1017.27 274.09 947.97 410.42 913.13 510.16 1054.90 479.35
00028668 00000168 728.19 68.44 442.48 590.00 841.97 316.78 1021.56 277.28 954.51 411.98 910.53 522.43 1052.84 489.53
