Video ID: 	I_Qb2ycQvSk
H: 	1080
W: 	1920
FPS: 	25.0

FRAME INDEX X0 Y0 W H [Landmarks (5 Points)]

00009689 00000000 735.60 217.85 355.89 529.25 785.04 408.55 931.11 439.45 802.05 524.44 773.42 604.02 885.53 629.31
00009690 DELETE   728.15 219.55 355.82 527.62 774.37 412.34 920.77 438.86 788.83 523.94 763.05 608.02 873.58 629.68
00009691 00000002 723.98 219.93 351.12 524.95 767.45 411.70 911.05 439.78 778.20 523.36 753.78 605.76 862.11 628.69
00009692 00000003 727.04 222.53 349.89 526.02 770.91 414.67 914.03 443.33 781.37 529.25 758.31 610.64 866.03 634.00
00009693 DELETE   737.43 232.14 348.46 520.40 775.66 420.62 918.39 449.87 787.89 538.64 768.83 617.77 877.94 640.93
00009694 00000005 740.19 241.69 351.80 511.33 788.86 423.49 931.26 455.59 795.99 532.60 777.82 617.21 883.31 643.43
00009695 00000006 741.68 238.66 351.41 515.12 791.50 422.55 932.63 456.95 796.65 532.34 778.45 616.39 882.88 644.43
00009696 00000007 742.95 240.24 351.72 513.74 792.70 422.08 934.70 457.13 799.02 532.02 779.88 616.43 884.06 644.90
00009697 00000008 745.12 239.83 351.45 515.19 795.43 423.19 938.23 455.82 804.46 532.40 785.49 618.05 888.08 644.29
00009698 00000009 745.46 241.09 351.82 514.02 795.12 422.42 937.69 454.61 804.58 531.74 785.99 617.09 889.62 642.73
00009699 00000010 741.67 238.55 351.04 515.05 791.71 420.23 932.78 454.79 796.38 529.47 778.18 615.26 882.63 643.36
00009700 00000011 742.42 231.93 347.07 523.89 780.26 418.98 919.13 453.19 785.97 536.13 767.26 616.50 874.54 644.02
00009701 00000012 736.65 238.91 350.98 515.58 785.68 422.12 926.06 456.62 787.93 530.04 770.36 616.71 874.98 645.32
00009702 00000013 736.35 240.94 352.44 512.86 785.30 423.01 928.59 456.10 791.27 530.53 771.95 618.88 877.02 646.37
00009703 00000014 734.76 241.94 351.24 509.37 784.91 422.00 926.97 457.34 789.48 530.14 769.45 615.49 875.31 644.98
00009704 00000015 733.05 235.28 347.51 513.21 774.75 416.34 915.65 455.43 780.53 536.04 755.93 608.43 864.85 640.26
00009705 00000016 733.15 235.61 347.58 512.11 774.77 416.08 915.17 455.45 780.42 536.62 756.06 608.35 864.75 640.33
00009706 00000017 737.05 239.41 346.43 513.21 777.13 419.14 918.61 455.76 784.43 539.86 762.90 613.95 876.07 643.12
00009707 00000018 736.51 241.74 351.98 507.76 786.68 421.49 931.03 454.97 795.16 530.43 773.50 616.28 881.36 644.11
00009708 00000019 737.69 228.75 352.37 519.52 782.29 412.01 925.66 448.15 794.27 533.70 767.44 609.87 880.84 638.97
00009709 00000020 735.47 223.47 357.80 531.37 785.51 408.16 931.74 443.08 796.34 522.16 770.15 604.62 883.07 633.09
00009710 00000021 738.17 221.19 360.21 529.24 791.94 404.92 939.25 441.11 805.67 519.52 775.62 600.59 892.42 630.15
00009711 00000022 738.66 219.59 361.49 526.16 794.44 402.88 940.93 441.27 808.13 520.14 776.27 594.48 896.00 625.66
00009712 00000023 739.58 220.76 361.21 524.63 794.78 402.98 939.93 441.37 807.22 520.24 778.69 593.75 896.04 624.83
00009713 00000024 740.38 224.34 360.59 523.87 795.30 405.67 939.29 445.83 806.45 523.75 777.39 596.06 894.48 628.50
00009714 00000025 744.08 227.19 356.70 522.70 797.61 410.22 939.59 451.11 809.41 528.69 779.81 599.38 898.36 632.11
00009715 00000026 751.75 231.22 348.55 512.00 802.97 419.81 942.52 452.30 816.63 535.60 784.20 600.09 903.19 628.77
00009716 00000027 751.79 229.37 349.51 511.37 804.40 419.96 945.56 454.41 819.22 537.15 784.12 598.65 903.87 628.81
00009717 00000028 750.33 230.42 350.39 511.94 804.55 420.01 944.85 456.54 817.76 539.81 783.36 599.47 902.10 631.07
00009718 00000029 740.78 235.70 356.71 513.44 804.00 414.32 947.85 461.49 813.20 531.52 782.05 600.49 895.51 637.93
00009719 00000030 740.20 235.73 357.09 517.88 800.41 419.82 946.38 463.01 812.29 536.56 783.15 610.20 893.69 644.62
00009720 00000031 738.76 239.05 359.44 520.46 798.15 424.23 948.54 466.15 813.55 542.36 781.02 616.61 894.18 650.12
00009721 00000032 746.41 234.81 353.98 525.13 802.32 431.91 944.90 467.36 816.46 551.35 784.40 621.26 899.19 651.78
00009722 00000033 738.23 242.37 360.48 520.27 797.20 428.15 949.30 468.03 813.55 544.04 780.84 619.86 895.34 651.72
00009723 00000034 738.57 244.73 359.54 518.98 796.58 429.86 948.69 469.85 812.61 544.53 780.86 620.26 895.82 652.11
00009724 00000035 745.07 239.16 354.79 521.99 801.19 435.33 943.17 470.78 815.38 552.28 781.66 623.33 897.14 653.74
00009725 00000036 739.13 247.30 357.77 518.12 796.34 435.62 948.31 474.79 811.97 548.73 780.64 625.09 895.22 656.16
00009726 00000037 745.15 246.90 351.61 517.35 799.97 441.43 942.68 474.06 815.67 555.75 782.17 627.85 899.49 656.48
00009727 00000038 744.54 249.06 350.99 517.69 798.85 443.25 941.18 474.41 814.70 557.77 782.82 630.99 899.74 658.40
00009728 00000039 744.36 250.61 350.42 518.08 798.67 444.85 940.70 475.81 814.07 559.14 783.15 632.67 900.18 659.82
00009729 00000040 744.80 250.37 349.20 518.68 797.71 445.64 939.78 475.80 812.92 560.29 782.70 635.33 898.96 661.79
00009730 00000041 744.24 249.54 350.21 519.73 797.90 445.85 939.77 476.66 813.02 560.65 782.57 635.23 898.55 662.17
00009731 00000042 745.84 250.75 348.30 516.38 798.14 446.43 939.30 476.04 814.11 561.21 782.62 636.57 897.16 662.55
00009732 00000043 750.15 250.72 346.56 520.44 799.48 448.29 941.12 484.83 813.84 561.15 791.09 637.39 898.99 668.95
00009733 00000044 747.93 250.14 349.94 514.74 800.11 447.10 942.16 477.23 815.96 559.85 782.95 636.11 897.81 662.66
00009734 00000045 749.02 252.46 350.30 517.79 800.92 447.62 945.19 490.66 813.95 565.89 789.14 634.09 901.32 670.69
00009735 00000046 748.76 251.40 351.80 514.72 803.52 445.45 946.01 481.30 815.99 564.80 782.96 633.96 898.07 665.27
00009736 00000047 748.15 253.74 352.61 517.36 806.91 445.21 947.55 482.23 817.01 565.99 785.59 632.97 899.64 665.49
00009737 00000048 748.30 256.68 352.49 513.44 808.79 446.44 947.96 482.53 819.53 566.14 787.29 631.51 901.48 663.38
00009738 00000049 747.67 255.34 353.58 521.19 808.57 448.38 948.67 482.38 819.58 566.63 785.94 638.37 900.71 668.57
00009739 00000050 748.86 253.93 352.62 525.54 808.28 450.03 948.90 481.99 819.58 567.50 787.33 642.75 900.84 671.25
00009740 00000051 749.42 254.03 352.74 527.69 808.38 450.55 949.04 481.91 819.35 568.82 788.53 643.70 903.05 671.62
00009741 00000052 747.86 252.56 354.52 533.33 808.46 449.71 950.58 481.76 820.00 567.96 789.89 644.57 904.83 673.03
00009742 00000053 746.82 253.03 357.48 536.07 808.34 448.20 951.80 481.38 819.67 567.27 790.34 642.86 908.28 672.02
00009743 00000054 747.21 254.64 359.30 535.00 809.47 448.35 952.28 481.53 820.03 569.21 791.80 641.33 911.57 670.51
00009744 00000055 749.04 256.35 358.87 527.09 810.99 449.75 952.16 483.52 821.49 569.36 792.01 638.55 911.84 668.17
00009745 00000056 750.28 257.95 357.78 515.70 811.98 450.29 952.66 485.65 823.33 568.76 789.77 634.68 911.03 665.35
00009746 00000057 751.95 258.11 356.98 511.77 811.99 450.43 952.62 485.83 824.10 568.52 790.67 633.80 910.39 664.52
00009747 00000058 752.16 255.52 356.24 515.53 812.87 449.04 953.06 484.95 824.11 567.52 791.66 633.05 910.40 664.25
00009748 00000059 750.32 252.27 357.73 518.95 811.41 447.23 952.33 483.69 822.19 562.76 788.46 631.77 906.12 663.60
00009749 00000060 748.99 252.60 359.09 518.94 810.64 445.23 952.46 482.87 820.54 560.93 787.34 630.58 905.19 663.47
00009750 00000061 748.07 252.26 357.53 517.68 809.16 444.12 951.29 483.23 818.26 560.74 785.57 629.30 904.05 663.45
00009751 00000062 748.85 252.11 352.79 513.78 807.97 441.96 947.60 483.22 815.11 559.81 783.48 626.10 899.98 661.66
00009752 00000063 747.85 251.34 352.84 515.17 807.45 440.82 946.94 483.17 813.76 559.31 781.60 625.08 896.37 661.53
00009753 00000064 748.54 251.23 351.16 514.66 806.20 441.56 944.49 483.52 811.77 560.43 781.47 625.96 895.49 661.94
00009754 00000065 748.67 249.93 350.95 517.12 806.28 441.45 945.09 484.11 812.22 563.43 781.03 628.23 894.97 664.78
00009755 00000066 744.77 254.92 350.78 516.18 807.82 442.67 947.80 485.73 804.65 559.68 779.85 629.83 890.99 665.19
00009756 00000067 747.33 251.55 349.58 523.46 805.01 445.09 942.23 484.89 809.98 567.26 782.30 637.92 890.61 672.28
00009757 00000068 746.25 249.33 348.32 534.48 803.50 446.33 940.43 483.45 806.77 566.11 780.31 646.16 886.46 678.58
00009758 00000069 745.45 249.87 348.75 536.27 800.66 447.11 939.36 484.19 804.03 569.70 778.18 649.02 885.41 681.09
00009759 00000070 747.85 259.69 347.28 523.98 799.04 445.53 943.36 488.01 808.50 578.52 776.64 648.45 886.70 684.08
00009760 00000071 743.96 261.18 350.44 528.65 798.90 445.05 941.26 493.63 804.36 582.37 774.33 647.45 885.28 687.67
00009761 00000072 742.59 261.29 350.66 526.98 797.58 447.13 938.31 492.55 802.24 580.93 774.65 645.46 885.35 683.22
00009762 00000073 741.03 254.81 350.95 528.25 797.33 442.45 938.92 489.86 801.05 572.04 772.11 636.75 887.59 676.20
00009763 00000074 742.59 251.42 349.68 518.29 801.54 439.96 934.89 489.25 797.42 563.08 772.97 626.19 883.09 666.84
00009764 00000075 734.22 254.56 357.70 513.44 793.18 431.59 936.73 489.54 791.52 557.97 767.63 615.68 881.59 661.44
00009765 00000076 734.76 254.37 357.75 511.47 793.77 430.37 937.44 489.39 792.11 556.88 767.72 613.75 882.22 660.27
00009766 00000077 734.31 254.89 357.25 514.13 793.19 430.13 935.96 489.60 789.90 557.28 767.61 614.54 882.56 661.20
00009767 00000078 736.89 252.06 351.21 520.67 794.50 436.77 929.88 492.04 788.24 566.11 764.23 621.72 881.11 667.22
00009768 00000079 730.53 251.20 351.66 529.52 788.99 440.34 925.08 494.12 781.82 568.37 755.31 628.59 869.43 673.56
00009769 00000080 723.23 258.64 354.91 539.31 781.99 446.27 920.56 501.33 775.25 579.24 750.53 638.27 865.80 683.71
00009770 00000081 715.79 262.96 356.54 536.80 775.60 450.97 913.65 501.33 773.04 580.71 745.86 640.29 863.79 681.89
00009771 DELETE   714.36 257.21 354.83 531.69 772.67 450.99 906.88 493.24 773.47 578.65 750.37 640.79 862.19 675.17
00009772 DELETE   718.02 253.14 350.79 519.33 776.31 442.18 907.59 483.34 774.64 562.99 754.35 625.34 866.16 659.29
00009773 DELETE   728.44 251.24 351.04 512.57 784.97 435.69 914.19 474.89 781.36 553.53 763.95 619.13 874.36 650.84
00009774 00000085 734.47 249.68 354.46 517.28 785.18 428.35 924.67 473.08 781.13 543.68 765.18 617.22 878.31 652.95
00009775 00000086 740.06 252.54 353.93 513.98 789.64 428.48 930.59 470.97 788.39 542.02 772.02 617.92 884.87 651.26
00009776 DELETE   745.02 250.66 352.95 506.90 795.08 422.80 937.67 466.74 796.62 535.98 777.34 616.57 886.59 651.45
00009777 DELETE   747.69 238.41 353.62 506.41 804.30 410.79 942.09 460.87 802.19 524.01 780.51 601.26 885.30 641.13
00009778 00000089 747.47 234.85 354.04 506.78 807.18 402.75 941.88 456.00 798.80 517.42 778.27 592.47 883.87 635.04
00009779 00000090 747.01 234.70 354.38 510.28 805.86 405.28 942.88 455.19 799.08 516.97 779.79 596.84 886.94 636.65
00009780 00000091 755.35 234.90 345.50 515.98 798.06 422.89 927.74 454.14 797.04 532.87 780.90 611.45 890.95 638.76
00009781 DELETE   744.16 247.07 348.90 511.53 790.56 426.46 929.56 464.70 789.06 537.63 775.14 619.41 883.19 649.87
00009782 DELETE   736.81 244.66 350.11 518.13 783.83 443.52 915.27 473.38 779.71 553.94 764.44 625.74 876.23 650.78
00009783 00000094 728.45 245.81 348.56 515.71 777.69 445.10 907.49 475.82 773.54 555.42 756.74 623.46 867.27 649.57
00009784 00000095 720.65 248.09 346.33 513.70 774.82 441.06 903.29 475.96 766.33 550.60 750.23 618.50 859.77 648.02
00009785 00000096 718.32 242.76 346.73 518.78 771.62 437.82 900.26 471.64 762.23 547.15 747.50 618.96 856.74 647.54
00009786 00000097 717.07 241.85 346.33 519.63 770.90 436.01 899.15 470.44 761.44 545.34 746.55 619.12 854.03 648.07
00009787 00000098 716.82 241.54 347.18 518.47 772.12 435.69 900.12 471.64 762.47 545.11 745.67 617.59 852.15 647.69
00009788 00000099 718.87 244.23 348.60 513.68 774.63 436.79 901.60 474.31 763.40 545.93 746.35 615.85 851.99 647.11
00009789 00000100 721.93 243.74 348.47 513.28 777.42 437.82 903.10 474.75 766.17 547.39 748.31 617.41 852.32 648.22
00009790 00000101 726.04 241.39 348.61 513.92 779.09 438.24 905.67 474.74 768.45 548.58 749.83 618.06 855.50 648.28
00009791 00000102 726.84 238.55 350.58 515.82 780.11 436.57 908.72 473.40 772.32 548.87 751.24 617.55 856.16 647.99
00009792 00000103 727.48 235.97 350.34 517.98 780.64 436.30 909.91 472.16 774.84 549.92 752.78 617.35 857.10 646.98
00009793 00000104 727.16 234.85 351.47 520.03 780.49 435.99 910.18 471.57 774.46 549.56 752.82 617.55 857.25 647.00
00009794 00000105 729.38 235.39 350.35 522.11 780.64 437.82 910.80 471.57 774.04 549.45 754.93 621.67 859.94 649.92
00009795 00000106 730.43 236.76 348.67 523.41 780.36 438.55 910.03 471.67 773.25 549.30 756.21 623.92 860.16 651.78
00009796 00000107 731.23 236.04 345.62 525.81 780.38 438.10 909.85 469.63 773.01 549.38 758.59 625.55 860.44 652.47
00009797 00000108 729.92 235.06 344.80 527.56 780.02 437.45 909.68 468.42 773.63 547.92 758.95 626.67 856.94 653.15
00009798 00000109 730.24 234.54 343.58 528.33 780.44 436.96 909.47 466.62 773.87 545.76 759.47 627.47 854.74 652.91
00009799 00000110 729.98 234.75 344.99 528.90 780.27 437.00 909.93 466.81 773.96 545.97 758.43 627.97 855.00 653.53
00009800 00000111 729.77 237.04 345.80 526.81 779.98 437.39 909.51 469.27 772.83 547.03 757.38 626.85 853.09 654.09
00009801 00000112 730.44 237.28 346.62 527.58 780.41 436.74 911.03 470.68 773.40 548.35 757.31 626.95 855.01 655.95
00009802 00000113 730.35 237.74 347.73 525.43 781.32 437.09 911.72 472.24 774.10 549.73 757.17 624.83 857.74 654.76
00009803 00000114 731.70 237.28 347.04 527.28 781.02 437.18 912.46 471.52 773.37 550.16 757.30 625.74 861.18 655.14
00009804 00000115 732.04 237.49 347.17 527.42 780.91 438.19 912.65 471.19 773.68 549.92 757.98 625.57 863.75 653.79
00009805 00000116 731.07 238.32 347.56 525.46 781.76 437.97 912.89 471.73 773.31 548.42 757.11 624.95 862.14 653.72
00009806 00000117 730.02 238.52 347.11 524.79 781.57 437.99 912.42 472.37 772.42 548.50 755.95 623.59 862.40 652.81
00009807 00000118 729.69 238.54 346.91 525.62 781.30 437.31 912.87 472.35 772.68 548.75 755.71 623.08 862.43 652.98
00009808 00000119 732.40 236.83 348.66 528.15 782.42 437.11 914.81 471.68 774.12 549.56 757.19 624.96 864.96 654.41
00009809 00000120 733.70 236.86 348.33 531.10 782.67 436.95 916.95 470.61 775.79 549.70 760.10 626.09 871.03 654.81
00009810 00000121 733.77 235.72 349.64 533.09 783.54 436.08 918.48 470.03 776.70 549.24 760.51 625.84 871.94 654.78
00009811 00000122 735.79 236.54 347.31 532.72 784.90 434.14 920.51 469.96 779.45 548.89 761.63 625.73 871.32 656.18
00009812 00000123 738.62 238.22 347.67 524.77 788.50 433.17 923.05 472.30 780.81 546.03 759.54 624.60 865.18 657.36
00009813 00000124 738.81 244.40 348.96 514.23 791.16 434.18 925.94 477.68 782.13 548.74 758.53 623.68 862.49 659.57
00009814 00000125 739.55 247.47 350.44 516.14 795.24 434.18 928.01 482.67 784.66 551.12 761.51 621.39 866.62 661.73
00009815 00000126 744.54 251.40 347.62 519.69 800.85 439.58 928.17 489.37 790.62 561.98 769.80 630.51 869.25 671.39
00009816 00000127 749.98 260.56 345.01 520.94 798.89 443.06 933.48 496.08 793.78 577.42 768.18 640.14 873.90 684.08
00009817 00000128 748.50 265.53 349.27 522.54 799.54 444.21 933.98 502.55 794.34 584.25 768.49 641.49 877.28 689.25
00009818 00000129 748.35 273.63 349.70 519.52 797.97 449.42 931.73 506.61 793.94 589.29 770.92 645.79 879.90 692.15
00009819 00000130 748.21 274.44 350.61 517.26 797.86 448.53 932.92 505.07 795.50 589.13 770.75 646.68 879.69 692.58
00009820 00000131 750.27 269.03 347.05 518.89 800.52 446.39 936.30 499.96 798.67 583.64 771.12 646.95 876.45 690.99
00009821 00000132 750.00 263.33 347.49 519.15 801.25 444.01 937.84 495.81 798.34 576.78 770.96 642.20 876.22 685.31
00009822 00000133 750.73 256.81 343.64 522.49 800.02 440.98 935.18 491.83 796.02 572.19 771.34 636.77 878.56 678.99
00009823 00000134 750.28 250.91 343.69 522.12 800.89 440.02 936.82 488.19 799.79 567.49 777.03 630.60 886.26 670.47
00009824 00000135 750.69 246.43 347.51 524.79 805.08 438.97 938.04 480.56 801.45 552.15 782.21 629.23 890.06 664.64
00009825 00000136 753.92 240.68 347.28 527.19 807.00 436.33 941.58 476.18 805.15 549.25 784.69 624.47 896.77 658.78
00009826 00000137 758.35 240.76 345.01 519.86 809.15 435.32 943.98 475.01 809.10 549.92 787.42 620.68 900.65 655.01
00009827 00000138 755.34 243.25 348.22 521.70 806.42 435.45 947.28 485.98 810.01 552.42 789.70 618.76 906.72 661.09
00009828 00000139 755.56 250.22 348.41 517.90 807.63 437.97 945.84 492.87 809.64 561.83 790.84 619.78 906.52 665.37
00009829 DELETE   755.11 257.05 347.11 522.94 806.58 444.44 942.61 499.86 810.46 574.18 790.75 631.89 899.37 677.85
00009830 DELETE   757.82 274.37 338.88 512.09 812.45 451.75 939.83 495.95 806.75 580.24 790.43 647.71 884.20 683.82
00009831 DELETE   760.22 281.69 339.61 512.28 800.61 464.08 936.16 504.45 811.56 605.17 792.36 669.69 895.77 701.66
00009832 00000143 755.43 295.96 342.54 511.91 801.46 466.13 933.89 510.76 802.69 602.20 791.92 671.29 885.16 706.88
00009833 00000144 754.91 294.18 343.07 514.82 802.87 465.73 938.33 507.99 805.23 595.28 792.47 671.47 884.97 705.31
00009834 00000145 756.09 281.52 346.41 524.72 801.74 464.07 940.36 506.58 811.19 602.94 793.08 670.08 899.96 704.06
00009835 00000146 751.38 282.12 351.03 523.08 799.91 461.75 939.52 507.43 807.15 600.35 787.07 663.99 896.92 700.72
00009836 00000147 749.70 282.46 351.11 522.27 796.98 461.46 937.26 510.50 804.45 603.51 782.30 661.97 894.68 701.48
00009837 00000148 750.13 286.46 348.65 518.86 794.88 464.86 933.76 513.38 803.67 608.77 780.67 665.03 893.62 704.18
00009838 00000149 750.39 287.44 347.32 512.27 793.60 465.41 930.52 513.56 802.32 610.13 778.83 665.43 890.25 704.22
00009839 00000150 751.18 288.10 346.07 512.18 793.71 466.28 928.89 514.42 800.62 610.07 779.14 664.93 889.07 703.72
00009840 00000151 752.91 289.02 345.75 510.55 793.67 467.87 928.04 514.47 800.55 610.21 780.70 666.82 889.15 704.20
00009841 00000152 755.85 293.44 343.49 506.53 794.26 472.45 929.28 517.42 802.37 614.67 782.92 670.92 891.51 706.75
00009842 00000153 757.48 299.27 341.89 507.85 796.79 476.57 932.14 523.54 804.09 619.42 786.07 675.91 895.56 713.01
00009843 00000154 761.00 301.81 339.98 509.86 801.32 482.25 933.57 529.26 806.81 622.54 791.74 680.72 898.01 717.47
00009844 00000155 759.16 310.36 340.10 506.23 805.22 482.54 938.22 530.98 808.29 609.91 793.86 679.65 886.35 717.58
00009845 00000156 759.96 311.39 339.97 505.53 805.52 482.89 939.54 530.80 809.14 610.94 794.51 681.54 886.95 719.03
00009846 00000157 759.25 310.29 341.12 507.86 805.38 482.56 939.27 528.98 809.03 609.79 795.01 681.83 888.32 718.20
00009847 00000158 758.14 308.48 342.43 510.19 805.13 479.68 939.05 526.89 807.64 608.44 793.53 679.44 888.84 716.49
00009848 00000159 756.59 307.42 343.34 511.12 804.44 477.51 938.16 525.80 805.98 607.93 791.95 677.49 888.36 715.45
00009849 00000160 756.42 307.44 342.50 511.85 804.47 477.09 937.72 526.68 804.62 607.35 790.57 676.53 888.04 715.57
00009850 00000161 756.24 308.76 341.70 511.53 804.57 477.44 938.54 529.98 804.03 607.34 789.85 676.98 886.60 718.30
00009851 00000162 763.27 300.92 342.53 516.96 807.50 481.99 940.50 532.65 808.54 620.28 795.21 682.45 903.33 721.88
00009852 00000163 765.03 306.10 348.94 525.43 812.65 477.51 950.93 539.41 807.98 620.61 799.18 678.32 912.60 729.44
00009853 00000164 767.61 307.09 352.31 525.84 818.57 479.98 959.33 543.35 811.22 620.41 797.76 677.42 916.51 730.05
00009854 00000165 772.14 316.99 352.03 517.34 824.53 484.15 965.06 546.22 816.88 622.23 802.26 680.95 920.14 732.80
00009855 DELETE   775.22 319.67 354.77 515.41 828.80 491.41 970.86 551.10 824.49 630.33 806.90 689.88 922.14 740.03
00009856 DELETE   780.69 330.70 353.89 505.49 837.12 510.69 973.18 558.89 835.83 650.94 814.90 699.36 927.14 738.03
00009857 00000168 787.85 326.64 351.88 507.52 846.57 507.23 980.72 561.45 842.58 641.61 815.02 692.29 928.21 736.91
00009858 00000169 794.33 322.62 352.47 511.42 851.69 503.95 986.97 561.31 849.55 641.63 819.32 692.06 930.59 739.49
00009859 00000170 796.80 317.30 351.67 517.31 854.52 503.23 988.93 558.48 853.09 636.55 822.34 692.88 930.38 738.79
