Video ID: 	gZfgh_3Xw-E
H: 	1080
W: 	1920
FPS: 	25.0

FRAME INDEX X0 Y0 W H [Landmarks (5 Points)]

00000465 00000000 591.67 202.53 562.46 767.56 662.62 525.77 890.13 472.92 736.39 627.50 729.55 799.73 919.32 755.08
00000466 DELETE   598.92 191.56 568.28 780.88 680.06 519.17 914.07 470.95 761.16 629.70 743.65 793.71 941.92 751.80
00000467 DELETE   622.36 184.02 572.59 788.59 704.85 522.11 940.51 464.11 789.89 623.58 770.95 794.98 970.10 744.46
00000468 DELETE   645.16 186.18 559.91 778.72 723.56 519.91 963.45 463.32 808.52 624.95 784.87 786.39 1002.28 738.37
00000469 00000004 657.69 184.20 557.09 777.64 729.14 517.53 966.23 465.63 808.46 624.82 782.82 777.32 1008.74 732.05
00000470 00000005 663.07 182.68 555.88 773.28 729.86 507.47 960.28 465.69 802.23 622.15 782.23 768.16 999.45 731.79
00000471 DELETE   668.16 180.99 560.60 777.29 736.42 505.58 971.66 462.42 812.59 618.73 789.01 766.10 1005.91 728.56
00000472 DELETE   679.31 176.81 563.38 775.62 752.68 507.45 992.20 449.50 835.58 611.43 806.19 765.70 1030.24 715.76
00000473 00000008 691.82 172.68 563.77 786.69 765.51 504.88 1004.92 447.89 847.90 611.08 816.62 764.40 1043.89 715.11
00000474 00000009 700.25 175.11 560.72 788.62 771.27 507.61 1010.28 451.67 851.87 616.46 822.27 767.05 1051.30 718.24
00000475 00000010 706.32 175.06 557.74 783.25 776.71 505.26 1016.63 450.93 858.38 618.54 827.98 763.16 1059.24 715.46
00000476 00000011 709.27 173.13 555.74 780.60 781.56 499.59 1021.61 448.41 865.22 616.16 831.23 757.62 1061.76 712.78
00000477 00000012 712.72 173.35 551.76 776.19 786.91 506.94 1023.24 453.76 869.88 615.21 837.21 762.13 1056.32 716.11
00000478 00000013 712.64 167.28 550.47 783.25 787.30 507.49 1020.31 453.84 868.62 612.43 839.04 765.51 1049.74 719.36
00000479 00000014 702.49 166.40 557.80 790.18 777.27 497.81 1008.59 441.82 857.34 608.26 837.43 772.08 1035.04 724.92
00000480 00000015 693.75 155.71 554.19 803.75 767.86 493.48 998.83 435.10 847.39 604.16 833.94 781.46 1018.09 733.36
00000481 00000016 680.04 159.70 554.44 796.04 758.33 491.30 990.50 429.04 845.17 596.98 832.24 783.44 1008.67 732.34
00000482 00000017 670.60 153.95 563.13 795.98 748.24 485.41 992.79 426.64 841.29 602.15 820.39 780.94 1011.06 732.37
00000483 00000018 667.13 154.70 561.69 795.41 745.58 484.00 989.53 426.29 839.35 604.67 813.94 772.42 1018.45 723.80
00000484 00000019 663.52 156.83 563.03 795.51 743.23 483.66 985.50 428.89 835.43 607.79 810.64 770.09 1018.04 723.64
00000485 00000020 661.12 160.53 565.12 789.95 738.24 485.32 982.88 429.00 832.16 608.37 805.63 768.46 1020.86 720.37
00000486 00000021 656.69 161.10 564.97 781.65 732.41 483.95 978.10 429.88 825.34 609.83 795.67 760.42 1018.94 714.13
00000487 00000022 651.58 161.56 568.43 786.06 727.30 485.36 974.18 432.09 820.86 615.13 792.06 764.48 1015.25 718.54
00000488 00000023 646.64 161.62 569.29 786.85 721.44 486.08 969.67 432.75 813.94 615.22 792.11 777.13 1000.79 732.41
00000489 00000024 649.31 151.56 560.20 805.30 722.88 487.91 954.83 433.46 804.38 613.84 787.08 775.17 986.44 728.82
00000490 00000025 638.80 148.01 563.60 820.84 715.66 486.32 949.68 431.05 798.94 611.80 781.06 781.84 982.88 734.79
00000491 00000026 632.16 152.21 568.66 833.20 710.94 495.87 942.33 432.85 794.50 609.47 783.77 794.11 980.91 740.91
00000492 00000027 622.29 160.62 577.85 835.63 704.21 501.76 937.07 436.49 788.95 616.57 781.24 801.35 978.06 746.26
00000493 00000028 617.25 163.11 578.37 818.02 697.22 505.49 937.16 441.05 788.01 626.10 778.18 800.64 979.90 746.43
00000494 00000029 613.46 168.23 579.06 811.14 693.83 506.62 935.64 441.64 786.20 627.63 773.26 797.40 981.05 742.51
00000495 00000030 332.22 72.39 360.20 493.26
00000496 00000031 616.76 171.33 571.29 815.74 696.66 516.09 932.66 446.06 783.72 618.22 767.46 796.11 974.30 737.30
00000497 00000032 613.06 174.48 571.29 797.55 696.04 518.35 932.62 452.44 787.20 624.27 764.93 790.49 975.26 734.48
00000498 00000033 616.24 174.11 573.74 793.09 693.29 513.75 935.94 448.01 784.74 623.10 758.94 786.32 975.57 730.58
00000499 00000034 610.07 168.53 578.17 793.89 688.22 506.95 933.66 443.37 780.90 626.90 757.93 784.97 970.77 731.53
00000500 00000035 606.42 167.91 576.22 787.19 684.28 499.37 931.45 438.56 777.19 619.82 752.85 780.71 964.33 729.69
00000501 00000036 608.04 165.98 572.50 787.63 684.50 496.54 928.68 436.22 774.61 616.13 753.07 778.73 960.55 728.20
00000502 00000037 604.87 165.86 575.36 791.58 681.61 497.40 927.08 435.83 773.09 616.45 751.61 781.37 961.08 729.53
00000503 00000038 601.38 166.04 581.15 800.42 677.71 497.03 925.56 435.82 769.92 617.47 749.57 785.99 962.20 734.14
00000504 00000039 595.56 163.03 583.00 801.31 675.23 495.84 922.82 434.48 769.40 614.16 748.25 783.22 961.24 730.88
00000505 00000040 590.85 160.92 583.99 802.30 673.67 493.86 921.68 431.42 770.35 611.04 746.71 779.84 962.67 726.22
00000506 00000041 589.98 160.74 581.33 793.40 672.48 492.21 922.55 432.95 770.43 612.94 742.45 775.80 961.75 724.70
00000507 00000042 589.46 165.10 579.71 790.80 670.65 493.87 921.02 436.72 768.45 617.70 739.35 775.95 957.35 726.83
00000508 00000043 589.69 169.16 577.18 784.37 667.06 495.54 920.28 440.31 765.27 621.35 736.21 782.13 949.33 735.26
00000509 00000044 574.08 160.99 584.65 795.56 654.84 492.98 909.46 440.28 751.90 621.12 721.97 780.41 937.12 736.16
00000510 00000045 572.70 152.31 575.82 795.77 647.40 488.76 879.63 438.75 727.24 614.89 715.90 772.32 912.26 730.90
00000511 00000046 563.54 147.40 573.88 814.58 639.61 499.18 865.26 432.83 712.67 606.60 710.50 780.12 907.71 723.52
00000512 00000047 555.10 164.25 584.26 793.12 637.04 504.35 865.54 435.12 717.53 611.60 716.16 781.26 914.64 722.04
00000513 00000048 560.04 168.97 576.01 785.21 636.71 504.16 863.07 439.72 714.23 614.43 712.11 778.80 908.72 723.62
00000514 00000049 560.46 169.20 568.71 779.20 635.04 498.27 859.55 437.98 711.78 612.45 704.63 770.20 903.23 718.12
00000515 00000050 556.65 164.90 571.63 783.11 633.22 495.18 858.80 431.68 711.85 605.42 703.25 763.54 910.25 708.11
00000516 00000051 554.86 163.65 576.12 793.11 634.12 502.38 864.00 433.71 716.82 603.72 703.77 767.26 919.78 706.92
00000517 00000052 553.37 168.07 577.45 802.51 635.49 513.16 863.77 443.21 717.62 605.09 703.51 773.84 920.04 712.66
00000518 DELETE   552.37 169.99 576.11 808.68 630.45 524.70 857.74 450.67 709.48 609.64 698.41 784.15 914.75 720.43
00000519 DELETE   541.63 167.87 580.90 806.22 611.07 519.38 845.40 457.06 692.45 628.37 681.31 783.41 902.75 727.26
00000520 00000055 531.80 164.49 580.45 806.61 605.97 519.55 842.60 460.54 692.18 630.93 676.94 782.22 899.73 729.13
00000521 DELETE   528.13 174.95 589.72 797.51 612.82 522.85 849.62 456.20 700.73 621.35 681.19 781.65 901.30 724.12
00000522 00000057 539.15 171.92 579.00 800.66 620.59 523.98 858.67 455.91 708.57 621.49 687.29 788.45 904.63 730.52
00000523 00000058 544.92 171.80 578.02 791.10 617.65 523.62 856.03 464.98 706.28 632.83 688.51 786.18 901.31 734.17
00000524 00000059 538.80 179.29 582.15 786.08 617.65 520.50 860.23 466.68 702.45 629.05 677.19 783.01 896.30 737.00
00000525 00000060 536.77 168.15 583.65 801.61 616.98 514.65 861.49 449.67 702.76 609.04 679.85 787.77 891.41 733.35
00000526 DELETE   541.84 153.04 573.77 809.44 624.40 497.05 864.59 433.92 706.05 579.73 681.21 774.97 884.34 721.96
00000527 00000062 540.77 134.19 574.41 808.35 624.16 477.52 869.88 419.00 710.38 563.31 676.40 756.58 882.44 707.26
00000528 00000063 540.07 136.82 568.20 798.62 624.02 471.99 866.41 417.04 708.64 560.68 673.79 750.68 876.96 704.48
00000529 00000064 536.49 140.43 568.74 790.72 619.27 478.74 865.91 421.67 707.39 568.34 670.95 752.05 880.34 703.75
00000530 00000065 535.40 142.98 567.59 779.83 617.21 475.59 867.69 417.55 711.92 570.40 670.58 746.35 888.95 696.61
00000531 00000066 535.99 138.52 567.07 773.98 619.36 466.96 869.67 413.28 714.66 563.34 670.80 733.14 892.85 686.97
00000532 00000067 534.18 141.47 571.62 774.21 619.44 470.61 867.03 412.81 712.93 558.88 673.43 733.76 893.45 683.83
00000533 00000068 535.28 147.66 567.64 766.33 619.56 471.41 869.45 416.06 716.56 568.32 671.92 734.28 898.46 686.11
00000534 00000069 540.50 139.30 566.59 771.56 620.26 467.22 871.33 413.37 715.57 569.46 670.91 730.52 898.49 683.76
00000535 00000070 543.70 138.59 562.86 761.27 623.27 459.69 872.70 407.99 719.37 563.00 673.58 722.93 896.59 678.32
00000536 00000071 547.30 134.18 569.42 773.05 625.57 452.01 877.21 402.02 719.18 557.55 678.68 723.92 898.33 680.83
00000537 00000072 554.39 132.61 562.43 777.58 630.20 447.90 881.21 400.81 723.84 558.57 680.90 720.99 904.87 680.08
00000538 00000073 561.12 132.29 558.22 772.35 638.34 451.41 887.02 403.57 730.64 560.98 686.27 718.22 911.25 676.05
00000539 00000074 561.97 134.06 558.37 773.88 641.91 453.54 887.49 408.84 731.90 566.76 689.05 720.55 908.29 681.24
00000540 00000075 557.65 136.09 565.33 776.19 638.03 459.33 886.91 410.26 731.07 572.61 687.03 724.04 912.36 680.72
00000541 00000076 553.84 146.56 564.11 776.83 644.93 480.91 885.31 426.77 738.61 578.21 693.40 734.49 914.96 687.10
00000542 00000077 558.91 154.79 558.49 773.39 647.67 486.83 892.62 435.13 743.03 587.03 693.19 737.89 920.76 692.54
00000543 00000078 559.68 156.76 557.10 775.54 646.69 485.05 894.90 436.36 745.66 598.18 692.99 739.52 927.12 696.51
00000544 00000079 559.54 160.74 555.36 770.84 645.08 482.21 893.04 432.46 743.87 597.82 691.02 735.66 928.59 691.45
00000545 00000080 562.30 159.15 554.46 768.56 645.66 477.72 889.84 427.21 741.28 592.56 693.04 730.75 928.47 685.54
00000546 00000081 563.41 156.98 554.24 768.79 646.98 473.79 891.33 423.60 742.29 588.89 694.12 728.84 930.11 683.74
00000547 00000082 566.08 153.97 553.13 786.17 651.22 473.92 893.03 423.25 744.94 587.45 699.87 736.38 930.48 691.25
00000548 00000083 567.43 155.38 561.53 796.17 657.56 472.19 894.79 428.90 748.06 594.77 714.55 751.00 929.17 714.28
00000549 00000084 572.42 157.36 560.63 792.78 658.71 472.61 896.63 428.69 745.70 595.06 717.75 757.59 923.23 720.85
00000550 00000085 574.22 157.20 559.01 781.79 658.68 473.34 897.77 426.36 748.95 598.32 722.24 758.66 917.53 720.46
00000551 00000086 571.51 159.21 555.86 773.33 659.56 468.70 902.39 427.15 757.04 601.24 725.24 765.88 906.44 733.29
00000552 00000087 572.06 160.47 560.11 780.98 661.26 470.22 903.87 433.30 755.68 606.71 723.56 771.15 903.81 742.04
00000553 00000088 568.56 158.49 565.80 795.44 661.85 471.02 903.14 434.28 751.11 607.15 723.67 778.93 901.75 749.81
00000554 00000089 568.82 152.22 573.18 814.37 662.72 464.40 901.08 423.70 743.07 587.18 720.23 773.12 904.13 740.09
00000555 00000090 571.01 138.53 565.16 817.69 659.66 458.70 903.55 416.38 744.28 580.45 712.28 760.38 914.91 725.84
00000556 00000091 568.68 142.59 563.92 802.18 655.73 457.52 907.30 413.73 749.28 580.00 709.79 752.64 926.81 716.05
00000557 00000092 570.31 142.73 563.08 793.88 656.65 458.51 908.00 414.37 752.39 581.94 712.74 749.34 929.43 712.36
00000558 00000093 569.17 143.58 565.21 793.34 657.36 458.49 908.52 416.27 752.35 581.33 713.56 750.72 923.68 715.83
00000559 00000094 568.60 145.19 562.89 788.97 658.99 457.41 908.30 418.68 752.51 580.13 712.60 745.63 923.08 713.53
00000560 00000095 576.57 145.59 555.70 783.28 664.83 467.11 909.49 429.42 757.58 584.55 712.05 739.68 924.31 708.84
00000561 00000096 573.43 147.49 559.81 780.80 663.80 473.07 915.07 433.26 758.07 581.73 708.98 742.59 930.74 709.29
00000562 00000097 573.35 147.32 560.80 782.78 664.60 465.26 918.34 426.75 762.61 581.17 713.74 740.48 932.51 708.31
00000563 00000098 573.54 145.65 560.51 784.46 665.17 464.65 917.49 424.80 762.32 579.91 712.39 736.92 937.16 703.27
00000564 00000099 574.55 147.49 557.48 777.15 665.03 460.65 916.67 422.31 762.05 581.03 712.32 732.42 940.62 699.74
00000565 00000100 574.64 142.40 559.46 778.78 666.73 455.37 916.60 418.70 763.25 575.40 711.57 724.80 943.98 692.98
00000566 00000101 577.26 140.79 556.55 778.11 668.86 448.45 917.69 416.65 763.26 572.18 709.32 715.93 946.29 687.78
00000567 00000102 578.01 140.08 554.17 777.93 670.60 446.52 918.96 416.24 764.89 569.95 708.06 712.69 948.40 685.65
00000568 00000103 579.76 138.26 554.20 781.91 672.35 447.12 921.36 416.13 766.58 568.46 708.90 713.21 950.22 685.61
00000569 00000104 580.38 141.39 554.88 778.01 675.91 453.59 921.02 427.21 764.84 567.82 705.80 711.78 945.90 688.09
00000570 00000105 581.56 144.73 551.38 769.03 675.72 452.59 920.89 430.16 762.79 568.23 703.02 709.06 941.68 688.92
00000571 00000106 579.42 145.00 552.62 756.94 671.84 446.70 919.67 425.09 763.06 569.85 703.95 709.68 931.84 691.16
00000572 00000107 580.50 142.36 551.12 752.70 671.87 438.58 918.86 420.70 761.71 570.53 706.42 712.26 916.86 697.73
00000573 00000108 583.57 143.44 542.85 747.05 671.03 435.41 913.94 416.59 756.96 571.91 708.37 716.79 908.32 701.91
00000574 00000109 585.46 148.90 541.13 745.45 668.52 435.24 911.40 416.21 752.22 573.63 706.91 720.08 906.26 704.88
00000575 00000110 586.41 146.93 540.51 760.63 669.69 434.24 910.82 416.28 750.04 574.86 708.41 722.42 909.83 707.81
00000576 00000111 588.27 154.41 537.47 757.76 670.59 435.00 910.83 417.49 750.50 575.42 708.12 721.97 913.52 707.45
00000577 00000112 587.62 157.94 537.64 738.20 670.03 434.06 908.91 418.91 749.96 574.41 703.92 710.30 913.39 697.71
00000578 00000113 587.99 162.96 535.73 729.59 670.05 433.94 907.90 420.21 749.44 573.79 701.74 705.46 914.49 693.81
00000579 00000114 589.80 163.64 534.90 728.99 671.68 436.07 910.11 421.63 751.47 574.97 703.06 705.20 918.95 692.84
00000580 00000115 591.37 159.40 533.13 740.31 674.76 437.97 912.19 423.64 752.45 575.65 703.30 705.47 924.59 692.98
00000581 00000116 593.05 160.71 531.13 745.74 677.06 439.38 914.28 424.87 753.60 575.80 704.28 706.39 929.86 693.43
00000582 00000117 595.73 158.20 530.67 765.50 680.25 440.11 915.42 422.29 754.34 573.40 707.60 710.67 938.56 694.35
00000583 00000118 599.62 159.29 530.48 766.01 682.75 441.73 917.91 424.27 756.18 574.09 710.77 713.71 940.18 697.85
00000584 00000119 604.75 160.97 526.21 746.11 685.58 440.43 924.85 425.75 764.78 574.84 712.18 707.08 940.97 693.89
00000585 00000120 602.05 157.38 533.68 737.31 688.82 438.13 929.74 425.94 772.75 572.21 716.16 699.04 943.23 687.93
00000586 00000121 602.29 156.04 538.65 733.13 692.88 432.47 934.36 424.80 778.33 571.35 719.80 696.58 939.95 689.88
00000587 00000122 603.78 153.53 538.74 739.22 695.11 431.14 936.46 424.45 779.86 569.10 721.13 699.35 934.06 693.93
00000588 00000123 608.63 155.21 539.59 738.88 697.77 431.69 940.66 421.34 781.27 566.56 726.93 709.02 929.36 701.22
00000589 00000124 619.66 146.17 533.18 748.04 704.73 431.31 947.16 417.77 786.83 564.92 733.72 710.22 935.93 699.98
00000590 00000125 620.09 132.47 537.59 769.52 706.74 431.38 946.43 415.98 784.93 560.61 734.08 712.80 937.93 701.07
00000591 00000126 618.05 133.48 543.89 768.79 706.76 441.24 944.82 424.98 782.34 557.92 730.87 712.43 937.07 700.07
00000592 00000127 620.35 136.36 539.66 753.32 706.20 437.40 948.51 424.15 785.57 559.43 727.30 700.88 942.55 690.88
00000593 00000128 626.96 138.22 534.72 748.27 712.31 433.63 952.32 422.57 790.60 561.67 734.35 699.35 945.73 690.79
00000594 00000129 632.31 143.52 534.59 748.47 716.58 430.88 957.44 420.76 791.50 561.82 739.78 704.30 943.51 697.11
00000595 00000130 633.10 145.30 533.30 745.73 722.67 440.52 959.55 433.04 794.78 562.27 739.93 706.16 937.48 701.37
00000596 00000131 640.68 142.65 530.04 756.46 725.66 441.92 959.93 435.55 791.51 562.47 741.21 708.32 940.05 704.63
00000597 00000132 646.19 147.07 529.39 758.09 728.93 443.19 969.65 436.96 798.06 562.66 742.41 707.39 953.00 703.27
00000598 00000133 646.80 149.18 530.72 764.97 729.83 440.55 973.83 433.16 799.50 564.15 744.42 709.32 962.09 703.53
00000599 00000134 648.75 149.63 531.56 770.43 730.45 437.15 976.06 429.63 800.66 565.29 745.45 706.10 974.06 698.91
00000600 00000135 649.88 153.50 532.37 773.73 733.78 432.75 977.78 428.33 802.39 563.36 746.93 703.34 976.98 698.37
00000601 00000136 652.63 151.37 532.23 779.09 736.54 427.67 979.15 425.20 801.66 559.81 748.88 703.72 976.78 700.56
00000602 00000137 654.21 152.20 531.73 774.70 737.15 426.81 979.36 426.45 801.83 560.03 748.35 704.38 971.21 703.40
00000603 00000138 655.70 155.84 528.87 766.64 737.64 428.35 979.49 429.69 801.88 562.61 749.04 709.13 959.40 710.69
00000604 00000139 655.33 157.51 522.97 753.84 737.14 430.50 981.78 433.34 807.39 567.96 749.85 708.94 959.76 712.08
00000605 00000140 652.17 161.65 523.00 744.97 737.11 430.76 981.70 435.08 809.88 569.15 748.86 704.49 960.24 708.77
00000606 00000141 648.04 163.69 525.87 748.03 736.76 432.01 981.79 436.44 810.44 571.41 749.49 705.86 961.39 710.03
00000607 00000142 641.21 162.99 526.96 747.20 734.14 432.24 980.87 439.14 811.40 573.61 743.91 704.34 960.30 710.40
00000608 00000143 636.32 161.30 531.31 741.79 731.95 432.05 979.98 440.56 812.60 575.56 741.91 698.80 963.14 705.78
00000609 00000144 628.49 162.45 536.83 736.02 729.65 433.75 979.29 443.21 813.70 577.64 738.15 695.38 963.91 702.86
00000610 00000145 623.11 165.93 537.77 737.36 726.66 436.42 975.93 443.50 812.50 580.31 735.00 697.09 964.33 702.70
00000611 00000146 622.66 166.74 533.43 738.72 724.44 440.78 971.55 446.71 808.55 583.26 730.76 699.15 961.82 703.81
00000612 00000147 619.80 169.03 534.54 743.48 722.43 440.63 971.77 447.93 807.21 584.09 726.47 700.01 962.40 705.74
00000613 00000148 620.99 168.01 533.65 750.47 722.22 441.49 971.13 448.79 805.23 584.73 724.89 702.29 962.34 708.01
00000614 00000149 620.41 171.56 535.48 749.38 721.52 442.41 970.91 449.91 804.69 587.24 723.80 702.93 963.65 708.48
00000615 00000150 622.40 170.67 532.85 752.13 722.20 444.12 969.75 451.18 803.72 589.27 724.79 705.98 964.23 711.26
00000616 00000151 622.86 174.24 534.03 762.36 723.48 445.79 969.18 451.76 802.25 588.65 724.95 711.58 964.21 715.70
00000617 00000152 621.59 174.94 534.27 776.12 723.62 445.01 968.11 450.64 800.58 586.36 726.33 721.86 958.83 725.94
00000618 00000153 622.21 171.35 533.44 780.32 722.30 442.67 969.61 449.86 799.85 583.16 730.77 735.21 940.95 741.79
00000619 00000154 620.96 166.58 529.25 772.77 717.46 442.80 969.08 449.75 799.73 587.23 727.15 733.83 936.14 740.84
00000620 00000155 620.26 167.82 528.23 765.32 716.26 443.30 968.58 450.63 800.01 589.54 725.95 729.51 940.34 736.53
00000621 00000156 619.36 169.85 529.62 768.46 717.36 446.43 969.75 452.69 803.24 595.38 730.09 736.23 945.07 742.21
00000622 00000157 617.16 174.68 536.32 762.11 714.38 453.72 972.85 460.33 801.36 604.11 724.79 740.57 948.31 746.48
00000623 00000158 615.78 178.72 535.02 753.01 716.05 457.50 971.52 469.10 801.39 611.26 722.18 736.35 943.59 746.54
00000624 00000159 616.37 178.90 535.25 752.20 715.46 455.83 970.71 466.72 799.68 606.38 720.30 737.34 939.35 747.08
00000625 00000160 620.26 173.94 535.92 754.50 716.20 449.55 972.69 458.51 799.82 597.35 724.10 736.58 940.10 744.86
00000626 00000161 618.17 167.48 532.54 762.75 716.42 444.06 974.17 453.19 804.84 592.59 725.22 729.54 945.30 738.02
00000627 00000162 619.10 167.53 531.91 761.84 717.41 442.43 973.53 452.05 805.07 593.78 726.33 726.77 946.84 735.68
00000628 00000163 622.07 171.47 534.61 763.40 720.09 445.55 978.00 454.34 805.56 598.49 728.44 734.00 949.35 742.04
00000629 00000164 625.08 171.42 533.25 774.24 722.01 449.29 978.82 456.41 803.75 601.58 731.10 740.09 953.54 746.38
00000630 00000165 621.27 169.84 537.75 784.98 721.25 447.54 977.31 454.84 804.29 596.62 727.94 739.43 954.45 745.74
00000631 00000166 621.56 167.68 538.56 784.24 723.57 444.27 975.87 450.23 805.13 589.09 731.13 730.86 958.40 735.79
00000632 00000167 624.93 169.48 537.41 768.67 725.47 449.18 978.10 453.77 807.20 588.49 731.77 721.26 966.00 725.02
00000633 00000168 621.52 170.83 542.02 764.63 726.13 465.53 978.02 469.80 811.45 595.80 730.07 722.13 971.22 724.56
00000634 00000169 623.47 173.14 543.75 761.83 728.49 463.69 983.76 471.21 814.00 598.81 732.07 723.65 973.71 728.85
00000635 00000170 626.46 173.07 540.54 770.70 730.73 456.10 987.14 465.83 814.62 595.76 731.81 722.18 977.38 729.18
