Video ID: 	pFjN9JmkMxU
H: 	1080
W: 	1920
FPS: 	25.0

FRAME INDEX X0 Y0 W H [Landmarks (5 Points)]

00004343 00000000 697.29 207.93 408.59 592.08 869.07 451.65 1055.16 458.17 1001.48 590.92 886.29 670.78 1024.97 674.47
00004344 DELETE   693.36 207.54 404.94 595.31 865.62 461.07 1045.48 456.77 994.14 591.62 877.51 671.10 1017.38 667.78
00004345 00000002 688.43 205.28 406.99 600.05 863.47 461.29 1047.57 460.33 993.50 593.77 864.99 660.73 1010.74 663.58
00004346 DELETE   684.76 205.30 401.43 597.43 854.07 461.02 1035.47 451.34 987.45 592.62 864.91 665.66 1011.49 658.61
00004347 00000004 681.69 202.10 400.92 599.57 848.40 458.56 1031.47 448.92 984.56 587.46 857.97 661.50 1008.43 654.71
00004348 00000005 679.44 200.66 400.23 600.72 843.28 456.21 1029.65 446.04 982.48 583.64 855.58 658.44 1010.58 651.19
00004349 00000006 677.97 200.50 399.41 597.90 840.48 453.35 1027.99 443.45 981.09 580.29 855.61 656.73 1009.91 649.77
00004350 00000007 676.89 196.05 398.22 599.25 840.37 452.22 1027.97 439.51 983.40 575.06 858.07 656.74 1010.89 647.51
00004351 00000008 676.83 191.02 396.69 598.23 841.27 448.60 1029.03 437.36 983.05 571.16 865.61 659.36 1009.95 651.31
00004352 00000009 676.47 188.07 394.71 600.07 842.57 446.68 1028.39 433.65 985.88 567.25 872.11 660.91 1011.85 651.22
00004353 00000010 676.56 184.89 393.80 601.67 841.44 443.76 1027.56 429.88 985.44 564.79 874.31 660.94 1012.50 650.37
00004354 00000011 674.07 182.66 391.53 603.67 836.85 437.89 1022.69 426.84 979.55 561.48 869.53 656.84 1009.36 648.54
00004355 00000012 670.52 181.13 393.10 606.88 832.88 434.44 1019.26 425.91 977.01 559.93 860.94 653.38 1004.15 647.36
00004356 00000013 668.44 183.64 393.28 597.89 829.44 434.41 1020.81 429.74 974.02 567.62 849.08 657.95 1001.12 654.14
00004357 00000014 667.14 183.67 393.10 598.28 827.59 436.54 1018.02 429.24 972.43 568.75 845.12 656.04 1001.49 650.36
00004358 00000015 665.05 182.42 393.44 599.64 827.14 438.19 1016.47 427.32 974.11 568.88 844.15 654.12 1003.04 645.62
00004359 00000016 661.98 183.68 394.80 600.32 825.40 441.30 1013.01 429.66 972.74 570.44 842.80 654.93 1001.23 645.68
00004360 00000017 660.32 184.55 396.26 601.45 822.38 444.53 1011.24 432.51 970.84 572.72 841.08 658.12 1000.61 648.42
00004361 00000018 658.10 187.47 398.85 600.09 820.75 447.43 1009.43 435.03 968.91 574.46 840.06 659.66 999.53 649.54
00004362 00000019 655.66 189.29 401.29 599.96 819.35 448.95 1008.98 436.79 967.61 576.94 837.97 660.86 997.74 650.88
00004363 00000020 653.63 191.10 402.95 602.77 817.83 450.16 1007.68 439.02 966.66 580.26 834.52 662.72 995.30 653.67
00004364 00000021 652.27 193.14 403.98 605.35 817.74 452.89 1006.72 441.09 966.18 584.97 831.13 663.91 993.67 654.53
00004365 00000022 650.51 194.70 405.78 609.44 818.42 455.22 1004.53 443.66 964.85 588.26 829.15 666.16 989.82 657.05
00004366 00000023 651.45 198.12 406.94 611.13 818.65 458.05 1004.74 446.47 964.47 595.14 827.55 670.79 989.16 661.70
00004367 00000024 651.97 202.69 409.38 608.88 823.29 462.92 1007.96 452.10 967.52 602.44 826.22 672.24 988.92 664.46
00004368 00000025 653.91 204.58 410.08 606.87 828.15 463.95 1012.28 454.00 970.98 606.50 827.98 671.68 991.31 664.82
00004369 00000026 657.25 205.00 407.62 606.51 832.17 463.01 1015.08 454.00 974.80 604.83 830.17 670.50 993.48 664.66
00004370 00000027 659.64 203.84 406.89 605.10 834.14 460.24 1016.65 453.35 976.40 601.21 833.50 668.63 994.88 664.33
00004371 00000028 662.58 203.98 404.62 602.62 835.41 456.88 1018.13 452.56 977.50 595.82 835.76 665.50 997.09 663.30
00004372 00000029 663.82 202.66 403.39 600.06 835.00 455.14 1018.55 450.84 976.51 594.41 834.89 663.29 996.64 661.12
00004373 00000030 662.90 201.33 404.89 599.97 833.67 454.65 1017.65 450.97 973.81 595.12 833.08 661.55 995.74 659.71
00004374 00000031 662.31 200.84 404.53 599.09 832.03 453.33 1016.15 448.59 972.55 594.85 832.94 661.11 994.57 658.27
00004375 00000032 661.96 198.33 404.28 599.15 830.92 452.74 1015.25 446.80 972.16 592.24 832.68 659.46 994.95 655.60
00004376 00000033 661.52 196.49 402.70 600.10 830.24 451.72 1013.85 445.46 970.93 590.16 833.42 659.05 994.16 654.81
00004377 00000034 658.66 196.75 403.55 600.29 828.69 453.16 1012.47 444.84 971.58 590.50 832.88 659.50 994.82 653.52
00004378 00000035 656.23 196.35 405.30 600.09 826.53 453.72 1011.40 444.23 970.21 591.22 831.27 659.23 994.75 652.13
00004379 00000036 654.37 193.75 404.87 603.14 824.57 452.58 1010.32 442.40 970.09 589.49 830.20 659.18 994.35 651.39
00004380 00000037 652.01 194.79 404.24 601.87 823.02 451.21 1007.35 440.77 969.11 587.89 830.10 659.30 991.65 651.25
00004381 00000038 648.57 191.90 403.90 605.50 817.75 449.43 1005.01 440.29 964.19 585.70 829.67 662.16 988.65 654.60
00004382 00000039 645.97 191.15 403.78 602.65 810.61 448.73 1002.45 445.42 954.24 581.76 835.12 669.29 984.44 665.07
00004383 00000040 642.83 193.23 404.36 601.06 808.21 450.46 1000.83 447.81 952.72 583.61 843.78 678.80 984.06 674.10
00004384 00000041 639.23 199.32 406.12 603.36 808.96 458.38 998.96 452.60 951.71 593.33 848.14 692.54 978.85 684.99
00004385 00000042 638.58 207.07 405.32 603.05 812.72 467.04 1002.16 456.89 958.51 604.71 852.75 705.24 980.40 694.21
00004386 DELETE   642.53 209.81 402.78 604.82 821.99 469.16 1009.50 455.38 970.96 606.44 859.30 707.71 986.46 694.29
00004387 00000044 646.18 210.76 399.30 600.16 836.10 469.97 1017.39 450.43 992.64 603.27 870.77 704.02 998.16 686.91
00004388 00000045 649.52 202.82 394.08 602.25 845.33 466.92 1019.67 445.73 1003.63 590.97 880.71 697.29 1004.03 679.41
00004389 00000046 654.76 197.28 387.87 601.99 851.61 462.95 1019.94 438.84 1009.95 580.12 886.34 688.94 1007.87 669.41
00004390 00000047 658.76 190.06 384.55 604.61 854.55 456.79 1020.52 431.09 1013.61 572.05 887.51 682.49 1009.44 662.24
00004391 00000048 659.44 188.26 383.88 601.35 856.56 452.17 1021.58 427.60 1016.46 567.44 889.28 677.59 1010.80 658.44
00004392 00000049 661.75 185.13 380.01 596.29 858.59 447.14 1019.96 423.05 1016.26 561.05 890.17 669.91 1009.34 651.53
00004393 00000050 661.48 184.14 379.24 592.91 859.16 441.07 1018.88 418.34 1015.61 555.61 889.18 664.27 1005.91 647.14
00004394 00000051 664.07 180.29 376.48 592.68 859.19 435.56 1018.40 414.84 1012.35 550.65 888.06 658.63 1004.67 643.02
00004395 00000052 666.66 182.23 381.01 593.85 864.85 432.40 1020.91 409.66 1014.62 550.29 890.92 656.12 1006.44 637.30
00004396 00000053 668.95 182.58 382.44 593.49 866.38 430.11 1022.76 407.51 1016.86 546.93 890.96 651.79 1010.47 633.09
00004397 00000054 665.02 180.01 384.53 592.72 860.38 429.23 1019.85 395.96 1022.12 541.94 892.46 645.28 1015.83 619.62
00004398 00000055 670.40 174.32 383.28 592.99 863.90 427.02 1020.47 394.34 1026.25 538.40 895.61 643.20 1015.67 618.06
00004399 00000056 676.27 171.01 380.01 588.51 868.19 425.38 1022.40 392.44 1028.97 533.74 901.28 640.04 1015.50 614.91
00004400 00000057 680.12 169.06 381.94 593.17 872.34 424.45 1028.52 391.95 1034.84 533.49 904.70 641.29 1021.00 616.09
00004401 00000058 683.11 166.13 387.07 598.67 881.07 422.10 1039.92 396.75 1043.97 532.72 913.89 636.39 1040.33 617.47
00004402 00000059 685.08 169.47 388.63 599.00 883.38 426.08 1043.83 399.56 1045.36 538.00 917.50 640.04 1044.23 620.08
00004403 00000060 683.43 172.07 391.08 597.82 883.10 429.48 1044.07 401.11 1047.65 540.19 924.28 647.13 1045.28 625.42
00004404 00000061 681.24 175.83 389.51 594.52 881.17 431.28 1042.27 405.20 1043.03 547.38 926.52 650.55 1043.44 630.50
00004405 00000062 680.65 182.29 380.39 595.40 872.13 443.57 1032.34 405.84 1031.06 560.53 915.74 669.95 1025.45 640.23
00004406 00000063 671.81 190.74 391.40 601.48 872.74 461.99 1027.17 423.31 1031.45 567.60 913.12 680.42 1018.00 649.63
00004407 00000064 671.55 200.23 387.99 606.59 871.89 476.17 1025.10 435.66 1031.20 584.76 909.33 696.01 1014.19 664.50
00004408 00000065 674.61 209.61 387.42 600.34 873.95 480.62 1030.20 438.23 1035.86 590.09 911.86 700.21 1017.84 667.28
00004409 00000066 680.98 209.04 386.42 596.94 883.40 473.99 1036.12 437.45 1039.79 584.36 920.75 694.71 1021.91 665.79
00004410 00000067 687.41 202.12 389.40 591.17 891.57 465.51 1048.04 430.39 1050.73 573.54 928.10 688.11 1032.58 659.84
00004411 00000068 695.35 193.03 387.69 595.17 898.70 460.16 1054.98 426.28 1059.58 571.27 929.91 683.41 1036.87 656.71
00004412 00000069 699.06 193.47 387.68 595.08 903.67 457.73 1058.49 425.65 1063.68 570.91 932.59 681.16 1038.77 656.37
00004413 00000070 700.90 193.91 388.51 597.38 905.52 457.75 1060.83 424.97 1066.91 572.09 931.26 680.98 1040.32 656.03
00004414 00000071 700.48 192.85 389.96 600.53 906.22 458.16 1061.05 424.25 1067.84 572.36 929.86 680.38 1039.92 654.70
00004415 00000072 700.53 194.06 390.37 599.11 905.44 458.27 1060.95 423.34 1068.49 572.27 926.17 678.93 1039.55 652.82
00004416 00000073 702.67 190.26 392.24 600.77 907.63 454.94 1063.93 423.15 1070.97 571.01 927.61 675.98 1041.41 652.62
00004417 00000074 705.45 191.50 388.64 606.18 905.98 455.52 1065.12 421.24 1070.51 573.22 930.52 673.63 1048.63 649.74
00004418 00000075 704.86 192.51 390.23 608.02 906.72 461.45 1065.31 428.43 1069.36 578.70 930.60 678.90 1046.63 656.20
00004419 00000076 703.56 198.85 393.73 607.11 907.99 465.60 1068.52 434.53 1069.02 588.18 929.74 687.69 1042.31 667.13
00004420 00000077 700.64 205.95 395.57 597.49 910.74 473.85 1072.70 449.04 1069.48 597.91 938.21 703.04 1045.34 683.07
00004421 00000078 701.46 213.81 392.77 593.41 914.03 480.12 1072.21 451.03 1072.29 602.28 941.00 706.75 1045.05 683.65
00004422 00000079 700.90 212.30 391.26 594.45 914.48 478.72 1069.22 450.09 1069.62 598.89 944.64 705.44 1045.02 682.21
00004423 00000080 700.73 207.46 392.74 594.00 910.46 473.14 1069.14 443.37 1067.09 592.81 941.92 700.24 1045.71 676.25
00004424 00000081 699.98 203.45 393.10 594.62 905.83 467.00 1064.12 438.96 1062.77 587.00 936.88 696.31 1041.01 673.79
00004425 00000082 702.58 203.49 389.52 599.35 903.20 463.40 1063.25 431.99 1064.76 585.28 931.28 683.74 1043.52 662.52
00004426 00000083 702.52 202.40 389.06 599.32 902.75 460.94 1062.89 428.92 1065.04 583.90 929.75 679.98 1045.09 658.17
00004427 00000084 703.39 197.80 390.92 595.93 905.86 458.61 1065.56 430.86 1063.57 577.98 929.93 683.49 1041.49 662.38
00004428 00000085 702.45 192.53 393.56 597.82 905.48 455.92 1065.42 422.73 1067.34 574.68 927.12 679.24 1041.45 654.32
00004429 00000086 699.85 187.22 395.07 600.11 903.34 451.42 1062.67 416.27 1065.95 568.77 926.92 674.83 1041.46 648.28
00004430 00000087 697.82 186.29 392.53 595.69 901.08 445.43 1059.19 410.20 1062.61 561.86 927.75 669.88 1038.76 642.86
00004431 00000088 696.23 184.33 392.25 593.70 897.59 440.53 1057.59 403.58 1058.78 554.13 930.19 665.85 1041.00 636.71
00004432 00000089 692.92 180.50 392.40 597.05 896.64 439.24 1053.80 401.67 1058.12 550.64 931.31 664.87 1039.35 635.10
00004433 00000090 692.31 179.88 392.57 597.15 895.77 442.56 1051.95 404.16 1055.81 553.38 931.98 667.55 1038.38 636.92
00004434 00000091 693.11 180.00 391.69 596.86 896.84 442.67 1052.77 403.96 1057.25 553.72 932.23 668.02 1038.55 637.30
00004435 00000092 691.60 179.57 394.54 595.27 896.59 436.84 1053.48 398.14 1057.96 548.09 933.27 663.41 1039.85 632.46
00004436 00000093 690.00 173.85 395.08 601.36 894.55 433.93 1052.20 396.66 1056.16 543.26 931.74 659.23 1040.64 629.26
00004437 00000094 685.99 173.92 397.96 602.27 891.15 432.36 1049.31 394.82 1053.48 541.33 927.65 655.85 1039.13 625.67
00004438 00000095 685.94 175.53 394.63 601.53 885.58 439.91 1048.63 400.13 1053.71 550.51 925.11 653.11 1050.09 622.60
00004439 00000096 685.14 175.42 390.61 600.41 883.82 441.13 1045.50 401.27 1050.91 551.21 924.45 652.53 1048.37 621.82
00004440 00000097 681.32 171.94 383.76 601.73 878.11 444.03 1035.67 394.16 1045.04 556.27 919.99 663.57 1031.78 624.04
00004441 00000098 680.19 173.68 382.99 600.00 875.58 442.89 1033.14 391.96 1042.69 554.81 917.64 661.93 1030.59 621.79
00004442 00000099 679.20 175.88 382.88 598.23 873.48 442.20 1031.71 392.78 1039.88 555.06 915.77 661.73 1028.91 622.81
00004443 00000100 678.27 176.44 381.64 599.07 870.99 442.33 1030.04 393.40 1037.04 554.75 913.23 661.85 1027.64 623.34
00004444 00000101 677.10 180.05 380.65 598.26 868.63 443.01 1028.24 396.03 1033.66 554.55 910.53 662.51 1026.62 625.56
00004445 00000102 676.95 181.55 379.88 597.71 867.02 443.97 1027.68 396.52 1032.10 555.97 909.19 663.82 1025.79 626.58
00004446 00000103 677.11 180.95 379.86 598.40 867.56 447.50 1027.86 398.91 1031.57 559.15 911.04 667.53 1025.50 629.48
00004447 00000104 678.86 182.00 378.84 597.43 866.14 449.36 1027.75 403.10 1026.39 560.85 914.49 669.87 1028.35 633.22
00004448 00000105 678.71 182.51 378.06 595.89 867.48 447.08 1026.72 401.50 1026.47 559.60 917.11 669.35 1027.82 633.06
00004449 00000106 677.85 180.61 377.24 595.93 865.72 442.67 1026.09 399.13 1024.79 554.97 917.44 666.00 1027.68 631.09
00004450 00000107 677.57 179.86 375.84 594.53 864.24 437.54 1025.57 397.57 1023.94 551.30 918.83 664.38 1027.08 632.10
00004451 00000108 678.26 179.16 376.59 592.59 864.07 434.86 1027.32 396.85 1024.01 551.99 919.43 666.06 1025.58 635.38
00004452 00000109 679.84 179.65 376.50 592.35 864.41 434.32 1027.89 396.95 1024.60 552.03 919.70 666.51 1026.62 636.25
00004453 00000110 681.10 178.63 378.08 597.79 865.74 436.30 1029.00 397.84 1025.30 553.93 918.74 667.93 1027.32 636.96
00004454 00000111 682.62 181.50 377.99 596.58 867.62 441.29 1030.57 400.61 1026.88 558.15 916.81 668.97 1027.88 636.37
00004455 00000112 684.57 182.04 386.87 599.93 878.61 439.33 1037.84 406.22 1035.31 548.46 920.57 662.74 1028.63 635.66
00004456 00000113 687.61 184.06 389.74 598.61 881.31 438.94 1042.39 406.44 1038.49 548.50 922.82 663.01 1033.79 636.04
00004457 00000114 691.36 184.07 389.45 595.16 884.69 437.47 1046.59 407.31 1040.55 548.22 926.71 662.82 1037.85 637.63
00004458 00000115 695.13 184.52 388.84 592.13 888.26 435.98 1050.13 405.29 1044.02 546.73 931.13 662.81 1041.84 637.29
00004459 00000116 696.91 183.84 388.45 591.15 891.49 432.67 1053.15 401.27 1048.76 543.46 935.15 660.98 1044.50 634.84
00004460 00000117 701.65 178.63 386.19 596.20 892.75 432.66 1055.38 397.99 1050.48 540.61 937.03 656.82 1051.15 628.06
00004461 00000118 704.51 180.53 385.17 592.94 892.46 430.34 1057.09 396.27 1049.28 540.89 937.42 656.10 1053.39 627.72
00004462 00000119 705.12 180.80 386.78 593.25 890.63 431.01 1058.28 396.78 1049.54 541.52 934.57 655.42 1055.08 627.05
00004463 00000120 704.64 179.17 388.09 594.95 884.11 433.43 1057.10 401.72 1041.63 545.06 927.87 656.25 1053.08 629.72
00004464 DELETE   702.01 181.55 389.77 594.60 876.02 435.69 1053.42 406.11 1030.40 550.26 920.59 659.24 1047.14 634.02
00004465 DELETE   699.60 183.89 390.03 594.56 867.78 440.51 1048.74 414.38 1019.99 556.60 912.03 660.27 1042.61 637.86
00004466 00000123 695.44 188.01 394.36 595.58 857.41 446.35 1043.92 421.36 1008.13 563.72 903.70 663.78 1041.76 641.62
00004467 00000124 694.77 191.07 396.49 596.45 851.82 450.66 1040.37 426.23 1000.61 569.29 897.26 666.01 1040.26 644.07
00004468 00000125 691.02 197.08 397.56 596.99 849.70 462.62 1035.92 433.52 994.41 579.40 891.34 669.95 1039.61 645.31
00004469 00000126 690.45 198.72 397.47 597.92 848.47 462.85 1035.40 433.69 993.39 580.62 888.90 670.14 1039.25 645.51
00004470 00000127 689.81 200.33 397.89 597.98 848.01 464.39 1035.05 433.94 994.44 582.21 886.87 670.45 1039.08 644.85
00004471 00000128 691.45 198.12 399.88 598.56 846.40 456.21 1035.74 432.86 994.49 578.89 887.55 669.79 1036.88 649.14
00004472 00000129 691.92 198.67 399.46 600.32 846.42 459.12 1036.27 435.34 994.43 582.99 887.12 673.30 1036.63 652.35
00004473 00000130 690.84 200.83 399.84 602.50 845.17 463.20 1035.00 437.04 993.44 588.85 885.20 677.52 1035.77 654.91
00004474 00000131 689.04 201.17 400.47 605.02 843.46 465.67 1032.86 437.30 992.90 590.29 884.55 679.95 1035.14 655.52
00004475 00000132 688.70 200.69 399.93 605.38 841.60 466.44 1031.08 438.06 990.90 589.66 882.73 679.47 1034.18 655.32
00004476 00000133 687.56 200.92 399.77 604.80 840.69 466.06 1029.67 437.44 990.08 588.27 882.82 678.94 1033.64 654.76
00004477 00000134 687.11 200.43 399.43 605.81 839.52 466.20 1029.03 437.60 989.32 587.29 882.47 679.21 1033.30 654.98
00004478 00000135 686.32 201.06 399.33 606.23 839.94 466.71 1027.62 436.30 990.10 587.88 881.79 679.11 1032.42 653.69
00004479 00000136 685.54 201.04 399.74 608.66 840.26 468.28 1026.92 436.73 990.12 591.88 881.08 681.75 1031.22 655.55
00004480 00000137 684.10 207.52 398.30 605.89 842.57 477.37 1026.10 443.11 992.57 599.03 877.90 685.54 1028.48 657.80
00004481 00000138 683.87 210.56 396.65 606.72 844.86 480.88 1024.91 445.69 994.49 602.07 881.08 691.58 1026.14 662.81
00004482 00000139 683.86 211.57 396.19 604.79 843.95 482.34 1023.77 446.78 993.63 601.57 880.65 691.44 1025.91 662.42
00004483 00000140 682.70 211.35 396.27 605.06 841.12 482.12 1021.78 446.74 991.56 601.02 879.18 691.17 1024.90 662.32
00004484 00000141 681.18 209.96 397.20 606.79 837.71 481.23 1019.54 446.19 988.18 600.30 877.50 690.63 1024.99 661.86
00004485 00000142 679.18 210.77 395.33 605.58 835.14 480.87 1017.22 446.18 986.52 598.77 875.10 690.58 1022.70 662.14
00004486 00000143 677.25 211.28 393.48 603.30 830.14 481.40 1013.71 447.17 981.92 598.05 871.81 690.51 1020.38 662.55
00004487 00000144 675.07 211.81 390.90 603.02 826.68 483.12 1011.06 448.52 978.49 599.78 869.24 691.33 1018.00 663.35
00004488 00000145 669.53 207.76 393.56 601.48 825.79 483.66 1015.20 453.03 976.03 602.11 858.75 690.53 1017.70 665.71
00004489 00000146 665.98 206.65 394.86 604.32 821.04 484.97 1013.23 452.98 973.41 603.91 857.24 693.01 1017.35 666.57
00004490 00000147 662.64 206.89 394.86 601.40 813.46 482.87 1009.19 450.57 968.08 603.10 852.26 691.70 1015.66 664.77
00004491 00000148 654.27 205.37 397.19 597.73 805.68 481.29 999.67 441.81 964.06 600.71 844.67 688.43 1009.81 655.74
00004492 00000149 643.34 197.58 401.26 600.85 790.33 475.17 986.43 436.01 946.39 587.45 837.05 682.10 1000.35 648.59
00004493 DELETE   639.12 193.42 395.90 603.92 775.16 469.86 972.47 430.38 927.44 578.23 832.39 677.38 993.08 643.02
00004494 DELETE   627.70 190.43 400.86 602.65 762.48 466.29 956.34 421.39 911.33 573.06 828.71 674.01 983.21 634.15
00004495 00000152 614.27 195.06 403.76 596.49 757.07 474.40 945.78 426.48 902.71 578.34 823.09 673.50 975.38 632.50
00004496 00000153 613.67 195.11 403.34 596.94 755.04 475.09 944.15 426.27 900.89 578.92 823.19 674.15 975.23 632.34
00004497 00000154 616.17 194.64 400.58 595.46 758.77 473.92 947.27 426.28 904.39 578.58 826.03 673.66 976.99 632.78
00004498 00000155 626.27 189.08 400.40 602.12 762.45 465.45 950.96 415.60 910.48 568.25 833.94 671.28 981.41 627.32
00004499 00000156 632.28 188.72 398.99 606.01 768.33 463.95 960.37 417.33 918.69 567.61 836.55 673.70 988.02 632.36
00004500 DELETE   637.83 190.91 399.49 605.83 776.93 466.48 971.78 422.02 930.32 571.93 839.17 677.96 994.08 639.17
00004501 DELETE   641.54 188.96 401.19 600.78 789.65 465.22 981.83 414.88 948.58 569.09 846.82 676.08 1002.10 633.08
00004502 00000159 645.31 186.20 402.24 593.56 799.39 458.55 988.51 406.95 960.11 561.06 851.73 669.26 1005.91 625.87
00004503 00000160 652.88 180.98 397.27 594.86 806.02 453.67 993.31 400.95 966.01 556.91 857.11 663.86 1011.56 620.26
00004504 00000161 655.84 178.09 395.47 597.18 809.55 450.61 995.26 399.59 968.64 554.11 860.49 663.38 1011.71 621.86
00004505 00000162 657.46 178.39 394.52 596.15 812.17 449.15 997.09 399.91 970.77 554.09 864.08 663.87 1011.85 623.90
00004506 00000163 661.54 180.48 395.12 600.26 811.82 445.90 998.81 402.62 968.69 553.90 883.05 657.83 1030.44 621.28
00004507 00000164 663.76 183.69 396.40 599.23 814.43 446.72 1001.32 404.91 972.05 555.82 887.95 663.15 1030.86 627.90
00004508 00000165 665.23 188.36 396.70 598.03 816.89 450.30 1003.49 408.51 974.26 558.31 889.71 666.04 1031.91 630.77
00004509 00000166 668.04 187.78 394.58 599.85 819.67 452.10 1004.60 410.57 976.15 558.65 892.29 666.94 1033.45 631.88
00004510 00000167 670.38 186.27 392.73 602.19 821.27 451.78 1005.77 411.36 976.38 559.05 892.78 667.82 1032.46 633.72
