Video ID: 	78h0eBipfz0
H: 	1080
W: 	1920
FPS: 	25.0

FRAME INDEX X0 Y0 W H [Landmarks (5 Points)]

00008730 00000000 401.29 140.25 549.55 782.88 597.30 452.62 834.09 409.56 776.20 557.74 672.13 732.87 861.66 692.94
00008731 00000001 403.07 139.18 545.70 771.96 598.37 452.74 836.77 407.51 777.67 560.62 674.18 730.37 861.40 688.41
00008732 00000002 402.63 139.23 546.40 773.23 598.15 456.63 838.32 410.31 779.61 565.48 674.12 734.06 862.53 691.50
00008733 00000003 402.34 145.78 544.66 775.56 595.73 461.38 838.81 413.07 778.92 571.49 671.37 740.69 865.25 696.48
00008734 00000004 400.04 146.54 547.63 786.19 596.88 462.92 836.22 413.28 779.91 573.76 672.95 747.02 863.98 702.21
00008735 00000005 399.44 154.62 548.78 778.77 594.58 464.85 833.96 414.13 777.00 576.39 672.44 749.87 862.98 704.02
00008736 00000006 398.64 148.68 546.90 780.48 593.54 463.53 833.60 412.89 776.34 576.41 671.24 748.22 862.48 702.47
00008737 00000007 389.37 139.65 560.33 790.66 594.51 457.73 839.55 413.67 788.09 576.79 667.58 744.38 870.70 706.30
00008738 00000008 397.32 144.13 545.07 775.44 591.89 460.80 833.49 413.03 774.45 573.45 667.46 741.19 860.12 697.72
00008739 00000009 397.07 143.09 546.36 780.65 591.81 459.40 833.48 412.21 774.47 572.86 666.97 742.33 860.22 699.43
00008740 00000010 399.58 150.19 546.01 776.52 596.23 463.36 836.75 414.19 779.09 578.50 672.11 749.35 861.85 704.95
00008741 00000011 399.97 168.58 548.92 765.80 600.60 475.40 840.12 427.88 783.84 585.18 679.30 758.05 864.57 715.19
00008742 DELETE   401.54 173.51 545.39 762.79 610.54 492.96 849.76 438.84 802.95 610.20 680.55 766.77 869.40 720.04
00008743 00000013 401.84 187.62 551.20 769.34 613.71 509.76 850.24 456.47 811.05 630.25 688.57 779.42 884.23 734.19
00008744 00000014 408.22 205.65 547.95 767.21 614.93 513.10 856.28 465.69 813.42 638.27 691.76 788.52 889.85 747.56
00008745 00000015 404.87 191.84 552.07 780.63 617.99 516.70 859.81 470.23 814.75 637.60 692.60 789.44 889.46 749.04
00008746 00000016 399.74 182.70 557.87 787.93 617.42 513.81 861.97 467.71 820.15 631.66 699.84 789.96 895.75 749.19
00008747 00000017 399.11 176.39 557.08 787.41 618.16 504.38 862.35 458.42 823.01 620.94 705.82 786.00 895.03 745.44
00008748 00000018 399.71 162.25 556.89 799.69 617.66 494.77 862.17 449.01 823.57 614.34 702.71 783.22 894.25 743.22
00008749 00000019 399.73 155.24 557.01 804.56 619.13 490.84 861.86 444.05 824.64 611.13 699.38 777.42 893.95 736.71
00008750 00000020 400.38 155.08 555.29 804.82 620.06 486.38 863.08 442.80 824.41 608.53 698.59 776.65 893.39 738.53
00008751 00000021 400.27 153.51 556.57 809.31 620.04 484.00 866.55 442.74 825.28 608.18 699.11 777.27 895.12 740.80
00008752 00000022 404.20 163.71 548.46 797.79 625.07 481.43 865.22 439.13 818.33 609.18 692.65 774.87 885.81 734.94
00008753 00000023 402.36 158.49 551.84 806.02 622.71 482.79 865.66 445.21 825.35 608.36 693.01 775.57 890.31 742.44
00008754 00000024 399.79 154.73 552.72 795.19 619.93 482.23 865.09 443.41 823.00 609.18 692.83 772.91 887.64 738.80
00008755 00000025 397.80 156.19 553.03 784.84 618.87 481.96 864.63 441.65 822.59 609.56 695.28 768.04 888.80 732.76
00008756 00000026 397.62 152.37 553.87 788.11 619.39 479.22 864.44 439.95 822.67 606.23 698.11 768.35 889.40 733.86
00008757 00000027 396.29 147.94 555.45 791.23 618.05 477.30 865.31 437.86 823.43 604.22 697.04 767.55 892.14 732.69
00008758 00000028 393.97 143.27 558.75 799.09 616.92 475.78 864.90 436.89 822.37 600.08 694.47 767.31 892.20 732.80
00008759 00000029 393.96 147.39 558.72 797.84 614.88 474.01 860.72 435.79 819.14 599.13 691.82 767.48 887.26 733.80
00008760 00000030 393.19 144.30 558.67 797.36 610.70 472.04 855.16 429.93 813.86 599.06 687.04 763.00 882.26 726.40
00008761 00000031 402.29 159.22 552.29 774.95 610.48 468.78 846.77 419.19 794.30 581.11 687.51 753.74 869.95 709.47
00008762 00000032 397.88 147.71 552.35 784.70 604.56 466.63 839.63 416.15 787.94 573.18 680.57 750.42 865.53 705.18
00008763 00000033 392.82 143.43 551.14 778.95 596.63 463.60 839.92 413.25 782.75 576.88 672.18 746.04 862.67 700.46
00008764 00000034 382.28 136.47 565.72 794.08 591.49 455.82 843.49 410.80 789.40 578.56 662.75 742.54 871.31 703.54
00008765 00000035 382.03 135.69 564.58 793.43 588.72 455.31 840.42 412.19 784.47 576.91 661.55 743.53 868.24 706.10
00008766 00000036 383.36 136.93 560.03 792.01 587.47 455.11 837.97 414.38 781.17 576.46 662.70 746.22 865.88 710.89
00008767 00000037 387.57 140.52 547.06 784.28 586.70 456.64 830.85 413.26 769.11 577.29 665.15 746.31 853.30 706.53
00008768 00000038 383.27 137.68 549.82 790.46 584.02 454.89 828.98 411.50 768.05 573.27 663.79 746.77 852.80 706.80
00008769 00000039 378.70 133.16 551.90 795.92 579.75 451.98 825.31 409.08 763.48 570.99 658.98 745.31 849.58 705.63
00008770 00000040 365.89 132.64 567.76 809.97 579.73 448.22 825.50 408.35 777.59 568.77 656.85 746.81 859.73 711.30
00008771 00000041 362.09 132.36 564.77 811.78 576.91 447.18 821.21 407.48 773.56 566.38 652.20 743.95 855.11 708.06
00008772 00000042 360.41 133.88 559.97 807.33 570.76 447.06 817.17 406.64 768.08 567.01 647.78 743.86 851.90 707.37
00008773 00000043 357.33 134.37 558.14 810.17 566.91 449.90 814.24 410.18 765.35 572.77 643.54 747.99 848.81 712.57
00008774 00000044 355.69 141.81 555.94 802.71 561.89 456.67 809.52 415.16 760.94 579.05 639.70 751.45 843.92 714.83
00008775 00000045 347.66 136.25 562.12 815.46 555.28 460.76 805.60 416.61 756.23 586.87 636.69 759.34 840.34 720.64
00008776 00000046 349.08 146.93 560.25 809.37 548.75 463.52 799.27 419.96 745.22 592.25 630.72 762.64 833.59 724.25
00008777 00000047 346.66 155.65 560.78 805.72 544.93 466.94 795.86 423.14 740.62 596.10 629.03 764.86 829.68 726.42
00008778 00000048 342.68 151.91 561.29 811.16 542.97 467.81 793.21 422.32 739.90 598.13 628.44 767.07 825.97 727.50
00008779 00000049 338.29 149.10 565.08 815.21 539.62 469.43 790.92 422.98 737.43 602.90 625.76 767.82 823.88 727.49
00008780 00000050 337.53 151.35 564.83 807.84 536.71 472.81 788.63 425.99 733.39 606.53 620.31 766.59 822.40 726.06
00008781 00000051 337.67 151.19 564.20 806.88 536.31 474.70 787.66 428.32 732.07 607.53 616.65 765.17 822.45 725.04
00008782 00000052 338.97 150.73 561.62 807.37 536.05 476.31 787.10 429.11 731.27 608.08 615.99 765.31 822.65 724.66
00008783 00000053 337.15 149.33 562.23 811.16 536.72 477.09 786.38 430.29 733.38 606.78 616.11 766.80 821.42 726.34
00008784 00000054 336.29 149.31 561.92 814.79 536.57 475.89 785.74 431.12 732.96 606.35 619.65 771.03 819.36 732.54
00008785 00000055 334.33 146.38 562.84 813.52 534.84 478.35 786.46 433.15 732.69 609.66 618.77 772.39 820.09 733.58
00008786 00000056 334.09 152.01 563.78 804.05 533.65 478.89 788.67 434.66 731.66 612.61 617.37 772.19 819.53 734.33
00008787 00000057 335.04 151.30 562.55 808.78 534.59 479.95 789.63 434.97 733.12 613.98 618.45 774.04 821.63 735.46
00008788 00000058 336.87 154.02 561.48 806.63 534.48 480.70 790.48 435.71 732.52 615.13 618.52 775.39 822.72 736.75
00008789 00000059 336.58 153.40 561.91 805.35 533.22 482.48 791.31 437.20 731.70 617.09 615.61 774.22 824.04 735.15
00008790 00000060 336.33 151.12 562.41 805.04 535.21 481.34 791.81 437.40 733.64 615.31 617.93 774.05 822.92 736.04
00008791 00000061 336.66 144.88 562.40 811.56 535.93 479.30 793.40 436.03 734.44 612.33 621.00 774.01 824.33 736.16
00008792 00000062 337.08 144.42 563.26 817.67 538.23 478.33 794.31 434.36 737.51 609.50 625.90 775.64 826.75 737.18
00008793 00000063 340.12 144.67 562.25 823.27 541.09 478.89 796.59 435.29 739.52 607.60 629.14 777.57 829.30 739.30
00008794 00000064 343.02 149.43 560.56 822.61 544.19 481.24 796.98 437.60 740.78 609.21 631.61 780.57 830.94 742.42
00008795 00000065 345.29 147.80 562.59 826.82 545.95 483.77 797.74 440.71 740.92 612.86 630.49 781.89 830.90 744.21
00008796 00000066 347.06 153.88 564.00 822.55 547.17 484.63 799.87 440.29 743.34 615.12 630.34 782.99 833.75 744.28
00008797 00000067 348.93 153.00 564.36 821.68 549.21 485.09 804.70 441.87 746.54 615.47 630.36 782.63 836.62 744.64
00008798 00000068 349.49 153.59 565.82 818.51 550.36 483.21 807.40 439.30 749.38 615.65 632.43 782.42 838.63 743.80
00008799 00000069 349.10 154.43 568.06 819.25 551.96 485.96 807.44 443.57 750.25 613.92 632.73 781.97 839.89 744.41
00008800 00000070 350.61 150.88 567.80 824.60 552.27 487.92 808.91 444.13 750.86 614.72 633.01 782.83 841.89 744.21
00008801 00000071 347.05 149.36 569.74 826.84 550.30 490.14 807.85 446.27 749.29 618.98 630.36 785.58 838.62 746.99
00008802 00000072 346.46 150.84 568.22 823.24 548.72 492.71 805.10 449.20 745.54 622.14 626.15 785.69 834.88 747.63
00008803 00000073 346.61 149.83 569.25 823.58 545.89 496.42 802.43 453.45 739.55 621.80 623.79 785.39 833.31 747.85
00008804 00000074 344.33 150.06 572.01 824.96 541.01 498.98 798.57 456.26 731.51 626.34 618.75 787.28 829.24 749.99
00008805 00000075 344.08 152.42 571.03 824.22 539.18 499.22 796.06 457.19 728.49 629.74 618.84 789.09 825.53 752.60
00008806 00000076 346.75 158.05 568.75 813.58 537.08 501.11 796.35 459.30 725.98 633.44 615.52 789.51 826.15 753.27
00008807 00000077 348.25 161.54 569.00 810.73 536.26 500.60 796.21 460.16 723.90 635.44 614.77 790.00 825.48 754.85
00008808 00000078 348.91 164.62 570.82 818.87 536.88 501.44 796.51 460.62 725.35 635.82 616.58 794.52 827.40 759.12
00008809 00000079 354.22 173.91 565.88 806.57 536.21 501.39 798.97 461.90 724.75 641.00 615.64 797.10 828.03 763.10
00008810 00000080 358.50 174.39 565.02 805.02 542.91 507.03 803.72 467.59 729.01 645.98 614.89 795.13 830.74 761.24
00008811 00000081 361.13 174.43 566.22 800.48 548.07 510.66 807.00 470.23 730.69 648.88 615.38 789.82 832.25 755.30
00008812 00000082 364.49 176.34 566.28 811.09 552.09 504.92 808.80 469.93 732.52 643.54 617.31 790.07 832.77 760.00
00008813 00000083 376.49 182.09 556.27 800.06 559.33 503.61 818.10 467.46 738.57 641.46 622.02 793.68 833.22 760.64
00008814 00000084 384.55 173.44 555.99 800.56 566.13 503.48 827.14 468.95 745.14 639.19 626.80 788.22 840.77 756.30
00008815 00000085 393.04 169.98 547.70 793.83 577.23 502.03 828.45 469.35 751.39 636.99 632.25 779.88 840.66 752.26
00008816 00000086 396.43 168.97 547.18 794.56 583.81 499.40 833.18 468.73 757.32 636.61 637.39 778.67 844.13 752.67
00008817 00000087 397.91 167.76 552.64 796.36 586.40 498.01 839.02 465.70 763.56 635.35 647.37 783.85 848.20 754.72
00008818 00000088 400.50 171.90 556.42 789.18 589.18 497.33 843.36 466.52 765.68 636.15 651.61 782.49 852.91 754.64
00008819 00000089 401.63 175.98 559.14 780.23 593.37 496.74 846.76 465.42 771.20 629.53 661.65 783.18 855.85 755.02
00008820 00000090 398.49 164.01 556.48 798.64 592.73 491.51 851.31 462.31 777.55 622.96 662.57 780.34 862.33 753.76
00008821 00000091 401.11 151.55 555.91 801.58 592.80 486.32 855.63 455.14 779.54 617.59 661.65 773.07 868.34 745.06
00008822 00000092 407.22 154.77 549.92 788.35 600.67 481.69 857.66 447.32 786.51 613.79 670.85 764.65 873.55 734.60
00008823 00000093 411.20 151.54 549.65 787.96 612.65 472.13 862.40 445.05 797.33 607.62 681.28 763.57 874.88 739.64
00008824 00000094 412.71 152.90 554.08 786.54 614.36 468.65 866.47 438.56 803.07 601.89 682.96 757.30 883.34 730.50
00008825 00000095 414.63 143.09 552.66 794.79 614.63 465.88 868.65 430.94 808.05 599.45 682.61 753.30 892.06 722.16
00008826 00000096 416.39 138.14 552.45 802.83 618.34 462.50 869.54 425.29 813.08 593.91 687.56 753.46 895.41 720.53
00008827 00000097 418.16 139.10 551.27 798.66 619.17 460.49 869.19 423.03 813.77 591.01 690.04 755.58 894.80 722.75
00008828 00000098 418.26 138.24 550.64 798.57 618.63 459.97 869.39 421.95 813.84 591.23 688.55 754.94 895.05 721.52
00008829 00000099 419.53 138.57 549.09 800.44 617.98 459.71 868.76 421.55 812.37 591.22 686.37 753.81 894.68 720.29
00008830 00000100 419.75 138.09 549.32 802.77 617.63 460.70 867.79 422.88 810.93 590.80 686.89 755.25 893.53 722.05
00008831 00000101 419.52 138.46 549.83 803.31 617.38 460.78 866.92 423.06 809.64 591.31 685.87 755.01 892.28 721.95
00008832 00000102 419.58 136.30 549.32 802.20 616.66 459.46 867.21 421.91 809.04 590.66 685.10 753.71 891.90 720.72
00008833 00000103 419.48 137.20 549.21 798.23 616.08 458.47 867.29 422.02 806.75 591.07 683.63 751.68 890.30 719.58
00008834 00000104 415.65 137.29 553.11 797.72 612.90 457.59 864.35 422.33 803.84 592.61 680.95 751.09 885.99 720.23
00008835 00000105 411.37 142.38 552.93 785.37 604.41 462.72 856.60 431.35 786.49 599.39 668.42 751.88 869.65 724.53
00008836 DELETE   401.74 143.55 557.34 793.80 577.82 461.23 841.19 428.51 758.87 599.72 646.42 753.59 856.53 725.12
00008837 DELETE   401.39 163.98 556.35 761.93 558.82 462.53 818.97 436.73 717.21 608.09 620.69 751.80 822.58 729.92
00008838 DELETE   389.98 150.96 557.07 798.36 537.13 461.14 794.79 439.65 680.40 607.68 586.24 751.37 799.10 734.02
00008839 00000109 378.83 155.39 564.31 788.49 515.94 458.75 779.08 435.79 656.07 610.67 566.04 754.91 779.52 735.79
00008840 00000110 374.69 161.81 562.03 781.53 507.34 458.22 768.36 436.73 642.54 608.60 557.19 755.28 764.30 737.00
00008841 00000111 373.42 162.30 560.84 788.32 499.85 455.12 759.78 434.74 630.59 607.90 551.46 757.67 754.24 740.15
00008842 00000112 372.32 164.18 559.45 781.61 492.60 455.34 754.15 435.55 621.21 610.93 544.39 757.04 748.03 739.97
00008843 00000113 368.68 159.18 562.23 786.38 488.73 453.40 751.42 434.21 616.76 609.79 540.29 756.91 744.04 740.46
00008844 00000114 368.27 160.24 561.04 784.54 485.95 451.02 749.68 432.86 612.62 606.32 536.13 756.16 738.90 740.80
00008845 00000115 366.37 158.47 562.63 784.34 483.57 450.08 747.98 430.72 610.67 604.34 535.96 755.96 736.72 739.78
00008846 00000116 365.46 157.22 562.07 787.47 483.06 449.22 746.89 430.16 609.27 602.03 534.71 756.22 733.98 740.52
00008847 00000117 364.80 159.04 561.47 786.98 482.28 449.19 746.56 431.60 608.19 602.64 532.99 757.58 731.25 743.10
00008848 00000118 363.98 157.52 560.69 784.97 481.54 450.17 744.97 432.53 606.74 603.15 532.40 758.02 727.44 743.72
00008849 00000119 364.15 158.47 559.16 781.77 481.31 450.36 744.81 432.82 607.11 602.96 532.71 758.42 725.66 744.28
00008850 00000120 363.64 156.40 558.06 780.59 480.39 450.06 744.90 433.33 606.71 601.50 531.50 758.84 724.08 745.36
00008851 00000121 363.33 157.36 557.03 778.05 480.38 448.90 744.55 433.70 606.24 600.85 530.50 757.53 720.55 745.41
00008852 00000122 361.16 159.42 558.07 775.49 479.81 450.29 744.08 435.67 605.49 601.87 529.36 756.85 718.90 745.22
00008853 00000123 361.37 162.07 555.68 774.53 480.71 450.69 743.36 437.07 605.75 601.68 529.84 757.31 716.20 746.67
00008854 00000124 360.22 159.56 556.39 784.58 482.15 450.99 742.54 437.64 606.52 600.46 531.18 759.89 714.84 749.54
00008855 00000125 357.96 161.24 559.30 788.92 482.41 451.11 743.96 437.61 608.18 600.56 531.19 763.59 714.76 753.20
00008856 00000126 357.61 161.84 559.79 795.28 483.30 451.23 744.33 437.92 608.60 602.00 530.08 764.61 717.46 754.38
00008857 00000127 358.00 160.94 559.08 792.74 482.94 453.93 744.26 438.16 610.08 604.71 530.89 763.82 722.13 751.30
00008858 00000128 361.73 164.22 553.71 778.44 481.61 456.01 745.21 438.18 610.02 607.46 531.19 764.28 725.18 749.94
00008859 00000129 360.02 164.34 557.53 794.99 485.90 453.58 745.53 436.50 612.52 602.42 537.17 768.70 726.24 754.90
00008860 00000130 359.52 161.55 558.69 820.40 488.74 451.92 745.06 435.26 613.41 597.01 540.17 776.67 725.05 763.25
00008861 00000131 369.36 166.44 547.58 800.76 490.49 449.48 745.41 441.07 612.44 608.52 547.87 766.02 721.56 758.92
00008862 00000132 361.46 156.77 558.19 820.07 489.93 453.35 747.27 433.58 618.36 598.28 543.26 774.66 730.92 758.61
00008863 00000133 362.79 157.78 557.44 811.57 490.40 455.91 749.24 434.70 621.27 603.73 543.04 769.70 738.32 752.00
00008864 00000134 369.74 165.18 547.27 789.46 496.79 458.00 752.45 444.75 620.49 614.79 542.98 759.65 738.09 749.06
00008865 00000135 375.63 172.05 545.34 784.98 508.38 463.82 763.47 453.22 633.48 619.98 553.42 761.87 747.90 753.83
00008866 00000136 374.09 156.12 558.31 811.67 518.20 462.85 774.99 444.60 656.12 609.13 568.00 766.47 765.38 750.83
00008867 00000137 383.66 160.07 548.86 787.06 532.45 471.32 793.74 456.52 678.88 619.31 581.42 760.52 788.12 748.80
00008868 00000138 385.78 158.94 553.76 791.54 542.53 469.71 804.75 450.53 697.89 612.99 595.36 757.06 804.58 741.16
00008869 00000139 388.88 151.94 556.90 801.07 557.49 467.61 812.75 448.28 713.85 610.62 612.90 759.84 814.17 743.57
00008870 00000140 394.25 159.10 555.27 793.93 569.87 471.32 819.40 450.52 726.97 608.56 623.45 759.04 825.94 741.02
00008871 00000141 400.74 167.43 547.33 776.11 571.05 472.85 824.34 443.40 734.33 603.63 635.21 756.68 832.28 728.22
00008872 00000142 399.25 165.45 553.17 776.43 578.75 466.79 831.41 441.02 747.24 604.21 640.45 760.19 838.58 738.08
00008873 00000143 400.60 166.81 555.38 770.84 579.73 463.81 835.06 436.66 752.34 602.20 645.46 759.21 844.79 736.04
00008874 00000144 403.86 161.13 550.00 776.11 586.51 462.42 838.31 428.15 759.65 597.66 658.57 761.00 849.54 729.71
00008875 00000145 403.99 166.30 553.59 774.18 593.08 458.64 840.00 425.71 764.89 593.07 665.04 759.15 849.52 729.09
00008876 00000146 394.45 157.04 559.22 796.80 591.03 456.11 847.54 432.94 776.76 600.60 662.48 763.73 858.43 742.84
00008877 00000147 394.94 154.82 558.68 800.90 591.74 457.80 849.84 433.77 779.14 599.83 661.19 763.44 861.76 741.68
00008878 00000148 394.95 153.76 557.71 797.89 589.82 458.76 852.24 432.55 779.71 600.70 657.46 761.64 865.66 737.80
00008879 00000149 394.13 151.91 558.49 793.94 592.25 458.60 852.64 429.74 784.19 602.37 656.97 757.17 867.01 731.24
00008880 00000150 396.03 148.95 557.11 789.57 592.70 458.12 852.87 428.13 784.89 602.33 658.00 753.86 868.17 727.06
00008881 00000151 396.39 148.57 557.87 788.28 594.82 458.48 853.40 428.44 786.62 602.08 659.94 753.19 868.61 726.34
00008882 00000152 396.08 146.30 559.71 794.88 596.28 459.36 853.69 429.30 787.97 600.50 662.77 755.30 870.75 728.33
00008883 00000153 396.97 145.08 559.72 798.22 597.68 459.57 852.91 430.15 787.31 599.51 665.32 755.92 869.01 729.56
00008884 00000154 396.07 144.72 558.80 798.20 597.85 459.85 852.90 429.47 788.94 599.27 662.78 754.66 869.00 727.57
00008885 00000155 393.81 142.47 559.97 804.72 596.47 458.23 853.68 427.15 788.84 600.39 659.57 754.58 869.45 726.91
00008886 00000156 398.30 134.65 556.26 827.71 593.22 455.50 850.36 424.23 782.86 586.79 665.12 756.86 870.37 729.11
00008887 00000157 404.69 156.88 549.12 786.90 600.77 459.88 844.57 421.06 777.93 583.57 669.56 754.04 859.66 718.50
00008888 00000158 403.35 150.91 548.25 792.71 597.61 460.14 844.26 420.02 776.00 585.14 666.66 755.38 859.78 718.81
00008889 00000159 401.97 146.37 548.76 801.08 598.04 458.32 841.54 418.53 776.00 580.86 671.15 758.02 859.18 722.02
00008890 00000160 401.25 144.77 548.73 803.52 599.14 455.44 838.59 416.91 776.55 576.37 674.18 757.73 856.70 723.29
00008891 00000161 400.82 141.30 549.00 806.59 598.71 454.96 839.59 415.11 777.78 576.27 673.05 756.83 859.01 721.24
00008892 00000162 391.15 134.58 558.20 807.60 598.27 454.40 851.91 424.12 790.44 590.55 669.75 757.23 868.39 729.53
00008893 00000163 393.59 134.45 562.20 807.31 610.11 459.33 858.02 426.62 806.65 590.99 678.86 757.20 875.79 727.74
00008894 00000164 405.67 133.78 554.73 805.43 625.30 463.07 874.76 430.79 826.55 592.49 691.58 755.72 893.96 726.39
00008895 00000165 417.20 141.55 548.64 795.11 643.89 461.37 892.03 426.00 850.90 593.44 705.65 751.37 914.37 719.08
00008896 00000166 434.56 142.15 541.65 796.50 672.36 457.09 906.19 424.77 865.23 582.83 726.18 747.74 917.08 716.66
00008897 00000167 442.91 145.68 544.40 798.32 687.65 450.58 913.82 419.04 880.50 578.53 740.77 748.79 921.86 718.98
00008898 00000168 454.73 143.29 543.40 795.18 705.12 454.63 923.68 421.57 896.39 576.29 759.80 747.27 932.84 717.51
00008899 00000169 463.86 151.66 539.36 782.16 714.44 454.32 931.19 418.82 908.27 574.08 773.40 747.61 942.66 716.47
00008900 00000170 471.63 148.10 534.84 779.87 724.23 456.16 936.33 417.59 918.44 575.59 786.90 749.21 950.15 715.96
