Video ID: 	Z2gRuFFuzmQ
H: 	1080
W: 	1920
FPS: 	30.0

FRAME INDEX X0 Y0 W H [Landmarks (5 Points)]

00053189 00000000 826.32 114.95 408.23 633.33 933.44 399.50 1138.27 401.37 1041.60 506.48 942.65 601.83 1113.32 603.32
00053190 DELETE   815.50 112.21 409.17 637.09 924.10 399.36 1131.70 401.70 1033.13 503.96 933.15 601.83 1104.00 603.89
00053191 DELETE   808.45 120.43 405.02 627.75 916.45 404.51 1111.97 405.03 1023.84 516.53 933.92 615.20 1095.49 616.05
00053192 DELETE   800.88 125.12 402.36 628.34 910.13 405.70 1105.02 403.31 1014.02 521.97 925.33 618.21 1085.13 615.34
00053193 00000004 792.43 127.63 404.31 626.17 897.88 412.24 1097.47 411.40 1008.83 521.33 920.40 622.30 1084.48 621.07
00053194 DELETE   790.61 128.22 401.95 627.48 893.85 415.22 1095.62 412.13 1006.84 521.37 917.21 624.53 1084.04 621.57
00053195 00000006 782.78 128.51 404.34 624.95 891.47 418.24 1094.29 406.04 1003.71 522.54 908.60 624.27 1077.86 613.85
00053196 DELETE   778.89 127.91 402.82 623.76 884.66 413.81 1082.61 401.74 996.11 519.04 906.82 620.10 1069.40 609.97
00053197 00000008 773.61 125.37 406.64 625.63 879.61 414.02 1077.89 401.99 989.20 515.20 901.92 617.91 1065.18 607.93
00053198 00000009 767.76 122.39 406.06 628.98 869.41 410.20 1069.54 397.39 976.53 509.49 893.25 613.17 1058.96 602.66
00053199 00000010 763.84 114.84 402.43 631.50 863.46 405.10 1062.24 391.80 970.33 500.68 890.55 607.67 1053.62 596.80
00053200 DELETE   761.02 114.21 400.83 629.07 860.01 402.91 1058.47 389.86 967.06 497.65 888.64 604.62 1051.19 594.06
00053201 00000012 753.69 107.65 400.71 637.90 854.21 399.79 1053.51 387.89 963.14 495.02 882.36 604.16 1046.37 594.58
00053202 00000013 748.98 102.51 400.74 641.05 849.17 397.49 1047.14 386.42 959.72 493.32 878.47 603.33 1040.89 594.43
00053203 00000014 743.90 109.54 395.96 639.23 844.47 401.31 1035.57 381.89 953.02 502.02 875.92 614.88 1032.31 598.30
00053204 00000015 741.88 110.98 393.43 638.88 843.00 400.74 1034.90 381.28 954.17 498.23 874.68 616.50 1032.23 599.92
00053205 00000016 738.32 106.13 393.57 642.29 840.94 396.57 1033.16 378.07 954.35 494.79 873.51 615.14 1029.77 599.46
00053206 00000017 737.13 102.74 393.64 645.25 840.51 395.86 1033.90 376.73 955.81 491.62 873.92 614.94 1030.76 598.70
00053207 DELETE   734.93 100.00 394.71 643.85 840.91 393.00 1035.38 372.82 958.72 485.92 877.31 613.11 1033.38 596.07
00053208 00000019 737.81 101.41 389.28 640.49 841.10 390.58 1035.29 369.60 961.60 481.71 878.95 611.31 1035.17 593.32
00053209 00000020 738.47 98.82 388.21 642.33 841.95 390.90 1035.24 369.12 963.15 480.96 880.70 611.37 1035.60 592.60
00053210 00000021 744.31 100.01 386.39 644.82 847.50 389.87 1041.59 367.74 969.34 477.67 886.21 612.85 1041.54 593.96
00053211 00000022 749.64 92.45 389.04 653.26 860.83 385.14 1055.73 372.70 991.63 473.08 898.05 602.39 1052.77 592.61
00053212 00000023 752.29 95.87 389.41 649.36 865.75 385.55 1059.94 375.43 995.77 474.59 901.19 601.24 1055.38 593.23
00053213 00000024 754.96 102.20 391.29 646.86 870.60 389.81 1067.24 379.37 1005.62 479.49 907.60 605.23 1064.62 596.35
00053214 00000025 766.08 102.81 384.94 646.27 876.64 394.62 1073.79 380.29 1009.28 482.59 913.44 606.23 1073.00 593.81
00053215 00000026 767.98 101.01 387.15 648.44 876.98 396.35 1074.11 379.91 1008.47 482.88 914.29 606.52 1074.68 592.43
00053216 00000027 768.46 101.31 388.03 645.94 877.39 395.49 1076.00 378.09 1009.70 483.21 915.25 606.23 1076.90 591.41
00053217 00000028 769.03 99.76 389.79 645.30 875.30 394.20 1075.15 376.09 1006.49 483.02 912.58 604.16 1077.30 588.84
00053218 00000029 768.17 100.47 390.57 642.38 874.65 392.85 1073.29 376.03 1004.67 481.68 912.23 602.92 1074.41 588.72
00053219 00000030 763.90 95.94 393.93 642.76 871.53 387.59 1070.31 371.47 1001.63 478.98 910.00 600.13 1071.42 586.26
00053220 00000031 758.91 95.20 397.80 641.58 868.77 384.92 1066.73 371.14 996.66 478.42 906.84 598.30 1065.21 586.48
00053221 00000032 758.39 95.04 396.86 641.20 867.24 384.77 1065.76 372.10 994.65 478.42 904.20 597.84 1063.00 587.00
00053222 00000033 755.59 95.69 399.01 641.29 865.20 384.94 1064.76 372.84 992.32 478.87 901.17 597.31 1061.24 586.88
00053223 00000034 756.45 96.37 397.22 642.61 864.53 386.84 1063.44 375.01 990.36 481.16 900.54 599.65 1059.03 589.51
00053224 00000035 756.23 92.19 396.79 648.20 863.65 388.06 1062.87 377.69 987.71 482.49 896.99 599.41 1057.88 590.17
00053225 00000036 754.53 91.98 396.48 648.87 861.62 388.61 1061.52 377.70 985.27 482.86 895.75 599.00 1058.09 589.22
00053226 00000037 752.73 90.59 397.41 648.67 860.53 388.51 1061.65 376.72 985.22 481.80 895.84 598.69 1057.56 588.30
00053227 00000038 752.60 89.84 397.38 647.22 860.07 387.60 1061.00 375.08 984.58 480.80 895.78 597.44 1056.68 586.53
00053228 00000039 748.66 87.18 399.86 648.18 857.19 384.84 1059.60 370.91 983.94 479.14 894.28 595.95 1057.02 583.82
00053229 00000040 749.53 87.75 397.62 641.30 854.06 380.82 1057.48 366.97 980.35 475.02 891.65 592.57 1054.96 580.71
00053230 00000041 748.34 83.66 398.41 646.11 852.46 379.19 1055.72 365.05 978.75 472.32 889.75 591.29 1054.90 579.07
00053231 00000042 746.24 83.28 395.46 642.84 848.86 378.61 1053.27 363.81 976.45 469.36 886.07 589.41 1052.75 576.88
00053232 00000043 741.32 87.19 392.89 643.53 840.94 388.10 1036.88 357.92 962.11 477.16 883.96 604.77 1041.13 579.14
00053233 00000044 739.42 85.13 392.22 642.89 839.30 387.24 1034.08 356.69 959.95 475.76 882.78 603.77 1037.15 577.94
00053234 00000045 742.42 82.45 386.61 638.00 836.45 383.12 1027.65 352.51 953.86 471.37 882.73 600.66 1030.90 575.26
00053235 00000046 734.32 80.17 390.02 628.81 827.85 378.40 1023.46 348.38 948.00 466.95 878.12 594.86 1029.16 569.77
00053236 00000047 730.84 79.00 392.44 627.73 826.30 375.44 1022.72 346.13 947.07 462.46 876.18 591.86 1027.13 567.64
00053237 00000048 719.78 72.37 398.37 630.70 820.46 370.05 1014.18 341.15 943.25 453.78 871.32 584.09 1018.87 560.23
00053238 00000049 709.23 71.41 406.69 632.07 813.99 359.65 1009.41 334.15 938.10 442.82 862.36 574.28 1014.11 553.55
00053239 00000050 705.42 72.16 408.22 629.52 811.91 355.55 1007.63 333.32 936.11 437.23 857.41 569.70 1011.09 551.98
00053240 00000051 699.93 70.72 407.68 630.37 807.75 352.44 1005.73 334.64 934.86 435.43 849.53 567.67 1006.00 553.40
00053241 00000052 696.53 73.96 402.86 631.63 802.17 357.14 1003.64 339.00 929.85 438.95 843.37 570.18 1006.23 555.40
00053242 00000053 695.80 74.02 400.27 634.62 799.92 357.46 1003.82 340.07 928.02 441.77 839.23 571.78 1005.54 557.15
00053243 DELETE   692.39 77.95 396.97 630.27 796.58 360.77 999.73 341.99 926.73 443.85 837.78 574.11 1002.93 558.29
00053244 00000055 687.57 79.26 397.54 628.29 794.29 362.85 994.69 344.13 922.36 446.44 837.74 575.61 998.60 560.02
00053245 00000056 688.28 80.36 395.43 625.91 794.34 363.13 993.06 344.71 921.03 446.04 837.51 575.19 996.26 560.01
00053246 00000057 687.87 81.04 395.18 622.56 793.38 364.39 991.46 343.32 920.29 445.17 838.56 574.25 997.80 556.87
00053247 00000058 684.57 76.21 396.78 625.76 792.12 364.57 988.86 342.83 918.53 444.13 838.93 573.57 997.48 555.50
00053248 00000059 683.77 74.90 396.84 626.67 791.67 363.66 986.13 341.57 917.16 443.87 838.93 574.36 994.35 556.31
00053249 00000060 682.14 74.43 397.82 625.54 787.97 366.44 981.16 340.09 913.99 444.58 839.17 574.93 995.34 553.48
00053250 00000061 675.58 73.68 403.44 624.87 783.58 366.45 976.02 337.34 911.37 444.35 838.40 575.87 995.13 551.82
00053251 00000062 675.21 73.06 401.81 623.57 780.88 365.93 975.41 335.66 909.16 444.51 838.17 576.22 995.18 550.89
00053252 00000063 673.91 74.55 402.91 623.37 774.84 366.09 972.07 333.72 903.40 445.39 833.23 577.10 992.81 549.66
00053253 00000064 668.95 70.07 402.42 630.47 769.09 364.22 965.19 332.68 896.50 446.27 826.41 578.03 983.98 551.46
00053254 00000065 663.87 74.43 396.95 625.61 761.74 370.33 956.24 329.33 888.52 456.88 819.34 587.33 970.08 553.97
00053255 00000066 659.01 73.91 394.56 623.93 754.50 367.55 947.28 326.17 879.63 452.06 814.36 583.55 964.18 549.97
00053256 00000067 653.44 68.78 397.22 624.11 750.43 364.80 942.38 323.26 875.31 446.51 812.23 579.36 960.02 545.69
00053257 00000068 649.71 61.88 402.50 635.68 754.16 355.83 945.60 315.67 875.61 441.02 807.20 574.40 960.01 541.20
00053258 00000069 641.81 58.12 407.56 636.26 749.55 353.07 941.61 315.71 871.10 434.67 803.30 570.46 955.46 539.46
00053259 00000070 640.38 57.61 406.27 635.32 746.89 354.05 938.33 316.17 868.01 431.28 799.99 570.03 950.32 538.76
00053260 00000071 637.98 58.72 408.49 633.19 745.61 354.77 937.26 316.92 866.88 431.63 798.21 568.69 949.47 537.47
00053261 00000072 634.09 59.79 411.47 634.44 742.47 357.28 935.71 319.15 866.52 434.52 794.80 570.29 947.02 538.82
00053262 00000073 632.48 62.81 410.54 634.29 740.25 360.32 934.81 321.36 864.97 435.43 792.65 573.47 944.69 541.52
00053263 00000074 631.18 63.48 410.53 634.51 738.73 360.83 934.61 321.80 864.49 436.60 790.86 574.11 945.29 542.20
00053264 00000075 628.88 65.12 410.80 635.12 737.35 361.55 933.12 321.22 863.86 435.95 791.13 575.72 945.12 542.80
00053265 00000076 627.92 64.85 414.02 633.86 737.12 361.44 932.48 320.97 863.36 436.10 792.77 575.97 944.66 542.95
00053266 00000077 627.61 64.06 414.36 635.46 736.67 361.46 932.16 321.17 863.04 435.66 792.66 576.67 944.53 543.81
00053267 00000078 627.31 63.52 414.88 635.43 736.07 361.37 931.92 320.44 862.49 436.95 792.71 576.73 944.60 543.28
00053268 00000079 627.67 64.76 412.41 632.93 735.67 363.29 931.23 321.14 862.37 438.64 792.02 576.66 944.37 542.23
00053269 00000080 627.27 65.38 412.49 631.92 735.52 364.59 931.31 322.41 861.87 439.21 791.49 577.11 943.85 542.60
00053270 00000081 626.97 63.38 410.39 631.91 735.17 364.42 931.29 322.16 861.75 441.61 790.37 575.88 943.94 541.14
00053271 00000082 626.89 66.17 409.80 628.46 734.65 365.65 929.80 322.83 860.12 441.97 789.79 575.72 942.65 540.45
00053272 00000083 626.17 66.04 410.61 629.24 734.24 365.69 929.10 323.06 858.83 442.30 789.24 575.75 941.71 540.61
00053273 00000084 625.20 77.17 405.93 619.19 731.44 371.06 920.93 332.04 859.60 444.11 792.16 575.80 941.47 544.12
00053274 00000085 624.29 64.47 413.58 631.77 733.41 364.41 928.39 322.91 858.02 439.38 788.22 573.57 941.54 539.50
00053275 00000086 627.47 63.06 410.66 630.67 734.56 361.40 928.37 320.69 859.06 437.06 788.85 570.59 941.66 537.28
00053276 00000087 629.32 59.02 411.83 635.78 735.39 354.48 929.59 315.48 860.47 430.96 787.87 566.38 942.14 534.58
00053277 00000088 630.20 56.43 409.92 637.61 737.24 353.06 932.27 316.21 863.13 431.14 788.30 564.55 944.26 534.20
00053278 00000089 630.73 56.68 409.35 638.82 738.09 354.74 933.74 317.09 865.13 431.43 789.67 566.02 945.98 534.83
00053279 00000090 633.07 72.91 401.12 624.06 737.88 363.88 930.54 329.84 867.51 439.20 792.61 570.16 946.85 542.70
00053280 00000091 629.75 78.49 406.76 627.23 737.76 370.93 929.04 335.23 866.24 447.20 794.84 577.16 948.33 547.06
00053281 00000092 630.67 80.70 405.20 631.81 736.80 373.88 928.01 338.91 864.11 450.11 793.88 581.43 948.76 551.81
00053282 00000093 627.96 83.27 407.73 637.04 736.84 378.67 930.46 345.68 864.26 455.82 793.34 588.88 949.33 560.56
00053283 00000094 627.76 85.83 409.99 641.52 736.81 383.91 929.54 350.16 863.73 462.64 794.16 594.73 949.14 565.71
00053284 00000095 629.27 87.18 409.14 641.73 737.91 384.57 930.46 351.28 864.45 465.49 794.43 596.88 948.20 568.46
00053285 00000096 632.17 92.56 408.79 641.87 739.45 388.87 933.41 355.01 866.18 472.39 795.55 605.17 947.44 576.90
00053286 00000097 638.29 94.72 404.91 642.39 742.09 392.49 937.21 358.15 867.80 477.98 797.75 610.75 949.74 582.00
00053287 00000098 638.48 93.01 403.87 644.39 743.89 392.50 939.38 358.41 869.62 480.39 798.44 611.08 951.52 582.49
00053288 00000099 647.12 93.35 396.99 647.43 748.11 393.53 939.90 359.82 870.84 483.27 801.09 613.38 950.83 585.06
00053289 00000100 653.99 93.83 393.45 648.02 753.82 396.06 944.99 362.19 875.66 487.94 805.53 615.05 955.24 586.45
00053290 00000101 656.88 95.17 392.56 646.95 755.76 396.44 948.85 361.80 879.05 488.53 807.45 616.62 958.62 587.47
00053291 00000102 659.91 94.96 393.78 646.64 759.26 395.67 954.53 359.87 884.23 486.18 811.54 616.91 963.19 586.94
00053292 00000103 665.29 93.61 396.57 642.89 765.19 394.94 960.46 358.63 888.40 483.00 814.85 611.99 969.93 581.53
00053293 00000104 671.70 88.25 402.36 638.29 769.89 389.35 972.80 364.65 895.48 474.19 817.69 595.33 982.84 574.39
00053294 00000105 674.20 90.49 403.24 638.07 774.55 389.10 974.59 365.00 899.31 473.98 821.75 595.88 984.96 575.42
00053295 00000106 673.23 86.77 404.20 638.57 776.16 385.69 976.25 363.01 900.42 471.75 823.19 592.73 986.22 573.24
00053296 00000107 672.31 84.61 405.90 636.60 775.89 384.78 977.11 362.15 898.95 470.42 822.46 589.69 986.49 570.08
00053297 00000108 674.42 87.09 404.21 632.44 776.46 384.47 980.45 362.59 900.92 471.79 818.40 585.20 988.74 566.20
00053298 00000109 672.26 91.70 405.95 633.59 777.55 388.45 981.08 366.77 902.63 476.25 819.66 589.91 989.28 571.08
00053299 00000110 671.80 97.28 404.87 634.40 778.71 392.80 978.55 369.72 904.92 480.43 822.54 594.01 989.25 574.24
00053300 00000111 670.71 102.95 404.19 639.09 781.25 402.60 977.82 380.97 905.03 488.10 821.59 604.23 982.22 586.23
00053301 00000112 673.37 109.49 400.98 640.53 781.93 408.39 978.66 385.58 906.44 493.48 822.54 609.42 984.81 590.31
00053302 00000113 675.94 111.12 400.37 640.81 783.66 410.08 978.89 386.55 907.48 493.93 825.65 611.33 986.35 591.54
00053303 00000114 676.54 109.53 404.44 642.99 787.71 408.47 983.46 383.50 913.43 491.85 832.62 611.55 993.00 590.40
00053304 00000115 680.33 105.22 402.88 645.38 792.15 405.13 988.69 381.63 919.22 491.33 837.22 609.11 997.79 588.70
00053305 00000116 683.36 103.85 402.79 644.50 794.07 405.26 991.50 381.46 921.08 491.20 838.22 608.95 999.13 588.29
00053306 00000117 689.78 102.26 403.35 640.35 799.09 404.18 997.50 380.03 926.72 489.85 843.03 608.02 1005.30 587.27
00053307 00000118 693.54 102.12 403.07 639.61 802.49 404.75 1003.67 379.90 931.74 491.49 842.94 607.04 1010.71 585.83
00053308 00000119 695.77 102.61 402.72 641.10 804.08 404.43 1006.70 378.36 935.21 492.53 844.60 608.74 1013.73 586.67
00053309 00000120 699.52 101.99 402.43 642.67 809.29 405.89 1009.51 377.98 939.75 493.91 851.70 611.94 1016.50 588.37
00053310 00000121 702.83 107.62 403.52 642.77 812.22 409.41 1012.32 379.68 940.67 498.27 851.87 615.96 1018.47 591.32
00053311 00000122 703.65 106.76 402.99 643.45 812.80 409.66 1012.80 379.89 941.22 497.51 851.56 615.55 1018.63 590.81
00053312 00000123 705.82 102.42 402.51 647.93 815.71 407.95 1014.81 378.34 942.73 496.95 853.66 614.80 1019.95 590.00
00053313 00000124 705.96 102.62 401.44 647.55 816.57 405.84 1015.97 376.83 943.87 494.97 852.07 612.51 1018.71 588.43
00053314 00000125 705.66 103.79 402.88 646.27 817.18 403.94 1016.75 377.01 943.68 494.13 852.17 611.91 1018.54 589.68
00053315 00000126 705.86 101.79 403.70 646.32 818.07 401.52 1017.81 377.51 943.39 493.26 851.61 610.50 1016.44 590.77
00053316 00000127 705.24 99.32 404.61 645.82 818.77 400.15 1018.50 377.56 944.18 492.45 852.11 609.50 1014.93 590.93
CROP_BBOX: 439 0 1418 895
