Video ID: 	Fxc0Cp6rzCw
H: 	1080
W: 	1920
FPS: 	25.0

FRAME INDEX X0 Y0 W H [Landmarks (5 Points)]

00004177 00000000 925.99 90.81 416.33 594.89 973.04 356.69 1109.40 330.76 978.55 416.75 992.45 550.49 1089.77 529.23
00004178 00000001 931.05 83.17 410.91 588.58 975.84 349.23 1114.84 323.00 981.74 407.83 991.49 543.29 1090.93 522.20
00004179 00000002 934.44 76.03 404.05 587.75 971.55 342.20 1112.58 316.14 983.37 399.60 984.13 536.82 1085.35 517.47
00004180 00000003 934.61 74.22 402.61 589.21 971.85 340.59 1111.48 315.57 982.77 398.83 984.00 534.43 1083.95 516.00
00004181 00000004 932.85 73.51 402.98 593.47 968.50 344.22 1109.81 318.51 979.45 401.53 980.98 540.47 1079.58 521.44
00004182 00000005 930.05 82.95 406.38 586.67 972.32 348.34 1106.44 325.51 969.60 409.48 985.71 542.26 1082.21 524.17
00004183 00000006 925.60 87.65 410.48 592.62 966.06 361.07 1099.62 333.62 965.50 420.57 984.29 553.43 1080.59 531.43
00004184 00000007 921.49 88.61 410.98 606.97 959.09 371.51 1093.89 345.05 957.24 436.30 981.10 567.30 1077.53 545.45
00004185 00000008 916.86 92.48 403.03 600.01 954.73 374.89 1084.95 353.90 946.36 444.73 975.92 570.36 1068.50 553.11
00004186 00000009 915.33 89.21 399.25 607.17 947.01 378.16 1069.76 364.86 935.43 447.89 963.37 571.09 1052.07 560.45
00004187 00000010 908.53 92.24 391.71 605.42 946.29 375.09 1055.22 366.30 924.10 446.71 956.64 569.91 1033.03 562.32
00004188 00000011 897.92 89.21 392.42 611.88 947.24 369.47 1041.06 364.45 909.76 444.30 950.05 566.95 1015.57 561.51
00004189 00000012 890.69 94.32 395.71 625.71 948.55 367.92 1033.18 364.93 904.39 443.63 950.62 573.69 1007.71 569.31
00004190 DELETE   887.83 95.08 395.03 631.65 948.00 367.85 1027.16 366.33 899.22 447.38 950.08 578.00 1003.29 574.66
00004191 00000014 888.27 94.47 396.26 637.29 950.41 368.82 1025.34 367.14 899.15 451.02 954.63 579.79 1006.16 576.23
00004192 00000015 890.87 98.56 394.68 627.14 951.33 372.85 1024.88 371.19 901.68 457.67 962.34 578.75 1014.87 574.89
00004193 00000016 895.67 105.36 394.22 622.17 949.30 379.78 1027.66 376.08 905.83 467.91 966.50 583.21 1026.03 577.68
00004194 DELETE   899.26 110.14 393.10 619.68 946.91 385.00 1028.88 377.42 910.20 474.35 970.90 589.47 1034.61 580.84
00004195 00000018 902.56 110.86 391.30 615.33 946.57 389.48 1032.65 382.48 918.93 479.78 974.80 592.13 1041.07 584.72
00004196 00000019 907.52 121.14 393.14 613.76 953.19 394.45 1033.74 387.23 925.67 486.08 986.19 594.72 1051.48 587.27
00004197 DELETE   910.44 128.25 396.48 610.69 960.62 400.06 1035.88 392.09 928.43 491.17 992.92 600.46 1056.12 592.18
00004198 00000021 913.61 130.82 396.46 606.58 961.58 401.49 1037.47 393.79 931.61 495.21 995.91 601.81 1058.95 593.70
00004199 00000022 913.77 132.69 398.34 600.91 960.32 403.85 1038.83 396.34 934.04 502.20 996.56 603.80 1061.42 595.79
00004200 00000023 913.45 137.85 404.77 598.36 961.98 409.58 1041.99 399.49 937.04 509.44 1001.19 610.54 1067.48 600.23
00004201 00000024 914.16 143.40 402.57 589.44 960.39 415.10 1042.36 404.07 939.11 513.10 1000.39 612.22 1068.34 600.86
00004202 00000025 914.40 146.39 403.73 588.29 959.66 421.17 1042.65 408.03 941.15 515.81 1001.32 615.10 1070.23 601.89
00004203 DELETE   917.58 149.33 398.64 594.08 968.33 430.47 1045.98 418.13 939.57 519.70 1009.15 612.94 1077.87 601.15
00004204 00000027 912.08 146.81 399.61 591.32 969.68 432.48 1049.74 426.57 949.99 518.25 1014.97 609.02 1076.42 601.79
00004205 00000028 911.32 142.96 401.20 599.54 970.61 429.71 1051.73 424.46 949.40 516.81 1014.26 609.12 1077.30 602.40
00004206 00000029 916.87 140.37 407.80 601.00 966.73 421.50 1046.23 408.32 942.93 512.69 1008.21 615.79 1073.04 602.93
00004207 00000030 916.21 136.37 410.67 602.44 966.72 420.69 1048.62 404.39 942.96 504.26 1006.88 612.56 1073.66 597.29
00004208 00000031 917.89 133.77 407.96 600.04 966.61 416.78 1052.40 402.35 943.64 499.49 1005.51 608.33 1076.58 594.44
00004209 00000032 919.40 123.89 406.50 608.50 964.67 418.07 1060.94 402.57 947.64 495.97 1002.55 609.12 1079.17 594.59
00004210 00000033 923.54 131.83 404.01 593.19 966.20 417.74 1065.34 401.12 951.23 493.80 1002.78 607.16 1082.86 591.43
00004211 00000034 930.68 127.94 400.36 593.77 967.24 418.58 1072.97 399.20 956.78 493.21 1001.76 605.81 1087.76 588.23
00004212 00000035 929.78 128.60 404.52 589.80 965.88 411.10 1091.18 388.44 962.51 486.34 1000.79 603.36 1098.76 582.48
00004213 00000036 938.46 126.29 399.98 588.38 971.72 410.72 1097.14 384.80 971.36 485.01 1010.05 602.59 1107.78 578.95
00004214 00000037 943.00 121.50 407.64 588.10 974.25 403.98 1108.12 380.99 981.39 482.72 1012.36 598.91 1114.83 577.79
00004215 00000038 949.60 118.17 410.84 595.88 981.23 392.27 1121.06 375.73 990.83 478.77 1015.95 593.75 1120.90 578.26
00004216 00000039 958.00 113.97 405.74 599.84 990.55 388.15 1127.56 371.55 996.64 471.47 1022.56 587.69 1126.92 572.61
00004217 00000040 961.42 105.55 406.47 611.36 996.69 384.87 1135.48 367.26 1002.41 462.30 1025.80 582.92 1131.40 567.68
00004218 00000041 961.28 105.44 409.60 609.73 997.69 382.26 1137.81 364.87 1004.23 458.17 1024.98 580.95 1131.27 566.25
00004219 00000042 959.59 100.39 403.51 600.35 994.89 381.74 1132.25 365.48 999.33 458.48 1020.92 576.26 1123.07 562.10
00004220 00000043 951.26 97.58 405.86 605.46 985.55 381.75 1124.51 368.39 988.64 460.12 1009.29 577.86 1110.99 565.91
00004221 00000044 940.69 100.77 407.06 606.60 976.37 382.60 1114.29 367.84 978.87 461.39 999.76 578.53 1103.02 565.78
00004222 00000045 937.86 100.03 407.74 611.65 973.06 382.87 1110.92 365.27 975.81 461.91 999.40 581.55 1103.63 566.18
00004223 00000046 939.13 102.02 409.16 614.45 976.05 383.14 1116.42 365.35 982.84 462.22 1005.16 583.46 1110.52 567.87
00004224 00000047 943.10 102.53 408.75 609.00 980.33 386.13 1125.68 371.03 993.55 469.85 1009.71 582.87 1120.50 569.27
00004225 00000048 940.26 111.25 411.56 600.14 978.98 388.73 1126.42 374.76 997.21 475.60 1009.54 585.85 1122.88 572.98
00004226 00000049 934.29 112.74 411.39 605.23 973.05 390.71 1121.81 374.87 991.62 478.81 1004.67 591.86 1119.89 577.64
00004227 00000050 927.98 105.46 413.17 637.26 968.50 396.74 1104.51 383.91 982.42 482.74 998.66 596.92 1105.04 586.15
00004228 00000051 926.25 115.28 408.46 635.98 962.18 398.05 1094.76 387.19 967.99 486.39 991.31 601.13 1099.29 592.21
00004229 00000052 920.77 114.75 408.39 638.58 956.13 397.74 1087.99 387.61 959.01 485.92 984.29 603.64 1091.12 595.58
00004230 00000053 919.42 113.39 409.29 627.45 957.08 395.83 1089.50 387.31 962.33 483.35 984.39 598.64 1088.88 591.65
00004231 00000054 918.30 113.01 412.10 602.29 963.63 388.62 1100.11 383.32 970.08 478.95 991.04 587.54 1095.50 582.59
00004232 00000055 919.21 108.57 412.99 600.55 963.49 389.31 1103.29 381.04 973.98 475.19 991.39 586.77 1097.50 579.46
00004233 00000056 917.53 109.66 410.66 599.39 961.01 388.20 1101.37 381.81 970.42 473.63 985.62 583.42 1094.55 577.29
00004234 00000057 912.76 109.02 411.72 602.79 957.54 387.10 1095.88 383.31 964.30 473.74 979.26 581.86 1086.88 577.37
00004235 00000058 910.77 110.23 408.93 604.54 954.75 386.06 1089.74 383.50 959.15 474.52 976.38 582.10 1081.71 578.47
00004236 00000059 911.02 111.67 407.89 613.06 954.69 387.28 1087.81 385.51 956.45 477.22 974.92 583.76 1081.67 580.50
00004237 00000060 911.01 114.89 407.47 614.25 953.81 388.36 1087.26 386.74 954.62 479.35 974.42 585.18 1082.97 582.03
00004238 00000061 911.85 114.82 407.18 609.95 953.81 389.22 1087.62 388.31 954.93 479.42 974.20 583.78 1083.53 581.29
00004239 00000062 911.76 116.88 409.43 608.55 953.55 390.43 1089.31 389.15 955.52 479.84 972.67 584.79 1083.69 582.18
00004240 00000063 911.88 117.41 408.21 607.90 954.39 392.46 1089.10 392.42 956.52 480.20 971.87 584.66 1081.74 583.00
00004241 00000064 912.13 119.41 409.78 606.68 955.63 390.72 1091.89 392.89 957.25 480.96 971.59 585.05 1082.39 585.33
00004242 00000065 914.11 124.15 406.81 600.09 957.11 388.24 1094.97 392.82 958.96 480.84 970.86 583.03 1083.93 585.34
00004243 00000066 916.04 126.07 407.02 594.14 958.52 387.48 1096.74 392.12 959.34 480.11 971.14 583.98 1082.61 586.53
00004244 00000067 916.26 124.46 408.26 594.21 958.45 388.33 1097.11 392.88 960.13 479.15 970.62 584.54 1080.68 586.99
00004245 00000068 915.44 121.46 406.18 602.81 950.89 385.66 1098.23 389.91 950.37 482.24 962.33 589.84 1074.38 594.07
00004246 00000069 916.52 121.10 406.85 612.26 950.39 392.16 1091.94 400.97 953.33 487.86 962.06 593.54 1068.50 600.71
00004247 00000070 917.31 120.23 405.00 621.49 951.69 393.90 1088.67 400.34 951.89 487.25 964.34 600.24 1066.29 605.62
00004248 00000071 912.86 122.54 405.46 620.23 948.53 393.29 1091.88 394.38 943.88 484.97 958.87 603.81 1066.54 606.38
00004249 00000072 917.67 119.14 405.58 622.44 953.03 396.07 1098.11 398.10 948.26 485.07 961.83 605.05 1071.40 608.37
00004250 00000073 926.40 126.82 404.97 615.43 962.88 398.06 1104.10 402.79 956.44 488.64 969.45 606.42 1074.99 611.38
00004251 00000074 933.03 128.98 408.84 619.03 971.96 399.32 1114.42 406.12 967.06 492.52 980.85 609.85 1085.07 615.64
00004252 00000075 938.80 129.99 414.60 616.45 980.48 398.13 1126.42 409.76 975.03 494.29 987.38 608.46 1091.73 617.72
00004253 00000076 942.18 131.03 414.14 613.20 985.73 398.03 1132.43 412.70 980.17 492.90 986.75 604.93 1093.93 616.69
00004254 00000077 940.96 127.66 414.13 618.06 984.87 397.60 1129.85 410.71 977.58 488.86 986.21 605.30 1091.49 616.00
00004255 00000078 937.80 126.95 413.07 618.98 980.88 396.72 1123.27 407.19 973.02 486.92 983.83 606.03 1086.86 614.64
00004256 00000079 936.20 126.62 410.25 619.65 979.72 397.37 1116.70 407.04 968.83 484.88 983.35 605.99 1083.42 613.74
00004257 00000080 936.03 124.09 405.89 615.65 976.87 397.51 1111.25 405.27 963.42 482.35 981.08 602.05 1081.05 608.27
00004258 00000081 934.96 118.25 405.45 618.73 975.39 396.98 1108.42 404.56 959.55 479.47 980.43 597.96 1080.51 604.21
00004259 00000082 932.71 118.07 404.81 616.08 973.00 393.67 1106.61 402.61 956.37 477.96 976.95 595.31 1077.76 602.78
00004260 00000083 930.55 118.82 403.32 617.29 971.29 393.77 1103.09 401.74 954.50 478.79 975.22 596.03 1076.00 603.00
00004261 00000084 928.98 118.02 403.27 617.14 970.53 393.91 1099.52 400.06 951.96 479.15 974.49 596.04 1074.53 601.40
00004262 00000085 928.93 120.06 404.23 616.45 971.48 395.22 1101.18 400.65 954.40 478.91 975.07 596.78 1075.97 601.61
00004263 00000086 931.14 121.85 403.72 615.90 972.62 394.56 1100.34 398.94 954.57 479.85 977.71 597.11 1077.14 600.83
00004264 00000087 932.42 119.26 402.82 615.63 973.69 393.43 1100.03 395.65 955.41 477.38 980.10 597.49 1076.10 599.34
00004265 00000088 933.03 118.46 402.98 606.66 972.54 391.45 1100.92 395.92 954.31 476.39 975.97 592.67 1073.16 596.45
00004266 00000089 934.81 112.93 405.16 609.65 973.85 389.74 1105.92 394.40 956.93 473.39 977.14 592.58 1073.78 596.66
00004267 00000090 936.57 115.53 406.02 607.59 976.77 389.04 1110.47 394.37 961.55 472.35 979.66 590.94 1077.23 595.50
00004268 00000091 937.59 117.67 404.93 606.23 978.59 387.44 1113.26 392.50 965.12 471.27 982.38 591.46 1077.22 596.00
00004269 00000092 936.87 116.78 404.77 607.69 977.49 387.35 1113.01 391.73 964.89 471.03 981.89 592.13 1077.11 596.14
00004270 00000093 935.85 117.64 404.77 606.08 974.73 388.30 1111.05 391.58 963.08 473.54 980.79 593.88 1076.29 597.07
00004271 00000094 935.74 116.58 403.95 608.52 972.96 390.48 1108.81 392.10 961.45 475.58 981.70 595.95 1077.85 597.56
00004272 00000095 935.79 115.68 405.65 610.68 972.39 392.29 1109.43 392.48 962.05 476.54 983.03 597.86 1080.16 598.17
00004273 00000096 937.93 116.46 404.86 609.26 975.38 392.85 1109.77 391.46 963.63 477.32 988.12 598.06 1082.83 596.62
00004274 00000097 940.50 119.85 405.83 616.12 977.91 393.94 1111.43 391.23 965.95 478.85 994.42 602.39 1088.10 599.61
00004275 00000098 941.57 119.66 405.06 613.10 979.43 393.56 1112.61 391.33 966.51 478.71 994.35 600.44 1089.24 597.92
00004276 00000099 941.92 121.35 405.17 612.88 978.73 395.15 1113.88 391.92 968.05 480.63 995.16 602.60 1091.30 599.31
00004277 00000100 940.68 122.07 405.94 610.96 977.79 396.21 1114.58 392.48 969.60 481.80 994.73 602.52 1092.29 598.88
00004278 00000101 940.02 124.00 406.58 608.26 977.03 396.66 1113.47 392.58 969.01 482.08 994.20 602.21 1092.44 598.20
00004279 00000102 939.85 123.80 405.91 608.49 976.91 396.93 1113.52 392.78 969.41 482.84 994.47 602.23 1093.12 598.13
00004280 00000103 940.49 124.70 406.01 606.60 976.49 397.31 1114.06 392.98 970.29 484.59 995.21 603.02 1094.54 598.63
00004281 00000104 941.06 122.93 409.11 609.06 977.84 399.85 1117.06 395.57 972.91 483.99 996.48 603.55 1097.19 599.11
00004282 00000105 941.65 121.31 409.27 610.55 978.30 400.27 1117.62 395.78 973.83 484.03 997.92 603.63 1098.48 598.99
00004283 00000106 942.09 124.83 408.98 605.02 977.59 400.11 1116.92 394.96 973.46 484.19 996.92 603.46 1097.65 598.24
00004284 00000107 941.79 123.18 410.17 606.77 978.18 398.83 1121.21 393.12 977.67 482.89 998.05 604.07 1100.04 598.51
00004285 00000108 943.09 122.25 412.06 609.35 980.35 397.56 1125.03 392.16 981.71 481.03 999.50 604.01 1101.44 598.78
00004286 00000109 944.92 121.49 412.21 608.35 982.63 396.66 1128.52 391.74 985.69 479.51 1002.08 603.71 1103.70 598.85
00004287 00000110 945.47 122.54 412.94 606.87 983.25 396.05 1130.06 391.91 986.73 479.20 1002.81 603.37 1104.44 599.13
00004288 00000111 944.59 121.22 412.82 607.87 981.97 395.86 1129.00 392.27 985.06 480.35 1001.15 602.95 1104.07 599.13
00004289 00000112 945.07 120.61 411.83 610.39 982.07 396.33 1127.80 392.20 983.68 480.38 1001.19 603.40 1103.35 599.14
00004290 00000113 943.98 119.69 409.33 611.63 982.61 400.68 1120.89 392.24 981.04 476.78 1004.01 604.39 1102.11 596.23
00004291 00000114 944.67 122.38 407.49 613.14 982.43 406.05 1120.86 393.47 980.32 476.79 1004.44 606.82 1103.36 595.39
00004292 00000115 945.21 123.25 407.90 612.32 982.45 402.49 1121.97 389.88 980.78 475.35 1005.40 607.08 1105.42 595.51
00004293 00000116 944.17 127.57 405.49 610.16 980.59 399.66 1115.27 389.34 978.04 480.11 1007.65 605.17 1108.41 594.81
00004294 00000117 942.43 127.50 402.78 612.11 976.94 399.89 1109.39 388.85 974.27 483.82 1008.78 604.89 1112.32 593.69
00004295 00000118 937.62 120.36 401.79 618.14 973.91 400.18 1099.82 386.87 966.99 484.56 1007.93 603.88 1107.57 590.83
00004296 00000119 935.68 117.42 402.42 624.11 970.78 403.47 1085.47 393.82 962.06 487.44 1001.60 602.68 1094.60 593.60
00004297 00000120 930.91 113.97 402.00 620.45 964.12 400.81 1080.46 393.08 958.31 485.21 993.30 601.66 1083.71 594.69
00004298 00000121 927.19 112.58 406.80 624.54 961.90 397.82 1078.25 389.03 956.03 482.62 991.00 601.27 1081.46 593.56
00004299 00000122 926.57 112.54 404.49 616.73 960.66 396.32 1075.75 385.96 953.67 479.73 989.15 597.63 1079.21 588.53
00004300 00000123 923.03 105.95 403.83 607.28 959.08 388.80 1079.65 383.30 951.53 474.00 985.79 585.17 1078.54 579.21
00004301 00000124 921.46 110.05 399.18 590.87 954.97 386.25 1073.11 381.78 947.67 470.72 980.44 578.48 1071.12 572.61
00004302 00000125 919.54 108.33 401.77 599.42 956.02 386.81 1070.06 382.78 945.47 470.79 979.84 579.83 1066.90 574.22
00004303 DELETE   919.67 108.15 401.80 605.15 957.35 389.10 1071.05 382.36 947.76 471.13 983.05 586.28 1066.63 579.14
00004304 00000127 918.03 108.66 403.14 604.08 958.18 387.51 1069.68 381.82 946.96 469.94 982.38 583.97 1064.44 577.45
00004305 00000128 920.60 102.83 401.82 610.02 950.16 389.76 1064.62 375.55 944.71 470.68 975.89 591.24 1061.34 579.24
00004306 00000129 919.09 100.17 402.65 618.14 958.66 380.48 1068.65 374.72 942.72 465.88 982.14 580.34 1065.85 573.69
00004307 00000130 918.99 100.41 403.23 618.61 958.83 378.62 1070.51 369.97 943.20 461.35 980.35 577.72 1067.54 569.05
00004308 00000131 919.52 98.78 403.57 616.16 958.61 377.45 1072.55 367.82 944.66 458.86 979.91 575.43 1069.02 566.19
00004309 00000132 920.81 99.87 400.03 605.81 957.34 377.41 1073.70 367.58 946.84 457.85 980.77 574.16 1070.13 564.67
00004310 00000133 921.56 96.70 402.14 605.62 957.78 377.13 1077.56 367.44 949.32 456.63 980.35 572.94 1073.00 563.58
00004311 00000134 920.30 100.51 400.39 598.42 953.91 375.47 1081.88 356.89 945.35 454.11 980.28 576.91 1074.06 561.06
00004312 00000135 922.55 96.56 404.24 610.49 958.34 376.05 1085.08 354.15 948.32 450.14 985.56 578.07 1079.36 559.24
00004313 00000136 924.68 93.88 403.97 611.71 959.96 376.57 1087.33 354.20 950.34 451.04 987.09 577.60 1081.91 558.24
00004314 00000137 929.23 96.13 399.11 602.22 964.61 383.51 1089.59 361.18 957.16 455.40 991.20 576.11 1085.43 556.82
00004315 00000138 929.42 98.65 396.73 595.78 963.58 386.54 1092.57 362.61 959.01 455.50 988.17 577.79 1083.87 557.65
00004316 00000139 930.82 100.27 398.63 598.79 966.21 385.02 1094.69 362.22 960.87 455.28 990.03 578.09 1085.18 558.68
00004317 00000140 931.82 99.84 400.80 609.38 967.46 382.64 1092.96 358.53 959.20 455.11 995.74 581.56 1089.70 560.44
00004318 00000141 931.59 98.46 405.45 617.25 969.54 379.45 1092.64 355.96 961.25 453.91 1002.63 582.82 1094.91 561.76
00004319 00000142 931.13 97.91 407.17 615.91 968.29 378.07 1095.68 353.97 962.86 452.29 1001.74 580.78 1097.46 559.32
00004320 00000143 933.36 95.79 406.46 618.41 968.33 379.01 1096.44 353.29 961.21 454.27 1003.29 581.41 1101.96 558.28
00004321 00000144 933.94 95.88 406.92 620.02 969.16 379.31 1096.55 353.51 961.85 454.95 1005.21 582.24 1104.37 558.92
00004322 00000145 934.10 98.52 405.03 614.34 968.59 380.13 1094.58 355.34 961.66 457.35 1004.48 581.39 1102.96 558.89
00004323 00000146 934.23 97.02 405.16 616.95 970.75 381.44 1095.82 358.31 964.84 459.80 1005.96 582.46 1101.66 561.56
00004324 00000147 932.66 99.69 405.80 609.01 966.91 383.13 1095.61 362.83 964.18 465.11 1002.19 581.98 1100.96 563.52
00004325 00000148 932.09 102.95 404.19 601.20 965.97 386.17 1097.12 368.54 965.23 469.31 999.71 580.23 1101.96 564.10
00004326 00000149 931.50 106.47 405.57 599.73 965.74 388.22 1099.12 370.02 967.61 471.17 1001.08 580.43 1106.08 563.71
00004327 00000150 932.51 108.70 404.25 593.81 967.24 388.76 1101.37 370.78 972.46 471.26 1003.23 580.04 1108.90 563.52
00004328 00000151 934.74 105.83 405.29 601.95 969.40 389.15 1102.43 370.80 973.93 473.09 1006.34 583.48 1110.12 566.53
00004329 00000152 937.20 104.63 406.54 610.18 972.21 389.80 1105.15 370.51 976.66 472.43 1009.29 587.48 1112.18 569.76
00004330 00000153 940.83 103.58 403.35 610.58 975.42 389.39 1108.57 370.60 980.53 472.37 1011.97 590.16 1113.19 572.74
00004331 00000154 942.77 104.57 402.28 610.22 977.10 388.51 1110.04 371.29 981.84 472.92 1013.38 588.93 1114.80 572.74
00004332 00000155 943.49 103.52 402.29 610.71 977.93 388.43 1112.53 372.27 983.60 473.41 1013.24 588.56 1115.65 573.34
00004333 00000156 942.59 102.45 403.42 608.86 976.60 388.28 1112.64 373.23 982.75 473.15 1010.90 586.82 1114.39 572.61
00004334 00000157 942.63 100.73 403.78 612.29 976.32 388.64 1112.15 372.69 980.84 472.27 1009.61 586.85 1113.04 572.02
00004335 00000158 941.67 101.27 403.40 606.80 975.69 388.61 1112.92 373.44 981.53 471.64 1007.25 585.64 1110.13 571.66
00004336 00000159 941.22 101.78 403.85 606.12 975.54 389.95 1114.15 375.64 982.45 473.55 1006.52 587.02 1110.21 573.86
00004337 00000160 940.68 103.31 403.94 602.25 975.30 389.83 1115.16 377.19 982.96 474.43 1004.52 586.44 1108.59 574.91
00004338 00000161 940.74 103.65 403.83 601.96 975.64 389.96 1115.47 377.91 982.89 474.76 1004.21 585.96 1108.35 574.95
00004339 00000162 940.56 102.18 402.66 602.74 976.07 391.04 1115.69 379.17 983.18 474.52 1003.51 586.67 1106.81 575.99
00004340 00000163 939.88 102.62 401.91 605.37 975.27 391.41 1115.75 380.49 982.12 475.49 1001.12 588.39 1104.44 578.69
00004341 00000164 938.15 103.15 403.06 608.40 973.97 391.74 1115.57 380.98 980.34 475.53 997.74 590.92 1100.35 581.72
00004342 00000165 937.62 104.03 403.26 610.33 973.58 392.44 1114.06 381.46 978.12 475.29 996.26 592.17 1098.09 582.85
00004343 00000166 936.85 105.02 402.87 614.07 972.96 393.70 1113.04 382.13 977.19 476.01 995.79 596.22 1096.02 586.65
00004344 00000167 937.17 104.83 401.71 614.72 974.98 395.99 1111.46 382.01 977.93 476.51 1000.63 600.08 1095.54 588.45
