Video ID: 	Sz2uI056wz8
H: 	1080
W: 	1920
FPS: 	25.0

FRAME INDEX X0 Y0 W H [Landmarks (5 Points)]

00003135 00000000 815.30 289.64 414.60 554.65 979.16 507.45 1148.67 540.90 1067.89 639.63 948.38 693.66 1089.81 724.94
00003136 00000001 815.16 291.07 414.34 552.28 979.35 507.28 1149.48 541.68 1068.27 639.53 948.14 693.08 1090.03 725.14
00003137 00000002 815.48 290.46 414.21 552.90 978.17 506.68 1148.60 541.14 1066.70 639.34 947.15 693.14 1089.43 725.24
00003138 00000003 815.59 288.82 413.78 554.74 977.03 506.35 1148.27 540.99 1065.14 638.90 945.64 693.19 1089.01 725.44
00003139 00000004 815.49 289.45 414.14 555.45 977.14 506.38 1148.24 541.72 1064.83 639.98 944.94 693.11 1088.78 725.96
00003140 00000005 815.10 289.40 415.43 558.40 978.64 507.73 1147.78 543.43 1066.27 640.50 947.28 694.63 1088.30 727.81
00003141 00000006 816.25 285.43 414.07 566.21 980.74 509.02 1147.15 545.12 1068.12 641.46 948.75 697.78 1086.39 731.48
00003142 00000007 817.49 285.64 413.19 569.62 982.62 509.43 1147.60 546.95 1069.50 640.97 951.74 699.99 1087.41 734.68
00003143 00000008 818.15 283.83 412.99 574.44 983.09 509.06 1144.48 547.97 1066.14 641.78 950.02 701.25 1081.73 737.05
00003144 DELETE   816.15 292.01 411.47 570.37 978.46 509.58 1137.52 546.55 1056.76 645.51 946.22 702.33 1075.94 736.36
00003145 DELETE   812.08 294.80 409.15 560.58 965.30 510.41 1130.67 544.18 1044.22 648.47 932.78 696.42 1068.78 728.16
00003146 00000011 806.66 294.49 409.36 560.78 952.28 503.18 1125.15 539.28 1035.44 643.92 918.70 694.27 1063.42 727.65
00003147 00000012 803.68 289.97 409.03 564.17 948.88 499.83 1124.33 538.39 1033.98 639.24 916.59 695.04 1061.82 729.79
00003148 00000013 803.74 287.70 412.49 566.57 958.62 493.76 1129.74 533.24 1043.02 636.80 923.78 692.94 1063.74 728.64
00003149 00000014 806.50 288.51 415.57 566.07 967.86 493.26 1134.51 529.84 1052.55 632.41 935.22 693.35 1071.01 726.66
00003150 00000015 808.69 289.54 415.15 562.28 971.95 494.00 1137.33 528.02 1057.41 633.56 940.43 693.06 1075.01 724.39
00003151 00000016 808.35 290.43 414.08 561.68 968.37 495.18 1136.11 529.78 1055.14 635.84 936.95 693.39 1074.47 725.36
00003152 00000017 806.54 291.43 411.96 561.86 964.26 496.20 1133.43 531.12 1049.98 640.52 932.69 695.78 1068.80 727.97
00003153 00000018 804.39 296.22 411.19 563.19 963.41 497.72 1129.86 534.59 1046.69 643.18 930.97 698.26 1065.26 731.79
00003154 00000019 804.41 296.95 410.06 568.04 964.37 501.54 1131.32 537.19 1049.40 646.86 932.48 703.36 1066.16 736.10
00003155 00000020 804.63 299.40 411.32 565.14 965.47 503.47 1134.32 538.17 1051.55 647.52 934.72 705.50 1068.46 737.41
00003156 00000021 803.58 302.04 413.17 562.08 961.70 505.79 1137.32 539.65 1052.39 649.06 934.35 708.12 1073.54 739.32
00003157 00000022 802.67 303.69 412.10 560.04 956.30 506.58 1133.59 540.14 1047.42 649.19 930.05 709.58 1069.64 740.51
00003158 00000023 800.73 302.97 409.93 562.19 952.96 508.83 1128.88 543.82 1043.08 650.57 925.64 711.52 1063.14 743.61
00003159 00000024 796.14 309.09 413.55 549.49 946.99 504.26 1125.60 541.47 1037.89 649.93 926.22 715.67 1064.60 746.84
00003160 00000025 793.73 314.30 413.58 547.67 947.05 508.25 1123.10 545.89 1036.15 651.85 924.73 716.82 1062.24 748.63
00003161 00000026 792.58 312.96 413.56 552.27 945.30 515.23 1122.67 551.24 1037.22 660.35 924.06 721.17 1066.36 751.97
00003162 00000027 790.98 315.19 414.24 559.66 944.04 523.53 1120.21 556.11 1036.58 669.69 924.89 728.16 1069.91 756.54
00003163 00000028 792.18 320.95 411.11 554.82 945.57 529.16 1120.55 559.81 1038.83 676.62 928.89 733.82 1070.34 760.82
00003164 00000029 791.78 330.82 414.37 554.75 944.15 533.35 1123.83 563.63 1040.47 683.46 920.87 736.09 1063.15 762.94
00003165 00000030 791.79 322.41 409.39 550.20 946.28 528.98 1119.99 558.21 1038.83 677.52 930.47 734.04 1067.91 759.92
00003166 00000031 790.90 316.89 408.84 549.90 942.40 526.06 1114.57 556.39 1032.72 672.20 923.26 727.11 1061.78 753.73
00003167 00000032 787.97 311.51 412.34 554.90 936.68 522.32 1109.11 557.38 1023.39 663.83 912.90 721.29 1053.96 751.24
00003168 00000033 785.54 314.54 406.29 553.83 931.64 518.72 1100.83 556.90 1011.50 662.28 904.33 718.78 1043.92 751.36
00003169 00000034 782.95 314.17 408.36 557.05 927.96 519.75 1096.28 559.10 1003.37 663.42 898.51 718.64 1038.06 752.16
00003170 00000035 781.86 314.69 408.09 556.94 928.87 521.52 1096.77 560.75 1005.50 664.98 898.65 719.90 1038.05 753.49
00003171 00000036 785.29 319.67 407.44 550.97 934.83 523.21 1104.96 559.75 1015.88 667.28 908.13 721.91 1047.81 753.62
00003172 00000037 788.45 322.95 407.80 542.43 940.77 526.85 1110.29 559.56 1027.30 671.75 916.10 723.30 1054.21 752.34
00003173 00000038 789.94 321.90 409.09 544.36 945.40 524.88 1114.74 556.64 1033.95 672.27 923.01 723.77 1059.28 752.09
00003174 00000039 789.48 317.62 409.81 548.04 944.49 524.34 1114.13 556.03 1033.89 670.50 922.17 723.07 1059.23 751.02
00003175 00000040 787.82 318.72 410.54 545.76 940.25 523.76 1110.64 558.18 1026.93 668.20 915.43 721.04 1053.18 751.00
00003176 00000041 786.36 321.61 408.69 543.11 938.73 523.08 1108.43 558.89 1023.02 667.05 911.66 720.28 1049.25 751.56
00003177 00000042 787.68 323.68 409.73 542.60 942.82 526.53 1109.35 560.64 1027.39 672.39 916.07 722.06 1051.75 752.32
00003178 00000043 790.86 321.95 409.97 545.27 948.38 527.12 1115.77 559.98 1037.00 674.92 926.34 725.99 1060.67 755.26
00003179 00000044 792.34 323.69 411.25 547.24 949.96 526.49 1118.83 558.67 1040.83 674.88 928.58 726.91 1065.91 755.71
00003180 00000045 792.46 320.97 409.55 547.61 946.12 525.77 1114.26 558.90 1033.42 675.25 923.48 725.23 1060.50 754.82
00003181 00000046 790.20 320.69 412.02 550.52 944.51 522.32 1111.69 559.36 1027.30 672.45 917.02 722.58 1053.97 755.06
00003182 00000047 790.16 318.25 413.85 556.38 949.57 520.03 1113.03 560.05 1029.79 675.39 917.89 722.99 1048.21 757.99
00003183 00000048 796.09 318.58 417.93 564.56 949.79 524.44 1124.50 556.41 1041.48 676.51 919.13 729.31 1055.97 757.60
00003184 00000049 796.87 323.58 419.77 562.00 954.63 523.84 1129.29 555.96 1045.61 676.67 923.11 729.83 1063.86 758.19
00003185 00000050 793.97 319.99 419.73 568.95 950.50 522.20 1121.04 554.11 1039.73 674.27 922.25 727.48 1055.74 755.69
00003186 00000051 789.61 320.98 417.24 556.48 951.55 516.54 1117.32 556.72 1033.71 669.93 920.43 720.94 1054.73 755.86
00003187 00000052 791.50 320.87 417.53 565.35 945.33 520.65 1115.57 556.51 1031.87 674.17 915.15 724.53 1045.39 756.11
00003188 00000053 792.82 320.67 419.30 568.92 948.84 522.52 1119.22 554.34 1038.16 675.58 920.10 727.32 1052.42 755.58
00003189 00000054 794.09 320.91 419.58 568.77 951.94 523.45 1122.44 554.24 1041.84 676.74 923.04 728.94 1055.87 756.39
00003190 00000055 793.55 321.32 418.07 569.29 947.83 523.69 1119.75 556.01 1037.98 677.07 919.91 728.04 1054.01 756.78
00003191 00000056 789.00 318.57 415.46 562.27 947.61 517.98 1115.75 556.28 1032.02 668.63 918.68 721.43 1058.78 754.63
00003192 00000057 788.04 318.64 415.86 563.44 946.95 516.86 1115.39 556.18 1030.95 667.79 916.63 721.08 1056.77 755.12
00003193 00000058 788.47 318.73 416.59 562.98 949.20 516.99 1117.24 554.93 1034.88 666.19 921.00 722.00 1059.31 754.71
00003194 00000059 788.29 316.99 418.42 566.94 950.38 517.71 1118.46 554.15 1037.38 667.49 923.04 723.33 1061.96 754.68
00003195 00000060 787.39 314.96 416.75 568.11 946.61 518.24 1114.74 553.87 1033.22 666.76 920.49 723.94 1058.62 754.49
00003196 00000061 785.75 311.51 414.95 569.43 939.96 521.13 1109.12 559.06 1025.02 661.97 911.56 722.33 1053.44 754.82
00003197 00000062 785.22 314.29 411.51 564.88 936.42 518.93 1106.50 558.30 1017.46 662.02 907.09 722.37 1047.31 756.04
00003198 00000063 784.76 312.24 414.67 571.16 939.25 519.20 1107.04 558.94 1020.85 661.47 908.90 723.71 1046.64 757.45
00003199 00000064 784.03 313.54 418.04 572.87 944.04 519.45 1110.97 556.81 1027.98 666.28 915.15 724.85 1050.61 756.59
00003200 00000065 788.92 315.84 418.39 575.01 942.99 523.58 1113.01 556.47 1033.00 671.71 917.83 728.47 1045.79 757.77
00003201 00000066 786.88 315.94 419.44 568.94 949.99 516.61 1117.17 552.25 1036.83 665.40 924.88 725.47 1058.85 755.74
00003202 00000067 787.39 315.87 418.96 566.91 949.62 516.77 1117.59 552.09 1037.48 664.31 925.76 725.62 1059.63 755.63
00003203 00000068 787.31 318.25 416.09 556.46 946.04 519.49 1116.30 552.78 1035.05 665.35 923.87 724.52 1059.21 753.23
00003204 00000069 787.53 314.04 413.49 558.70 940.16 523.16 1111.80 556.82 1028.15 665.19 915.56 721.94 1058.34 751.12
00003205 00000070 787.07 315.46 411.36 555.20 935.64 522.55 1107.02 559.87 1018.84 663.67 908.71 719.61 1051.45 751.85
00003206 00000071 785.99 319.46 408.46 552.92 931.27 521.87 1100.60 559.66 1007.00 667.01 901.57 720.63 1043.92 753.47
00003207 00000072 782.79 317.38 411.33 561.24 926.33 523.31 1094.91 562.73 999.96 668.36 893.72 721.35 1038.90 755.60
00003208 00000073 783.05 322.69 411.06 553.53 928.60 523.76 1097.93 563.20 1002.10 671.17 896.41 721.04 1041.25 755.55
00003209 00000074 784.29 323.91 412.44 555.72 933.08 525.10 1104.81 562.92 1011.61 671.83 903.32 722.81 1050.63 755.84
00003210 00000075 786.12 327.40 411.45 551.64 940.24 526.51 1109.66 562.41 1023.07 674.84 909.76 722.50 1055.08 754.35
00003211 00000076 786.24 326.04 412.45 552.61 943.50 526.09 1109.89 560.74 1026.87 675.84 913.00 722.20 1055.05 753.18
00003212 00000077 784.85 321.04 412.05 556.13 940.53 524.58 1106.78 560.76 1021.95 670.68 908.96 719.56 1051.26 751.46
00003213 00000078 783.39 318.73 409.22 560.21 934.88 521.93 1099.57 562.94 1008.05 670.29 899.70 717.24 1042.66 753.04
00003214 00000079 779.42 315.71 410.08 565.58 926.28 519.95 1091.89 563.35 996.27 665.04 888.38 716.47 1033.40 753.80
00003215 00000080 775.98 317.44 410.52 562.51 920.01 518.62 1084.53 563.32 986.26 665.54 879.99 715.76 1026.13 754.15
00003216 00000081 774.37 316.51 410.03 562.52 916.18 520.15 1081.18 565.06 982.24 665.79 876.89 715.79 1024.71 754.33
00003217 00000082 773.45 314.96 409.82 566.50 916.19 523.53 1082.78 566.60 985.97 669.57 877.99 718.32 1028.72 755.35
00003218 00000083 776.00 316.50 408.96 563.04 919.65 527.00 1087.80 566.52 991.76 674.23 884.10 720.16 1034.20 754.68
00003219 00000084 778.85 325.16 408.78 555.41 923.58 527.75 1094.77 562.84 999.62 677.61 890.74 721.72 1043.39 753.07
00003220 00000085 781.83 324.73 409.41 559.45 933.10 527.66 1103.14 563.48 1012.97 677.47 900.56 723.95 1049.67 755.82
00003221 00000086 783.99 330.05 412.65 551.09 940.01 530.46 1110.38 563.62 1026.77 676.31 911.47 724.11 1060.39 754.01
00003222 00000087 789.84 332.56 416.34 557.31 948.56 531.89 1120.40 562.61 1040.75 680.33 919.73 729.19 1059.61 756.90
00003223 00000088 792.54 335.41 420.37 559.54 958.73 531.13 1123.97 560.10 1046.97 682.96 925.55 729.88 1062.15 756.26
00003224 00000089 797.26 333.12 415.60 561.60 965.11 531.58 1125.40 559.98 1051.31 682.79 931.57 731.49 1063.80 757.57
00003225 00000090 797.42 330.61 415.13 563.92 965.22 530.50 1124.60 559.92 1050.63 680.94 931.07 729.99 1063.14 756.83
00003226 00000091 793.69 329.29 419.63 562.70 957.13 528.02 1122.62 558.98 1043.89 679.74 924.45 727.44 1059.11 755.27
00003227 00000092 788.18 321.04 411.73 555.15 945.03 527.32 1112.23 561.70 1032.35 670.48 916.91 717.88 1064.95 748.61
00003228 00000093 787.20 322.84 410.43 550.11 936.84 525.34 1107.28 564.46 1018.32 664.33 904.73 713.49 1056.83 747.84
00003229 00000094 785.18 316.03 405.49 557.02 926.18 523.68 1094.22 563.10 1000.22 666.17 891.58 713.19 1043.78 747.82
00003230 00000095 779.21 317.88 407.19 558.11 915.84 521.25 1084.74 563.83 984.66 660.63 879.38 710.45 1035.20 747.25
00003231 00000096 772.19 317.08 409.61 558.85 907.52 518.52 1075.99 564.58 975.73 660.13 869.51 708.44 1026.52 747.68
00003232 00000097 769.57 309.80 407.76 570.28 900.47 518.08 1066.58 566.44 967.61 662.37 863.80 708.18 1022.47 749.08
00003233 00000098 766.49 311.88 407.22 572.08 896.60 519.27 1061.94 565.99 962.27 668.10 860.25 713.61 1013.79 753.43
00003234 00000099 766.11 311.42 408.08 577.10 899.11 522.25 1063.31 567.64 964.86 671.76 861.50 716.83 1015.15 755.30
00003235 00000100 767.65 316.29 405.50 570.90 902.85 528.16 1067.00 571.75 970.83 676.11 866.03 716.75 1022.31 753.98
00003236 00000101 772.47 319.19 403.83 570.81 908.48 532.84 1076.35 574.26 979.49 679.31 872.62 719.92 1031.72 755.70
00003237 00000102 777.23 338.28 403.69 554.97 920.88 539.69 1086.34 574.91 992.09 687.97 884.05 722.59 1041.95 754.49
00003238 00000103 781.65 341.70 400.50 555.40 928.45 542.17 1090.32 575.08 1003.38 689.88 892.09 722.73 1049.96 753.05
00003239 00000104 781.62 341.12 401.18 554.54 928.22 541.90 1090.12 574.21 1003.17 689.47 892.60 721.66 1051.29 751.49
00003240 00000105 778.61 341.90 401.26 551.79 921.43 540.65 1085.83 573.52 993.39 687.97 886.27 720.96 1046.43 750.96
00003241 00000106 775.68 327.41 400.79 561.54 911.59 536.09 1078.78 572.87 982.50 680.32 876.91 717.57 1038.62 749.97
00003242 00000107 770.64 320.82 402.69 568.09 904.79 533.94 1072.26 573.12 976.00 677.28 868.87 715.87 1031.85 749.63
00003243 00000108 767.12 323.24 404.22 561.66 900.81 531.73 1067.42 571.90 971.24 674.86 865.23 714.05 1026.61 748.58
00003244 00000109 767.07 322.80 404.68 562.27 902.03 530.74 1067.50 570.97 972.14 674.29 865.88 713.75 1026.52 748.33
00003245 00000110 769.15 321.34 404.63 565.73 905.34 531.99 1071.65 570.92 977.37 674.35 869.77 715.85 1030.53 749.28
00003246 00000111 768.91 321.96 405.13 565.39 906.57 532.60 1072.25 570.09 979.44 675.63 871.49 716.11 1032.29 748.44
00003247 00000112 768.31 321.87 403.91 564.26 903.42 531.57 1068.94 568.79 976.05 674.05 869.51 716.06 1029.73 747.98
00003248 00000113 766.91 321.97 403.21 561.82 899.08 530.74 1063.54 569.14 968.90 674.18 865.82 715.11 1023.99 748.14
00003249 00000114 766.14 319.96 404.81 564.13 898.98 530.15 1061.43 569.50 967.26 673.64 864.44 714.76 1020.86 748.48
00003250 00000115 767.33 323.21 403.65 561.90 900.69 531.69 1065.17 569.31 971.61 673.34 866.85 715.19 1025.79 747.46
00003251 00000116 771.10 320.08 402.36 567.52 906.04 533.19 1071.44 569.65 978.80 675.30 873.07 717.69 1032.56 749.05
00003252 00000117 772.79 321.31 401.19 566.31 906.64 535.01 1073.88 570.78 980.55 676.18 874.91 718.45 1035.53 749.53
00003253 00000118 771.42 321.05 401.76 567.40 905.50 535.00 1071.25 571.49 977.89 676.57 873.11 719.32 1032.22 750.76
00003254 00000119 768.94 321.40 402.52 565.61 903.02 533.36 1068.73 571.44 974.41 675.30 869.63 718.42 1027.44 751.13
00003255 00000120 768.10 321.99 403.02 565.00 902.79 533.63 1068.83 571.97 974.50 674.84 869.37 718.28 1027.51 751.18
00003256 00000121 769.94 319.95 402.26 564.93 902.06 536.04 1072.69 571.34 977.98 676.73 871.81 720.16 1033.36 750.86
00003257 DELETE   775.35 317.51 396.94 566.06 908.47 539.64 1072.39 572.81 982.69 676.74 878.60 721.77 1033.14 750.86
00003258 00000123 778.22 317.20 394.79 567.74 911.95 539.85 1074.19 572.58 985.94 676.22 882.07 722.91 1033.55 751.68
00003259 00000124 779.64 315.13 398.29 571.22 917.11 537.08 1079.10 571.45 990.30 676.75 885.48 722.50 1035.83 752.86
00003260 00000125 781.02 320.47 402.87 565.23 925.30 531.72 1087.11 565.54 999.10 677.38 891.84 719.41 1043.30 749.61
00003261 00000126 782.07 317.67 405.83 562.43 934.90 528.81 1101.25 562.32 1017.84 671.21 905.84 719.13 1054.74 748.75
00003262 00000127 782.77 314.29 413.75 568.04 941.23 526.97 1108.01 559.28 1029.56 670.42 913.45 719.20 1063.14 747.54
00003263 00000128 784.21 315.84 413.11 561.06 942.68 523.63 1111.20 556.71 1032.45 666.82 916.68 717.48 1064.45 746.46
00003264 00000129 785.46 315.29 412.24 561.50 941.47 521.86 1111.40 555.72 1030.43 663.83 915.89 718.18 1062.65 747.69
00003265 00000130 786.67 315.27 409.32 559.53 940.71 518.66 1111.42 555.68 1026.86 660.31 913.25 716.90 1058.35 748.95
00003266 00000131 787.38 315.01 409.87 558.52 941.48 516.07 1112.34 555.53 1026.93 658.41 913.00 715.22 1057.55 749.23
00003267 00000132 788.16 316.88 412.27 555.64 943.93 515.84 1115.23 553.20 1030.81 660.59 918.67 716.77 1060.68 749.02
00003268 00000133 790.23 317.35 412.14 555.72 948.75 514.79 1118.73 552.37 1038.19 661.65 923.29 715.23 1067.25 747.76
00003269 00000134 787.89 317.30 416.02 559.05 949.67 515.66 1118.41 551.92 1038.10 667.07 923.20 717.85 1064.56 749.21
00003270 00000135 787.46 315.06 414.19 561.74 945.83 516.61 1112.10 554.17 1028.78 665.64 917.49 717.52 1057.05 749.85
00003271 00000136 787.66 313.41 409.98 561.38 937.69 516.61 1106.89 556.98 1017.80 657.97 907.29 713.26 1053.56 747.99
00003272 00000137 787.41 310.53 407.28 564.63 934.75 516.56 1103.37 559.34 1012.73 656.91 902.34 711.67 1051.00 748.47
00003273 00000138 786.86 312.83 408.92 560.97 937.01 517.35 1105.50 559.11 1016.43 657.44 905.19 712.11 1052.05 748.07
00003274 00000139 786.05 313.19 412.38 563.60 940.51 518.61 1108.66 558.11 1022.89 659.44 911.18 717.06 1053.90 750.96
00003275 00000140 786.28 313.17 412.50 563.25 940.67 519.09 1109.62 558.55 1024.52 664.53 908.64 716.57 1054.42 750.95
00003276 00000141 785.62 314.96 411.05 562.64 939.90 517.91 1107.66 559.03 1020.88 662.27 906.64 714.78 1051.94 750.58
00003277 00000142 785.20 315.80 410.89 562.11 939.40 518.55 1106.14 560.66 1018.00 663.05 904.70 715.29 1048.52 751.91
00003278 00000143 784.46 313.95 411.63 567.97 939.99 520.33 1107.13 561.88 1020.68 665.54 905.55 717.62 1050.67 753.80
00003279 00000144 785.23 315.98 414.09 565.10 942.20 521.23 1109.15 560.30 1024.61 670.17 908.28 719.76 1052.47 754.20
00003280 00000145 786.49 316.20 414.07 562.51 943.94 519.56 1111.14 559.23 1026.62 669.99 910.81 718.72 1053.72 753.60
00003281 00000146 785.99 315.79 412.77 560.66 940.65 518.56 1109.30 560.17 1021.40 663.93 907.35 718.02 1049.46 754.18
00003282 00000147 782.65 312.73 408.49 564.85 932.72 520.28 1103.83 560.05 1013.74 664.77 901.79 723.24 1044.60 757.61
00003283 00000148 779.55 310.50 409.18 566.39 926.79 522.77 1096.32 560.17 1005.71 668.25 895.09 726.21 1036.04 758.62
00003284 00000149 776.88 314.09 409.32 562.12 925.54 523.09 1093.67 559.50 1002.23 669.91 894.65 728.22 1031.78 759.51
00003285 00000150 776.06 315.00 410.13 562.73 927.62 523.78 1094.57 558.79 1004.91 668.67 898.41 729.87 1032.66 759.87
00003286 00000151 775.19 317.71 408.40 561.95 927.28 527.83 1098.45 558.99 1010.36 674.11 897.55 728.64 1043.35 756.31
00003287 00000152 776.42 316.32 408.26 565.85 931.28 529.66 1102.63 561.38 1017.60 673.20 901.34 728.59 1047.66 756.77
00003288 00000153 777.25 322.06 411.93 564.53 935.51 526.96 1106.74 561.27 1019.74 674.90 905.07 729.40 1049.41 759.39
00003289 00000154 779.15 323.67 412.43 564.37 939.02 526.57 1107.97 561.58 1022.52 676.29 906.77 730.23 1048.57 761.10
00003290 00000155 779.55 326.32 416.95 562.10 939.36 526.09 1109.21 562.13 1022.41 675.45 905.07 728.44 1049.66 760.30
00003291 00000156 779.45 322.57 415.24 563.63 937.99 525.11 1105.96 563.94 1017.38 672.80 903.05 726.73 1044.77 760.51
00003292 00000157 779.33 321.77 410.16 563.47 931.72 525.24 1097.48 564.82 1006.70 676.05 894.37 724.63 1038.09 759.54
00003293 00000158 777.44 318.89 412.53 570.45 927.26 520.89 1091.52 566.58 994.61 675.09 883.84 723.47 1027.72 763.01
00003294 00000159 775.44 317.64 415.90 573.55 925.95 521.11 1090.37 566.74 993.41 672.51 882.75 724.20 1026.18 763.31
00003295 00000160 774.95 320.06 416.93 574.47 929.54 521.77 1092.17 566.61 998.10 674.78 885.27 723.27 1030.14 761.82
00003296 00000161 775.92 324.33 410.75 562.17 932.53 523.15 1095.29 563.11 1005.44 675.80 892.33 724.56 1032.22 759.58
00003297 00000162 775.46 322.70 409.07 557.84 931.37 523.55 1095.64 561.00 1007.27 673.54 894.84 724.12 1034.72 756.95
00003298 00000163 772.71 319.28 412.38 562.38 925.80 522.55 1090.20 559.73 1001.03 672.91 889.35 722.32 1032.94 754.75
00003299 00000164 770.49 318.39 412.93 561.75 920.20 520.62 1085.54 559.75 994.08 668.85 884.16 721.13 1028.49 754.83
00003300 00000165 770.16 317.47 414.50 564.55 920.70 521.70 1087.71 561.82 995.26 668.56 883.66 721.90 1029.48 756.33
00003301 00000166 772.30 318.80 413.89 568.45 925.55 524.16 1091.08 562.21 1001.16 673.27 888.39 723.24 1035.41 756.33
