Video ID: 	Qgq0NqN6a9A
H: 	1080
W: 	1920
FPS: 	25.0

FRAME INDEX X0 Y0 W H [Landmarks (5 Points)]

00001150 00000000 729.97 160.25 384.85 575.80 941.71 395.98 1106.03 419.87 1086.69 515.85 943.28 612.12 1067.49 631.66
00001151 DELETE   724.75 156.70 386.35 581.15 941.35 404.52 1101.69 427.83 1081.49 519.77 939.93 614.01 1061.20 633.21
00001152 00000002 723.92 155.40 386.56 581.54 937.89 402.83 1100.59 426.78 1079.05 518.50 938.26 613.81 1060.67 633.57
00001153 00000003 723.46 154.06 388.41 582.54 938.54 398.73 1101.37 421.83 1081.76 516.10 938.88 612.84 1062.27 631.92
00001154 00000004 722.08 153.01 389.74 581.78 937.31 395.88 1099.59 419.54 1081.54 513.46 938.36 610.40 1061.38 629.97
00001155 00000005 725.69 152.85 387.70 579.36 938.55 391.59 1101.67 415.94 1082.29 510.84 939.75 607.57 1063.88 627.75
00001156 00000006 728.92 148.67 386.82 581.47 940.98 387.98 1104.09 409.23 1086.31 508.97 941.33 606.00 1066.78 624.13
00001157 00000007 736.05 146.49 385.11 579.96 945.42 383.13 1111.82 404.34 1089.48 506.51 942.94 598.98 1074.52 617.63
00001158 00000008 740.44 146.99 379.07 576.85 948.41 380.36 1097.61 399.29 1092.48 500.06 952.46 585.66 1074.26 603.52
00001159 00000009 748.15 135.58 379.05 586.42 960.43 379.44 1103.82 397.80 1106.20 492.93 966.12 581.54 1082.60 598.46
00001160 00000010 757.11 131.96 387.77 587.56 969.35 374.61 1118.69 391.32 1115.53 486.67 975.32 579.03 1096.01 594.42
00001161 00000011 768.51 136.88 388.16 579.81 979.63 372.68 1130.04 385.00 1127.94 485.07 990.86 578.61 1112.78 590.17
00001162 00000012 786.41 132.24 383.11 577.63 995.93 371.23 1152.96 391.36 1142.84 487.07 1001.62 582.36 1123.29 599.99
00001163 00000013 804.78 127.60 375.52 574.91 1009.85 366.94 1172.03 381.35 1159.23 484.33 1016.60 582.79 1143.35 596.07
00001164 00000014 807.23 126.73 378.16 576.98 1021.45 366.86 1169.29 377.96 1169.56 479.35 1035.12 570.60 1152.22 581.53
00001165 00000015 820.35 126.16 383.22 583.10 1035.75 369.17 1184.05 376.85 1186.62 476.39 1052.59 575.37 1171.05 582.60
00001166 00000016 836.74 134.69 387.55 574.37 1049.02 371.19 1200.04 376.72 1202.12 480.14 1068.67 577.51 1191.24 583.25
00001167 00000017 858.76 133.72 381.45 575.31 1065.86 374.41 1223.33 388.73 1215.47 485.83 1077.65 584.26 1200.27 596.87
00001168 00000018 876.80 132.86 375.46 574.52 1079.93 377.31 1242.16 386.14 1231.78 489.39 1090.41 587.96 1218.79 596.62
00001169 00000019 882.82 141.40 376.61 571.92 1092.40 381.82 1239.80 387.36 1241.51 491.73 1110.44 583.54 1227.27 590.28
00001170 00000020 897.62 144.65 375.10 578.76 1107.11 387.17 1250.11 391.48 1256.47 494.34 1122.29 587.20 1238.24 593.07
00001171 00000021 910.06 145.40 386.32 579.43 1115.75 390.15 1265.68 388.67 1269.53 496.01 1137.78 592.46 1258.09 593.00
00001172 00000022 922.90 151.22 388.75 571.05 1131.06 395.55 1292.36 404.06 1281.88 498.40 1150.01 604.79 1270.14 610.92
00001173 00000023 938.31 150.78 383.89 573.67 1139.81 397.85 1306.88 405.26 1291.76 503.23 1155.96 608.71 1284.27 614.58
00001174 00000024 948.06 151.22 382.13 572.09 1146.88 396.90 1315.00 404.52 1297.93 505.13 1164.09 608.60 1294.67 614.71
00001175 00000025 956.86 150.93 381.17 573.14 1153.50 396.23 1320.39 401.85 1303.00 505.54 1168.39 606.01 1300.57 611.00
00001176 00000026 959.87 150.33 382.08 574.78 1158.91 396.29 1323.07 398.43 1307.42 506.60 1173.20 605.46 1303.29 607.80
00001177 00000027 962.53 147.20 380.81 577.48 1160.29 393.18 1324.78 394.71 1308.90 505.49 1173.19 603.06 1305.13 605.33
00001178 00000028 961.37 143.98 380.73 578.02 1157.42 390.12 1324.10 391.75 1307.93 502.50 1169.75 600.69 1304.49 603.20
00001179 00000029 958.75 136.93 378.36 578.81 1153.13 385.08 1321.35 386.79 1304.95 497.36 1165.09 595.32 1302.04 598.23
00001180 00000030 954.70 128.62 375.45 575.95 1148.75 375.96 1317.06 379.34 1302.04 487.96 1162.49 588.31 1296.18 592.87
00001181 00000031 946.61 124.58 378.79 575.76 1145.31 366.77 1313.42 373.62 1298.73 481.83 1158.74 582.51 1290.86 589.56
00001182 00000032 938.46 117.06 382.73 582.42 1140.49 360.48 1306.15 374.35 1291.97 476.89 1155.50 578.66 1283.11 590.99
00001183 00000033 928.36 115.80 387.93 581.96 1138.28 354.58 1298.18 372.57 1287.89 473.32 1152.74 574.53 1273.25 590.08
00001184 00000034 919.54 115.06 393.03 580.26 1133.92 347.90 1292.40 368.42 1283.50 468.62 1149.79 569.56 1266.82 586.85
00001185 DELETE   909.40 116.37 392.86 582.47 1126.51 364.53 1279.33 373.05 1280.54 468.09 1148.45 570.79 1272.57 578.08
00001186 00000036 904.08 109.58 396.73 590.80 1119.86 365.05 1277.39 373.09 1276.33 465.91 1142.46 569.71 1271.07 575.54
00001187 00000037 903.97 108.38 395.41 594.70 1116.60 358.02 1275.47 367.75 1275.62 465.75 1141.63 571.09 1270.67 578.49
00001188 00000038 901.16 107.22 398.59 599.57 1115.27 354.80 1274.88 363.96 1275.14 466.09 1142.08 572.59 1270.22 579.43
00001189 00000039 899.14 106.18 400.09 601.57 1114.15 354.37 1275.04 364.07 1273.94 467.77 1140.22 573.42 1269.62 580.63
00001190 00000040 898.11 107.18 402.65 602.08 1113.66 354.81 1277.49 365.99 1272.99 469.54 1138.01 573.87 1269.96 582.33
00001191 00000041 899.12 108.89 403.81 603.35 1114.87 357.51 1279.27 366.32 1273.77 471.79 1139.26 576.01 1271.50 583.01
00001192 00000042 903.75 110.50 402.62 607.31 1118.23 359.86 1282.49 365.43 1277.95 474.61 1142.02 579.56 1274.09 584.53
00001193 00000043 912.13 107.19 403.97 607.77 1128.45 359.83 1294.92 372.53 1283.76 483.10 1141.58 588.27 1265.88 598.79
00001194 00000044 907.23 108.29 405.75 617.00 1124.01 364.25 1289.00 370.66 1282.18 480.54 1146.33 583.32 1278.61 588.81
00001195 00000045 915.02 107.57 404.75 609.13 1131.40 365.65 1300.14 379.37 1284.77 488.50 1145.88 593.07 1271.78 604.15
00001196 00000046 919.77 110.34 402.87 606.51 1132.71 367.13 1303.90 381.03 1285.43 490.91 1146.75 594.42 1274.14 605.85
00001197 00000047 922.26 112.47 401.99 605.13 1134.88 368.88 1304.98 383.51 1286.17 494.27 1146.94 595.82 1273.76 608.02
00001198 00000048 923.67 116.99 401.85 601.92 1135.70 371.34 1306.47 387.10 1286.65 496.48 1147.00 597.60 1274.24 610.63
00001199 00000049 923.85 121.09 400.77 599.98 1134.33 374.79 1305.92 390.49 1284.94 497.91 1146.24 599.35 1274.34 612.35
00001200 00000050 922.13 124.61 400.67 598.59 1132.39 377.09 1303.27 391.35 1283.28 499.78 1144.44 601.24 1271.79 613.10
00001201 00000051 916.91 128.71 398.94 604.78 1127.99 376.93 1291.16 388.55 1280.65 496.51 1143.99 592.40 1273.54 602.80
00001202 00000052 915.18 131.37 399.20 603.76 1127.52 378.81 1286.87 390.30 1278.32 498.70 1142.29 594.27 1267.21 605.10
00001203 00000053 917.17 135.06 395.79 601.08 1127.24 382.61 1284.98 394.08 1277.06 500.89 1142.83 596.48 1265.08 607.51
00001204 00000054 916.93 141.10 396.48 596.03 1125.69 386.89 1283.51 394.25 1274.80 504.18 1143.95 599.66 1264.34 607.69
00001205 00000055 917.80 144.11 394.60 593.37 1124.00 391.84 1281.87 396.41 1273.02 506.86 1143.63 602.48 1263.86 608.44
00001206 00000056 917.88 150.42 392.79 584.28 1124.86 399.23 1287.94 409.19 1269.88 509.58 1144.14 615.36 1261.07 622.48
00001207 00000057 917.79 151.92 392.45 585.76 1124.42 401.55 1286.22 409.36 1270.10 511.50 1143.41 616.66 1260.10 622.08
00001208 00000058 917.64 152.77 391.85 585.77 1124.19 403.49 1285.87 408.53 1271.11 513.26 1144.61 618.68 1260.95 621.76
00001209 00000059 917.91 154.31 390.09 585.23 1123.57 405.40 1284.68 410.01 1271.36 514.45 1144.35 620.03 1260.90 622.76
00001210 00000060 917.20 156.59 389.10 583.54 1123.13 406.25 1283.95 410.73 1271.37 514.68 1144.89 620.77 1260.42 623.35
00001211 00000061 917.06 158.70 388.36 581.32 1122.82 407.15 1283.79 412.67 1272.01 515.41 1144.53 621.29 1260.52 624.67
00001212 00000062 915.94 160.37 388.55 580.38 1121.10 407.57 1282.19 413.27 1269.76 515.22 1143.16 621.26 1258.35 624.87
00001213 00000063 915.47 162.29 387.40 577.76 1118.15 408.23 1280.48 414.59 1266.85 515.92 1140.95 622.28 1255.75 626.49
00001214 00000064 915.16 164.55 386.37 574.68 1116.46 409.22 1278.79 415.30 1264.96 517.60 1139.44 623.11 1253.56 627.19
00001215 00000065 914.69 165.99 385.13 574.46 1115.68 411.01 1277.25 416.52 1264.22 519.23 1138.27 623.94 1251.94 627.62
00001216 00000066 914.15 167.17 384.14 573.15 1114.24 412.39 1275.46 417.41 1262.13 520.24 1136.92 624.71 1250.37 628.07
00001217 00000067 911.03 162.44 386.12 586.84 1117.38 409.75 1276.73 415.55 1268.25 524.98 1131.34 625.59 1258.73 631.30
00001218 00000068 910.89 164.76 385.81 585.36 1116.61 411.38 1276.83 415.83 1267.48 526.56 1131.70 627.44 1259.61 632.14
00001219 00000069 910.00 166.91 385.49 583.62 1115.53 412.59 1277.06 416.66 1267.27 527.32 1131.37 628.45 1259.89 632.89
00001220 00000070 910.65 168.66 385.46 581.85 1115.34 414.06 1277.31 417.45 1267.56 528.35 1132.16 629.71 1260.23 633.61
00001221 00000071 911.29 170.51 384.28 580.65 1114.05 415.50 1278.00 418.67 1267.81 529.78 1132.23 632.10 1261.30 635.65
00001222 00000072 910.66 170.76 384.47 581.01 1114.85 416.84 1278.08 419.98 1267.74 530.37 1132.34 631.95 1260.71 635.61
00001223 00000073 909.63 173.50 385.03 578.04 1113.59 417.93 1277.90 421.79 1266.49 531.65 1130.58 632.66 1259.43 636.90
00001224 00000074 909.29 174.44 384.79 577.26 1113.13 418.63 1277.12 422.48 1266.08 531.55 1129.94 632.37 1258.74 636.61
00001225 00000075 909.35 175.97 384.27 575.06 1112.95 418.46 1276.97 422.72 1265.80 531.41 1130.08 632.28 1258.71 636.87
00001226 00000076 909.93 176.16 383.53 573.75 1112.97 418.58 1276.68 422.87 1265.41 531.19 1129.84 632.28 1257.65 636.87
00001227 00000077 909.46 175.98 383.86 574.26 1112.70 419.36 1276.61 422.85 1264.83 531.36 1129.28 632.09 1257.36 636.14
00001228 00000078 909.89 176.14 383.60 574.06 1113.17 419.65 1276.60 423.51 1265.15 531.77 1129.17 632.49 1257.08 636.87
00001229 00000079 910.37 177.04 382.85 573.29 1113.46 420.38 1276.88 424.47 1264.90 532.51 1128.79 632.37 1256.70 636.97
00001230 00000080 909.17 175.90 382.70 573.18 1112.60 419.85 1275.54 424.74 1263.17 531.71 1126.38 631.86 1254.50 636.90
00001231 00000081 908.90 175.17 381.07 572.78 1111.94 419.57 1274.76 424.43 1262.49 530.39 1126.45 631.79 1255.04 636.44
00001232 00000082 907.90 174.32 381.92 572.95 1110.89 419.03 1273.56 423.75 1260.79 529.59 1125.65 631.23 1253.78 635.62
00001233 00000083 907.13 173.47 382.15 572.42 1109.85 418.90 1272.36 423.40 1259.60 528.62 1125.19 630.72 1253.26 634.68
00001234 00000084 907.03 173.73 381.60 571.49 1109.76 418.01 1272.61 422.83 1259.45 528.01 1125.06 630.05 1253.47 634.17
00001235 00000085 906.01 173.70 382.07 570.32 1109.53 417.63 1272.60 423.29 1258.87 527.49 1124.05 629.57 1252.61 634.26
00001236 00000086 906.03 173.28 379.96 570.48 1108.55 416.53 1270.13 422.99 1256.71 527.11 1123.12 628.34 1250.46 633.80
00001237 00000087 905.72 174.23 378.28 569.34 1107.69 414.70 1268.43 421.91 1255.10 525.82 1121.49 626.12 1248.58 632.42
00001238 00000088 904.78 173.48 378.32 569.48 1106.30 413.02 1266.50 421.44 1252.28 525.43 1119.75 624.23 1246.47 631.48
00001239 00000089 904.51 172.95 378.01 569.78 1106.28 412.03 1266.08 420.37 1252.61 524.26 1119.92 623.66 1246.12 630.80
00001240 00000090 903.83 172.04 377.26 569.07 1105.09 411.21 1263.93 420.28 1250.31 523.04 1118.41 621.56 1244.16 629.24
00001241 00000091 901.79 170.60 376.99 568.57 1103.76 410.00 1260.89 419.06 1247.62 523.03 1116.74 619.11 1241.73 626.73
00001242 00000092 901.93 167.60 375.95 569.88 1102.55 408.06 1258.82 416.34 1246.81 520.77 1115.37 617.11 1241.84 624.01
00001243 00000093 901.90 175.81 375.32 558.24 1095.87 417.12 1250.61 426.01 1236.72 516.94 1115.89 614.86 1228.58 622.05
00001244 00000094 901.11 174.05 374.46 560.02 1094.24 415.69 1248.30 423.30 1234.71 516.60 1113.12 613.73 1225.60 620.05
00001245 00000095 901.35 172.31 373.13 561.58 1093.40 413.40 1247.42 420.69 1232.86 516.23 1112.06 612.98 1223.84 619.09
00001246 00000096 901.21 172.16 371.78 561.04 1092.83 410.32 1247.16 418.46 1232.86 515.33 1110.38 611.74 1222.73 618.54
00001247 00000097 900.50 169.70 371.15 563.40 1091.12 411.27 1244.85 418.49 1230.60 515.66 1108.49 612.44 1221.07 618.52
00001248 00000098 899.24 169.66 371.07 562.36 1089.42 410.76 1243.71 417.84 1229.01 514.89 1107.05 612.02 1220.47 618.09
00001249 00000099 897.33 169.12 370.83 560.91 1087.74 410.16 1242.30 418.13 1227.73 513.83 1104.44 611.10 1219.32 617.93
00001250 00000100 896.40 168.35 371.28 561.07 1087.21 409.85 1241.48 417.58 1226.56 513.86 1103.37 610.92 1218.61 617.58
00001251 00000101 895.81 168.35 371.40 561.53 1086.42 410.25 1240.72 417.37 1226.50 513.80 1102.67 611.00 1218.27 617.25
00001252 00000102 894.78 168.69 371.70 560.93 1085.70 409.73 1239.05 416.71 1225.56 513.87 1101.75 611.00 1217.00 617.19
00001253 00000103 894.69 169.13 370.48 559.79 1084.93 410.18 1238.75 417.21 1224.89 513.60 1101.02 610.73 1217.07 616.91
00001254 00000104 892.94 170.34 370.28 559.24 1083.62 410.52 1237.34 416.99 1224.95 514.09 1099.71 611.02 1216.58 616.75
00001255 00000105 892.04 170.68 370.56 558.82 1083.35 411.86 1236.28 418.34 1223.62 514.47 1099.22 611.54 1215.19 617.27
00001256 00000106 891.37 173.62 367.67 555.63 1086.62 423.80 1236.23 430.17 1222.62 515.78 1098.07 609.96 1213.25 615.65
00001257 00000107 899.29 172.30 365.91 557.75 1087.90 418.53 1248.60 421.56 1225.17 522.80 1096.48 616.75 1221.14 620.58
00001258 00000108 897.96 170.26 368.12 558.26 1085.82 411.93 1248.29 416.67 1224.40 520.87 1096.20 615.41 1221.76 620.45
00001259 00000109 895.54 166.98 371.31 559.91 1082.14 407.51 1247.97 413.13 1223.32 519.45 1094.68 615.01 1221.89 620.51
00001260 00000110 892.87 166.02 371.39 558.31 1078.13 405.62 1246.96 412.00 1221.50 518.10 1092.02 613.93 1221.66 619.84
00001261 00000111 891.25 164.44 372.10 557.81 1076.46 405.56 1246.37 411.93 1220.35 517.51 1091.55 614.01 1221.77 619.66
00001262 00000112 890.90 163.21 372.25 558.02 1075.34 404.71 1246.86 411.47 1219.76 516.78 1091.00 613.69 1222.11 619.66
00001263 00000113 890.84 163.17 372.19 556.96 1074.82 404.25 1246.91 411.02 1219.47 516.16 1091.15 613.44 1222.54 619.33
00001264 00000114 890.49 162.18 372.70 559.05 1076.05 404.32 1246.05 409.97 1219.42 516.38 1090.90 612.16 1221.25 617.32
00001265 00000115 890.79 162.84 372.10 558.33 1075.50 403.93 1245.42 409.56 1218.71 515.39 1090.50 611.64 1221.04 616.85
00001266 00000116 891.16 162.76 371.76 558.66 1075.22 403.01 1245.57 408.89 1218.80 514.85 1090.26 611.33 1221.10 616.77
00001267 00000117 891.14 162.60 371.79 558.18 1075.24 402.91 1245.45 408.76 1218.88 514.95 1090.15 611.16 1220.90 616.59
00001268 00000118 890.57 161.79 371.36 559.25 1075.36 402.19 1245.07 408.63 1219.30 513.95 1090.17 610.26 1220.92 616.10
00001269 00000119 891.62 161.40 371.22 558.65 1075.00 401.86 1245.66 408.10 1218.94 513.40 1090.08 609.99 1221.67 615.74
00001270 00000120 892.32 161.59 370.68 558.44 1075.63 402.10 1244.87 407.69 1218.59 513.76 1090.89 610.23 1220.98 615.47
00001271 00000121 893.27 162.66 370.46 557.70 1076.61 402.23 1245.61 407.86 1219.53 514.36 1091.64 610.72 1221.41 615.96
00001272 00000122 893.65 162.98 369.73 557.66 1076.97 402.68 1245.11 408.08 1219.23 514.91 1091.90 610.99 1220.69 616.07
00001273 00000123 893.07 163.44 369.92 557.75 1076.76 403.67 1245.07 408.62 1219.17 515.76 1092.23 612.22 1220.53 616.86
00001274 00000124 891.66 162.72 370.16 558.02 1075.44 404.39 1244.58 409.30 1219.20 516.01 1092.04 613.43 1220.78 617.90
00001275 00000125 891.51 162.31 371.01 558.21 1074.92 404.31 1244.88 409.60 1218.14 516.71 1090.86 613.06 1220.64 617.86
00001276 00000126 891.07 162.62 370.87 558.04 1074.24 404.11 1244.54 409.51 1217.90 516.69 1090.74 613.21 1220.55 618.06
00001277 00000127 891.04 162.51 370.50 557.64 1074.15 403.93 1244.79 409.44 1217.81 516.73 1090.60 613.15 1220.71 618.10
00001278 00000128 891.66 162.41 370.50 558.21 1074.06 403.89 1244.65 409.87 1217.30 516.42 1090.23 612.41 1220.52 617.76
00001279 00000129 891.91 162.67 369.56 557.29 1074.04 404.80 1244.14 410.31 1217.62 516.50 1091.19 612.63 1220.29 617.53
00001280 00000130 892.09 161.74 368.57 557.46 1073.33 405.12 1243.77 410.42 1217.41 516.91 1090.86 612.85 1220.18 617.56
00001281 00000131 892.41 161.77 368.62 557.51 1073.35 404.92 1243.99 410.19 1217.24 516.71 1090.70 612.70 1220.20 617.46
00001282 00000132 892.39 161.96 368.96 557.33 1073.43 405.31 1243.97 410.27 1217.37 516.89 1090.97 612.94 1220.57 617.42
00001283 00000133 891.52 161.92 369.31 556.75 1073.26 405.11 1243.75 410.27 1217.41 516.98 1090.96 612.74 1220.47 617.33
00001284 00000134 891.75 162.01 369.42 556.53 1073.25 405.04 1244.17 410.49 1217.49 516.67 1091.20 612.93 1220.84 617.72
00001285 00000135 891.65 161.75 370.02 557.02 1072.75 404.75 1244.59 410.14 1217.19 516.48 1090.73 612.59 1221.27 617.36
00001286 00000136 891.19 162.18 370.36 556.45 1072.95 402.93 1244.88 409.05 1217.45 515.93 1091.19 612.87 1221.29 618.11
00001287 00000137 891.43 162.33 370.33 556.63 1073.75 401.96 1245.28 408.27 1217.88 515.45 1091.38 612.50 1221.23 618.00
00001288 00000138 891.24 162.11 369.85 557.07 1073.48 401.05 1245.58 407.73 1218.40 514.78 1091.41 612.48 1221.43 618.26
00001289 00000139 890.90 162.60 370.05 556.13 1072.87 400.39 1245.55 407.59 1217.79 513.30 1091.37 611.96 1221.78 618.07
00001290 00000140 890.09 161.42 370.23 556.18 1072.18 399.93 1244.50 407.17 1217.48 512.15 1090.53 610.54 1221.13 616.72
00001291 00000141 889.19 159.50 370.00 557.64 1071.97 399.15 1243.52 406.89 1217.53 510.98 1090.62 609.87 1220.76 616.38
00001292 00000142 889.93 157.28 369.84 558.67 1072.35 397.97 1243.30 406.90 1216.39 508.92 1089.85 607.70 1219.94 615.29
00001293 00000143 890.30 155.20 369.15 559.59 1071.12 396.76 1243.61 405.86 1215.44 506.87 1088.04 606.47 1220.27 614.25
00001294 00000144 889.70 154.74 370.05 559.97 1069.95 396.17 1243.84 405.56 1214.21 505.14 1087.04 605.47 1220.62 613.45
00001295 00000145 888.20 152.66 371.18 561.24 1069.02 394.56 1243.46 403.92 1213.25 505.84 1084.63 603.74 1219.20 611.76
00001296 00000146 886.55 150.61 371.85 562.17 1067.28 393.56 1242.41 403.91 1212.41 505.27 1082.96 603.01 1218.22 611.77
00001297 00000147 885.20 145.88 372.61 564.71 1065.77 391.96 1241.15 402.28 1210.71 503.68 1081.85 601.04 1216.60 609.74
00001298 00000148 884.16 144.41 371.44 565.36 1065.67 391.21 1239.44 401.31 1210.88 502.25 1081.97 599.44 1215.16 608.08
00001299 00000149 883.68 143.02 370.97 566.51 1064.96 390.22 1239.00 400.01 1210.68 502.83 1080.51 599.00 1214.25 607.53
00001300 00000150 882.05 142.55 370.04 565.56 1063.18 389.51 1236.57 399.57 1208.90 501.79 1079.58 598.65 1211.70 607.25
00001301 00000151 879.25 142.55 370.39 566.36 1060.12 389.49 1234.22 398.61 1206.34 501.61 1077.11 599.38 1208.57 607.05
00001302 00000152 876.65 142.15 371.24 566.92 1057.45 389.83 1230.86 397.11 1204.24 501.51 1075.07 599.99 1205.72 606.20
00001303 00000153 874.20 145.07 371.40 566.73 1055.86 392.48 1227.09 401.35 1201.14 500.23 1075.87 600.57 1203.34 607.70
00001304 00000154 871.26 146.65 372.71 566.59 1053.33 394.85 1224.42 404.71 1198.66 499.98 1074.22 601.71 1201.18 609.38
00001305 00000155 868.96 146.55 373.10 567.38 1050.11 394.68 1221.38 403.90 1194.83 500.69 1070.72 602.45 1196.82 609.42
00001306 00000156 865.66 146.10 373.84 568.12 1048.53 395.77 1217.24 406.26 1192.06 502.28 1068.12 604.07 1192.30 612.08
00001307 00000157 861.04 149.60 374.17 566.29 1046.78 397.05 1212.07 407.58 1189.55 502.33 1065.60 604.24 1187.23 612.21
00001308 00000158 853.97 154.65 376.07 563.92 1042.11 398.09 1207.16 408.83 1185.72 502.18 1062.88 605.79 1182.73 613.71
00001309 00000159 849.11 158.81 377.16 561.89 1038.48 398.07 1200.21 410.10 1180.49 501.27 1059.63 605.28 1176.61 614.26
00001310 00000160 844.92 162.15 376.64 559.63 1034.54 399.30 1196.89 412.17 1176.42 501.19 1055.73 604.14 1172.84 613.92
00001311 00000161 844.27 164.75 373.07 561.25 1036.47 395.38 1191.15 404.35 1182.13 508.18 1053.22 598.94 1169.82 609.42
00001312 00000162 844.40 164.18 370.00 561.83 1033.53 397.18 1184.37 406.08 1175.46 508.36 1050.40 598.18 1164.21 608.63
00001313 00000163 842.27 165.23 369.09 559.79 1030.94 396.42 1181.19 405.51 1171.09 508.60 1047.84 597.16 1161.38 607.66
