Video ID: 	-zrYr4l-Vzs
H: 	1080
W: 	1920
FPS: 	29.97002997002997

FRAME INDEX X0 Y0 W H [Landmarks (5 Points)]

00001100 00000000 732.54 150.10 382.03 587.04 837.33 400.18 1020.45 403.83 934.00 511.83 855.14 604.07 1008.02 606.79
00001101 00000001 729.47 156.35 378.12 578.11 834.21 400.99 1012.70 404.08 929.92 511.86 850.69 599.66 1002.91 602.17
00001102 00000002 726.97 162.38 374.70 568.60 831.45 402.79 1004.92 404.52 926.58 512.16 848.79 597.66 996.55 599.21
00001103 00000003 725.09 165.21 370.35 565.18 828.70 403.60 996.91 405.81 921.28 510.77 847.67 596.03 990.64 597.92
00001104 00000004 723.78 166.22 368.50 562.01 828.15 401.64 993.07 404.59 919.91 507.05 847.44 593.65 986.77 596.25
00001105 00000005 724.81 165.04 365.55 561.13 827.65 398.43 993.61 400.23 920.19 503.87 849.17 594.49 985.78 596.21
00001106 00000006 727.58 162.70 363.73 559.66 829.96 394.40 995.92 395.90 923.15 502.59 854.13 596.35 983.54 597.80
00001107 00000007 731.08 159.80 362.36 555.26 830.20 389.40 998.77 389.54 924.85 499.62 857.02 596.02 985.65 596.11
00001108 00000008 734.84 157.20 363.23 557.04 833.08 387.60 1002.27 386.05 928.48 493.91 861.37 595.28 989.89 593.94
00001109 00000009 737.82 156.35 364.49 555.05 835.37 388.10 1005.34 383.29 931.80 490.86 867.73 596.00 995.22 592.09
00001110 00000010 743.87 155.37 362.56 555.73 838.86 386.79 1010.92 380.57 935.07 485.34 872.09 594.24 1003.41 589.99
00001111 00000011 750.89 150.64 359.24 558.06 842.18 384.19 1018.76 378.20 939.91 480.80 873.49 589.66 1012.42 586.59
00001112 00000012 754.93 149.58 359.07 555.61 847.85 381.66 1023.17 374.74 943.89 474.34 875.87 583.75 1016.33 580.00
00001113 00000013 759.41 148.24 360.74 556.86 855.18 378.63 1029.39 374.38 953.08 471.69 880.73 580.65 1020.37 579.06
00001114 00000014 764.84 147.67 361.54 560.92 862.46 377.89 1036.09 374.73 960.98 473.23 884.74 579.41 1025.63 578.86
00001115 00000015 769.55 148.97 362.69 560.70 866.86 377.83 1040.31 375.14 966.06 475.39 889.18 578.08 1031.28 577.71
00001116 00000016 773.23 149.08 363.47 559.60 868.44 378.20 1044.55 375.06 968.88 476.58 890.57 577.41 1036.27 576.81
00001117 00000017 772.06 152.90 368.50 563.59 874.45 378.44 1047.15 383.75 973.99 479.40 894.35 576.36 1041.01 581.25
00001118 00000018 774.11 155.76 371.65 561.07 879.10 379.88 1052.45 385.66 977.61 482.53 896.35 575.23 1046.06 580.18
00001119 00000019 776.12 158.69 374.82 560.19 882.46 383.52 1055.32 388.99 979.98 485.94 898.91 576.28 1051.16 580.64
00001120 DELETE   779.27 161.73 376.88 562.39 886.57 388.92 1059.21 393.11 983.24 491.40 903.71 580.70 1055.77 584.04
00001121 DELETE   782.49 164.06 376.59 565.23 890.00 395.65 1060.88 399.35 985.13 498.07 906.65 584.49 1058.41 587.32
00001122 00000022 783.44 165.03 378.09 566.75 892.06 398.79 1062.63 402.73 987.30 500.43 908.28 585.46 1061.70 588.31
00001123 00000023 785.43 160.77 378.00 571.63 893.96 394.06 1064.78 398.41 989.96 496.01 910.08 583.80 1063.14 586.90
00001124 00000024 786.32 157.91 377.85 571.50 893.69 390.63 1065.37 394.01 990.78 492.27 910.66 581.64 1064.68 583.87
00001125 00000025 786.20 156.13 378.91 572.14 893.89 388.69 1066.28 392.07 991.45 489.63 910.04 579.89 1065.25 582.16
00001126 00000026 786.65 155.75 379.79 574.41 893.96 388.57 1066.67 392.06 990.85 490.51 909.32 580.23 1065.81 582.55
00001127 00000027 787.24 155.81 380.36 577.38 894.47 390.85 1067.49 395.00 990.91 494.05 909.96 583.24 1066.08 585.96
00001128 00000028 787.23 158.12 380.77 578.29 896.47 395.56 1067.31 400.10 992.52 499.49 911.26 585.84 1066.03 588.87
00001129 00000029 787.70 160.72 381.58 577.00 897.31 400.23 1067.56 403.87 993.28 503.71 913.63 588.88 1067.96 591.14
00001130 00000030 787.57 161.29 381.73 576.83 897.63 402.62 1067.17 405.72 993.32 506.40 914.48 590.59 1067.70 592.38
00001131 00000031 787.36 161.45 380.78 575.86 896.65 403.83 1065.30 405.43 992.56 507.61 915.76 592.45 1066.62 593.00
00001132 00000032 786.06 162.97 380.32 574.31 894.25 405.65 1062.84 406.30 990.26 510.21 915.71 594.79 1065.02 594.57
00001133 00000033 783.14 163.05 381.34 573.86 891.33 406.57 1059.53 407.02 986.41 513.68 913.97 597.45 1060.45 597.14
00001134 00000034 780.26 164.32 381.71 572.79 887.73 407.45 1056.70 407.34 982.96 515.81 912.53 599.23 1058.25 598.46
00001135 00000035 776.98 164.25 382.02 572.79 885.74 403.64 1054.94 404.08 982.19 510.58 912.18 596.82 1056.50 596.43
00001136 00000036 772.71 162.20 383.90 574.02 882.23 397.85 1055.26 399.55 980.53 502.10 908.40 592.40 1054.98 593.12
00001137 00000037 768.92 158.75 383.82 575.67 877.61 394.36 1053.68 397.75 977.61 497.26 902.75 589.99 1052.81 592.11
00001138 00000038 766.43 157.90 382.14 573.38 874.05 395.28 1050.62 399.97 974.06 496.52 896.98 588.16 1050.07 591.51
00001139 00000039 763.50 157.47 382.26 572.82 870.81 396.69 1046.01 402.47 969.29 499.05 892.66 588.62 1045.97 592.90
00001140 00000040 762.82 157.70 381.08 573.45 869.89 397.88 1045.28 404.08 968.23 502.78 891.07 591.97 1043.11 596.74
00001141 00000041 762.34 158.64 382.39 575.47 870.31 400.77 1046.02 406.27 969.18 505.78 891.79 595.30 1044.07 599.38
00001142 00000042 762.31 158.77 383.43 579.02 871.26 403.24 1046.39 408.36 970.54 509.32 893.30 599.55 1044.53 603.23
00001143 00000043 761.94 159.11 385.75 582.23 873.05 404.11 1047.90 409.24 972.64 515.23 895.94 604.79 1043.86 608.53
00001144 00000044 762.20 157.73 387.81 588.60 874.30 406.85 1050.39 410.19 976.11 523.25 898.31 610.09 1046.58 612.18
00001145 00000045 761.26 158.75 391.96 593.76 873.61 411.63 1052.36 413.69 976.33 529.01 898.11 614.06 1048.39 615.08
00001146 00000046 759.84 160.06 396.38 599.43 871.62 414.60 1054.02 415.61 975.60 532.58 894.73 617.24 1051.44 617.34
00001147 00000047 681.19 192.29 407.68 636.14 878.72 457.33 1052.10 463.30 1026.58 577.06 895.13 677.86 1028.93 685.15
00001148 00000048 680.31 190.96 406.95 637.79 877.54 453.65 1051.29 462.60 1025.35 574.85 894.08 676.68 1027.49 686.21
00001149 00000049 679.90 190.50 405.36 639.75 877.62 452.58 1049.93 463.00 1024.60 574.26 895.01 677.56 1025.00 688.47
00001150 00000050 682.24 190.96 404.35 638.74 877.43 453.29 1049.51 461.60 1024.79 572.87 899.95 679.66 1027.22 688.76
00001151 00000051 682.16 190.38 404.43 635.01 877.92 453.87 1049.76 459.41 1025.19 571.23 906.10 680.25 1030.93 686.85
00001152 DELETE   677.98 195.68 404.48 628.07 881.66 459.79 1048.12 462.39 1027.94 572.75 910.16 680.44 1030.88 684.90
00001153 00000053 678.91 192.57 404.79 625.32 883.94 457.80 1051.52 460.68 1027.61 563.14 914.53 675.40 1034.55 680.05
00001154 00000054 674.85 185.07 407.05 623.40 881.71 445.97 1047.96 440.84 1033.30 549.15 924.93 666.17 1046.76 663.16
00001155 00000055 674.20 171.59 406.19 629.13 873.11 441.24 1038.92 430.70 1025.23 534.97 926.07 661.97 1049.10 653.17
00001156 00000056 673.21 162.38 399.68 633.82 861.45 429.89 1025.53 420.57 1008.33 528.79 912.37 659.14 1034.08 651.08
00001157 00000057 672.24 160.94 400.86 641.05 860.34 425.31 1024.96 419.61 1010.85 525.39 911.27 660.20 1031.82 655.40
00001158 00000058 669.36 166.55 406.97 650.65 865.43 414.20 1032.06 418.77 1019.97 522.69 911.71 662.01 1028.36 663.94
00001159 00000059 670.08 168.19 406.19 657.91 866.24 415.19 1033.88 424.25 1022.12 527.55 902.89 661.07 1023.47 667.17
00001160 00000060 669.76 168.57 406.14 658.55 865.92 414.91 1033.50 424.14 1022.10 527.87 900.36 660.04 1021.92 666.37
00001161 00000061 669.02 169.24 406.48 657.69 865.82 414.98 1033.31 424.58 1021.95 528.94 897.96 659.49 1020.85 666.22
00001162 00000062 670.16 169.73 402.90 651.60 866.35 421.10 1036.76 427.71 1022.23 535.38 888.68 655.17 1025.12 661.92
00001163 00000063 665.46 170.65 408.95 654.33 864.74 416.61 1031.57 425.18 1018.48 532.25 892.17 657.80 1017.14 663.88
00001164 00000064 663.60 167.44 410.01 657.64 863.80 417.69 1030.07 425.72 1014.91 533.77 890.79 658.09 1015.61 663.62
00001165 00000065 664.65 168.65 408.92 655.96 864.03 419.18 1030.61 425.16 1015.04 536.49 889.87 659.65 1015.17 663.51
00001166 00000066 665.80 169.95 408.62 655.09 864.41 419.53 1030.62 425.61 1016.48 536.16 888.69 659.22 1014.59 663.25
00001167 00000067 668.69 170.36 402.63 647.93 866.00 423.93 1034.21 428.48 1019.66 539.97 887.70 654.22 1022.87 659.17
00001168 00000068 666.43 169.38 403.08 640.30 866.94 428.33 1034.38 430.96 1019.11 541.91 890.84 654.35 1022.97 657.44
00001169 00000069 665.98 173.29 406.96 632.49 867.59 432.91 1036.31 433.62 1018.63 544.05 893.72 655.01 1027.88 656.27
00001170 00000070 666.53 176.88 404.59 631.28 868.85 437.59 1035.28 436.58 1019.49 549.04 895.40 657.53 1028.86 657.45
00001171 00000071 668.50 181.47 403.85 626.91 869.88 439.60 1037.10 438.91 1019.50 551.85 895.30 658.57 1029.57 659.04
00001172 00000072 669.20 180.62 405.66 625.34 871.62 437.82 1039.89 437.71 1021.23 550.92 896.39 656.88 1031.47 657.79
00001173 00000073 669.79 180.52 407.44 622.79 871.85 436.99 1041.50 436.70 1021.79 549.98 897.15 655.97 1033.01 656.70
00001174 00000074 672.62 179.23 405.76 621.28 873.05 436.35 1042.93 437.04 1021.52 549.43 897.49 654.15 1032.85 655.68
00001175 00000075 673.73 175.01 408.02 622.09 873.90 431.40 1045.07 433.47 1021.81 544.00 896.58 650.06 1031.61 652.68
00001176 00000076 672.43 171.92 409.45 624.52 873.50 427.79 1044.74 431.62 1021.77 541.60 893.83 647.33 1029.03 651.42
00001177 00000077 669.45 167.82 410.84 630.53 871.35 424.51 1042.02 429.22 1018.94 540.61 887.58 645.19 1024.91 650.12
00001178 00000078 665.27 167.94 408.06 633.37 869.51 423.31 1036.61 427.99 1017.81 541.47 884.66 646.08 1018.54 651.08
00001179 00000079 667.16 167.87 410.56 636.51 870.47 422.62 1039.21 429.52 1018.76 542.61 883.95 648.03 1018.11 654.93
00001180 00000080 668.92 166.11 413.22 639.61 871.59 423.12 1043.01 430.22 1020.55 543.61 884.85 649.18 1021.24 656.25
00001181 00000081 667.41 166.37 412.16 640.05 871.63 424.57 1042.20 431.64 1019.33 546.34 884.57 650.25 1019.66 657.20
00001182 00000082 665.65 166.46 413.57 640.96 871.73 424.87 1042.21 432.21 1018.20 547.20 885.17 651.31 1019.50 658.37
00001183 00000083 663.74 165.88 413.67 641.52 871.60 424.76 1042.07 432.05 1018.29 547.50 884.33 651.25 1018.63 658.30
00001184 00000084 664.13 157.72 410.61 649.10 865.27 428.27 1033.09 427.60 1008.91 552.31 880.49 660.20 1010.37 660.33
00001185 00000085 661.07 158.72 412.18 648.73 863.80 429.48 1031.96 428.46 1007.34 553.46 878.68 660.73 1008.98 660.60
00001186 00000086 660.65 160.51 411.76 647.49 863.51 430.66 1032.26 429.18 1007.87 554.18 878.31 661.16 1009.65 660.68
00001187 00000087 659.48 161.56 411.91 647.44 862.93 431.78 1031.30 430.37 1006.87 555.13 876.76 661.08 1008.37 660.77
00001188 00000088 658.15 164.34 412.28 644.92 861.26 434.21 1030.39 432.98 1005.43 556.61 875.53 661.90 1008.13 661.83
00001189 00000089 657.79 163.91 411.87 643.61 860.11 433.39 1030.28 431.61 1004.24 556.32 875.22 661.15 1008.59 660.53
00001190 00000090 657.56 160.59 412.14 645.43 860.31 431.73 1029.44 429.21 1003.83 555.02 875.84 659.85 1008.23 658.52
00001191 00000091 656.11 158.19 413.02 646.95 859.12 428.95 1027.03 426.11 1002.17 553.71 873.83 657.57 1006.10 656.06
00001192 00000092 654.19 154.96 412.75 650.76 858.01 425.22 1024.13 421.85 1001.79 552.07 874.84 657.16 1005.00 655.14
00001193 00000093 654.04 154.10 412.77 650.66 858.30 424.51 1023.58 421.53 1001.09 551.50 876.53 657.00 1004.60 655.27
00001194 00000094 654.54 152.93 410.77 649.87 857.47 422.59 1023.02 419.40 1000.69 549.62 878.38 655.96 1005.40 653.94
00001195 00000095 654.05 152.10 410.55 649.95 856.50 421.19 1021.82 418.21 999.44 548.47 880.08 656.33 1005.86 654.27
00001196 00000096 772.46 148.32 396.26 604.55 887.37 412.08 1066.63 405.79 994.79 536.03 930.24 633.75 1062.15 627.82
00001197 00000097 772.24 151.87 393.16 591.56 888.46 410.10 1064.54 400.11 996.46 531.63 935.88 631.17 1061.58 622.63
00001198 DELETE   769.77 151.20 389.95 588.36 885.83 402.06 1059.44 387.32 996.85 518.31 937.95 622.60 1060.05 610.53
00001199 DELETE   766.44 143.42 388.89 590.25 877.38 391.70 1052.54 369.20 994.12 497.43 939.85 615.54 1061.63 597.02
00001200 DELETE   760.36 136.84 390.58 585.95 873.94 380.69 1046.54 350.32 993.84 468.44 944.96 598.75 1067.60 573.84
00001201 00000101 751.26 126.72 396.22 579.11 868.17 377.81 1044.03 345.96 985.74 453.87 940.19 582.15 1077.20 556.20
00001202 00000102 751.80 127.42 395.73 576.28 870.78 380.24 1047.43 346.14 991.34 457.20 945.10 582.71 1083.48 554.64
00001203 DELETE   758.72 133.25 392.77 587.63 879.43 381.55 1050.07 345.36 1004.98 459.96 955.51 596.82 1080.27 567.47
00001204 DELETE   762.21 135.43 385.96 593.41 882.53 387.87 1050.19 355.45 1007.15 470.52 956.47 606.24 1076.22 580.25
00001205 DELETE   764.08 138.73 384.06 596.86 881.54 394.33 1053.37 363.60 1007.42 483.38 952.96 616.51 1076.50 592.12
00001206 00000106 766.93 141.82 383.59 594.59 882.32 397.02 1058.40 369.46 1007.12 490.06 946.27 615.50 1077.11 593.39
00001207 00000107 769.72 141.91 381.77 592.63 884.23 394.00 1060.45 370.40 1006.48 489.79 943.78 611.87 1075.82 592.55
00001208 00000108 770.20 138.38 379.52 591.43 885.59 388.31 1059.19 367.84 1006.15 484.62 941.95 605.76 1072.60 588.94
00001209 DELETE   768.21 133.24 379.26 589.92 885.15 381.22 1056.41 363.10 1005.33 475.50 936.89 594.71 1070.03 580.47
00001210 00000110 761.28 127.77 385.32 572.78 880.97 378.12 1056.46 360.19 994.95 465.73 932.01 574.14 1072.94 559.16
00001211 00000111 760.16 124.16 386.01 572.55 875.22 371.13 1052.05 351.83 987.24 456.85 929.42 568.97 1071.15 552.67
00001212 00000112 757.73 123.74 388.22 570.87 873.02 367.49 1051.17 350.21 984.10 450.48 925.50 564.40 1069.09 549.73
00001213 00000113 757.45 123.04 389.11 572.04 871.85 367.32 1050.65 350.46 982.39 451.54 924.09 566.06 1067.06 551.87
00001214 00000114 757.21 123.99 387.59 576.60 871.93 370.94 1048.99 353.44 982.49 457.38 924.49 571.48 1065.29 557.14
00001215 00000115 757.52 127.73 385.41 582.98 872.95 377.92 1049.12 360.55 985.06 466.52 924.03 576.48 1067.24 562.49
00001216 00000116 756.35 132.97 385.49 588.93 873.87 387.92 1049.52 369.03 990.21 478.77 928.45 586.90 1070.63 571.64
00001217 00000117 756.57 135.90 384.89 587.65 873.39 390.95 1052.39 373.45 989.73 483.76 926.54 589.01 1071.36 575.07
00001218 00000118 755.75 138.34 384.87 585.19 873.12 390.12 1052.63 375.38 987.94 484.40 923.60 588.64 1068.28 577.18
00001219 00000119 755.23 137.98 385.79 586.54 872.08 390.24 1051.86 377.64 985.12 484.88 919.89 588.20 1065.32 578.51
00001220 00000120 754.19 138.42 386.51 585.18 870.51 388.37 1051.43 378.39 982.34 483.82 914.22 586.21 1061.26 578.85
00001221 00000121 755.36 133.24 386.44 588.37 870.20 384.81 1050.29 377.54 979.49 481.88 909.52 582.15 1057.68 577.10
00001222 00000122 756.60 129.65 385.13 590.14 869.19 381.76 1048.85 375.98 976.55 479.67 906.14 578.80 1055.06 575.02
00001223 00000123 756.48 126.90 385.56 590.98 867.47 378.79 1046.86 373.62 973.23 476.60 903.96 576.56 1052.77 573.24
00001224 00000124 756.82 125.01 386.21 593.09 866.87 377.62 1046.36 372.43 971.57 475.35 903.13 576.40 1052.27 572.95
00001225 00000125 757.63 125.43 388.74 592.98 867.57 377.80 1049.58 373.04 972.47 478.66 902.65 577.63 1053.38 574.58
00001226 00000126 760.35 127.49 389.59 594.21 870.34 380.51 1053.77 375.70 976.53 483.51 905.02 581.46 1056.63 578.38
00001227 00000127 761.71 131.94 391.56 592.27 874.77 384.02 1057.11 379.19 981.75 487.96 909.60 585.89 1056.90 583.14
00001228 00000128 769.78 136.93 386.56 592.57 882.80 383.67 1061.04 380.46 991.15 489.02 918.19 597.72 1055.10 594.40
00001229 00000129 773.80 137.26 383.83 592.38 885.13 383.23 1063.07 380.03 993.58 490.75 918.86 596.82 1057.02 593.41
00001230 00000130 773.34 139.78 385.35 588.85 885.77 383.40 1063.51 380.65 994.35 490.73 920.21 598.07 1056.09 594.96
00001231 00000131 774.38 138.59 384.52 587.28 886.67 380.89 1063.49 378.19 994.41 488.28 922.22 596.35 1054.56 593.30
00001232 00000132 778.27 135.72 383.23 586.54 887.56 376.41 1063.01 374.49 992.81 482.53 921.80 591.37 1051.50 589.17
00001233 00000133 780.89 136.36 382.43 583.14 890.29 372.77 1064.31 372.22 993.28 476.99 921.66 587.41 1050.59 586.42
00001234 00000134 780.90 134.77 381.25 581.75 890.59 369.95 1065.20 371.18 991.92 472.16 919.04 582.91 1048.90 583.43
00001235 00000135 779.37 134.69 380.17 579.41 888.70 367.97 1063.53 370.18 989.17 470.38 915.90 580.81 1045.72 582.30
00001236 00000136 779.02 135.35 378.79 579.59 887.94 369.30 1061.85 371.43 988.13 473.10 914.71 581.01 1044.93 582.43
00001237 00000137 778.87 139.63 376.64 576.31 887.41 371.68 1061.21 374.56 986.99 476.04 914.45 583.18 1044.47 585.17
00001238 00000138 776.98 145.55 376.09 577.01 886.21 374.94 1060.40 378.24 986.06 480.04 912.12 588.40 1044.14 590.79
00001239 00000139 775.04 146.61 375.39 579.35 884.95 377.91 1059.61 382.63 985.17 482.80 908.52 589.77 1045.66 593.33
00001240 00000140 774.62 147.94 374.31 575.30 883.97 377.40 1058.97 382.79 984.41 482.24 906.25 587.10 1045.38 591.22
CROP_BBOX: 468 0 1505 1011
