Video ID: 	LQ-Im7v-56Y
H: 	1080
W: 	1920
FPS: 	25.0

FRAME INDEX X0 Y0 W H [Landmarks (5 Points)]

00003075 00000000 859.28 149.02 403.06 532.60 1012.80 317.63 1196.22 351.71 1133.71 391.15 1018.49 518.80 1164.10 545.39
00003076 00000001 861.56 138.58 402.93 543.49 1018.19 315.71 1200.98 350.60 1140.50 395.83 1025.66 520.94 1166.37 548.32
00003077 DELETE   860.21 138.91 407.52 547.44 1019.73 315.28 1205.14 355.71 1146.91 393.95 1027.84 521.55 1171.91 553.21
00003078 00000003 866.86 138.69 407.81 548.33 1023.64 315.26 1208.62 357.49 1146.32 394.14 1027.94 522.68 1169.13 556.10
00003079 00000004 876.62 144.51 402.19 554.65 1028.87 317.88 1214.56 357.86 1148.34 391.87 1029.20 529.03 1174.77 560.97
00003080 DELETE   883.50 141.53 399.63 557.72 1034.03 319.31 1218.99 357.50 1153.43 394.57 1035.49 532.82 1179.46 563.44
00003081 00000006 884.59 141.98 401.85 556.08 1038.58 318.81 1224.72 359.88 1159.41 397.66 1038.15 530.61 1185.56 563.44
00003082 00000007 881.13 123.03 414.64 573.89 1042.08 318.52 1244.42 361.77 1161.18 410.07 1037.06 527.23 1194.75 562.80
00003083 00000008 886.76 139.26 409.76 553.96 1047.35 315.39 1240.96 363.89 1164.62 407.24 1042.25 521.78 1192.34 559.74
00003084 00000009 887.85 142.06 409.69 543.66 1048.35 317.42 1241.33 363.45 1165.70 407.17 1045.90 521.28 1192.74 557.21
00003085 00000010 884.54 142.11 413.51 547.58 1047.78 315.62 1239.30 365.67 1163.83 407.32 1042.72 520.70 1189.52 559.59
00003086 00000011 881.05 144.81 416.27 554.48 1043.07 317.93 1238.22 368.99 1159.50 408.94 1033.99 522.97 1190.03 562.89
00003087 00000012 883.83 138.66 409.93 565.25 1040.32 321.89 1230.89 366.19 1161.30 405.79 1034.39 533.55 1188.28 569.59
00003088 00000013 878.83 140.97 414.30 581.68 1039.27 321.68 1228.78 367.66 1161.02 402.81 1031.32 540.72 1184.89 577.84
00003089 00000014 879.05 158.02 412.57 564.33 1038.11 317.34 1226.98 370.64 1152.68 413.59 1028.17 532.85 1176.06 575.19
00003090 00000015 876.51 151.14 410.42 582.86 1037.58 320.82 1223.32 369.54 1163.17 401.42 1027.90 544.85 1179.86 585.02
00003091 00000016 873.11 148.42 409.26 577.13 1036.19 320.67 1221.45 368.98 1161.20 404.24 1027.69 540.91 1178.08 580.32
00003092 00000017 874.49 143.16 404.28 563.82 1029.03 321.75 1220.09 365.87 1155.41 404.07 1026.11 536.46 1178.00 571.89
00003093 00000018 874.21 140.54 404.24 557.02 1029.14 321.85 1221.22 365.57 1156.51 405.32 1027.45 532.68 1179.74 567.91
00003094 00000019 875.73 140.32 404.77 558.21 1030.91 321.99 1222.11 367.48 1157.50 405.91 1026.85 531.81 1179.89 568.82
00003095 00000020 877.24 137.76 406.09 561.25 1032.64 323.80 1225.19 369.13 1159.44 405.40 1028.52 531.65 1184.21 568.71
00003096 00000021 884.95 139.21 401.00 554.49 1036.44 324.17 1229.94 368.61 1159.86 406.14 1031.50 531.15 1187.53 567.83
00003097 00000022 879.84 142.98 414.45 551.53 1044.02 323.31 1236.69 375.68 1162.60 412.94 1031.00 524.27 1190.43 565.62
00003098 00000023 879.36 142.01 419.00 553.21 1045.57 325.86 1239.67 374.62 1164.31 415.85 1033.34 526.07 1193.50 564.33
00003099 00000024 881.29 138.89 419.04 558.49 1045.41 327.49 1242.81 376.89 1164.82 417.53 1032.78 529.87 1194.39 568.84
00003100 00000025 881.40 137.28 419.93 564.45 1044.90 330.23 1243.44 379.44 1165.17 419.71 1032.87 533.07 1196.41 571.91
00003101 00000026 882.69 147.23 418.43 552.91 1043.90 331.98 1243.73 379.35 1163.14 425.10 1030.26 537.86 1195.72 574.73
00003102 00000027 883.42 136.23 411.80 568.59 1038.35 334.31 1237.10 376.76 1166.16 424.38 1031.22 545.00 1192.86 580.27
00003103 00000028 879.73 142.60 416.03 565.45 1035.13 342.95 1231.25 384.51 1163.24 425.35 1030.99 546.87 1189.75 580.83
00003104 00000029 878.66 139.36 414.21 573.54 1033.89 344.40 1229.76 382.55 1160.03 429.28 1028.55 549.55 1188.79 580.84
00003105 00000030 879.26 141.97 409.83 570.90 1031.92 343.81 1228.06 381.39 1157.34 426.90 1027.03 549.26 1188.10 580.08
00003106 00000031 877.39 134.65 410.52 579.79 1029.72 341.68 1227.02 380.02 1156.26 426.34 1025.45 549.55 1187.26 580.62
00003107 00000032 874.94 134.49 411.71 579.19 1027.66 339.07 1226.30 377.19 1154.42 425.74 1023.62 549.33 1185.39 580.07
00003108 00000033 874.39 144.70 412.13 568.58 1027.78 339.29 1224.70 375.12 1153.62 427.52 1025.53 551.25 1183.82 580.01
00003109 00000034 873.17 137.07 413.28 577.74 1028.14 338.69 1224.25 375.35 1153.11 427.06 1024.37 549.87 1182.76 579.48
00003110 00000035 873.34 137.38 413.99 580.34 1029.09 338.80 1223.80 374.60 1153.68 427.33 1025.78 550.45 1183.06 579.33
00003111 00000036 870.68 142.62 416.98 581.27 1030.32 337.90 1222.77 373.28 1156.14 428.16 1026.47 551.52 1183.33 580.00
00003112 00000037 872.95 142.22 413.95 588.63 1031.21 339.83 1224.84 377.67 1156.13 429.15 1026.27 556.51 1182.12 587.14
00003113 00000038 861.77 139.78 423.87 593.08 1031.04 340.92 1223.40 382.73 1158.56 428.53 1025.43 553.74 1182.65 587.16
00003114 00000039 867.68 139.44 419.59 595.87 1031.52 340.37 1224.49 381.65 1155.89 425.99 1022.68 553.34 1182.75 586.63
00003115 00000040 869.16 143.00 418.06 583.21 1029.49 339.23 1223.78 379.85 1153.32 426.79 1022.50 553.22 1179.35 586.07
00003116 00000041 867.08 145.30 419.00 579.04 1029.70 338.32 1223.84 375.51 1156.49 430.57 1027.55 554.75 1182.27 584.56
00003117 00000042 869.29 147.88 417.82 574.78 1029.56 338.63 1224.33 374.74 1154.89 430.29 1026.67 555.22 1182.03 584.19
00003118 00000043 867.08 147.65 419.35 570.17 1027.24 339.48 1224.47 376.79 1155.44 427.50 1027.72 554.18 1183.41 583.88
00003119 00000044 866.54 148.20 421.06 570.88 1027.62 338.74 1224.01 376.53 1154.41 426.20 1027.26 552.22 1183.60 582.30
00003120 00000045 863.92 137.23 424.13 579.78 1024.89 337.33 1224.66 376.41 1154.45 424.47 1024.68 551.81 1183.18 582.89
00003121 00000046 867.83 140.31 420.26 578.42 1025.47 336.95 1221.98 374.29 1153.18 425.32 1026.28 553.08 1180.80 582.58
00003122 00000047 869.76 140.17 417.12 576.31 1026.74 337.40 1223.43 372.68 1153.33 428.40 1027.69 553.87 1182.04 581.85
00003123 00000048 871.60 138.35 415.40 578.12 1026.85 337.55 1223.23 372.01 1152.57 427.82 1029.11 554.90 1182.13 582.07
00003124 00000049 872.29 138.51 414.20 573.03 1025.61 338.42 1223.12 371.92 1152.36 428.17 1027.37 552.66 1183.09 579.26
00003125 00000050 872.28 135.85 414.59 579.10 1027.77 340.35 1224.83 374.08 1157.01 427.39 1031.43 554.07 1187.35 580.58
00003126 00000051 872.68 135.07 414.51 580.50 1028.98 342.27 1224.42 375.45 1156.28 426.43 1034.66 554.30 1187.94 580.12
00003127 00000052 871.01 133.60 415.61 584.12 1027.86 345.91 1224.07 379.52 1155.75 426.54 1033.68 555.82 1188.88 582.09
00003128 00000053 867.45 137.27 419.15 587.14 1028.33 346.92 1224.85 382.58 1157.29 428.61 1032.69 558.54 1188.05 586.38
00003129 00000054 873.57 139.44 414.53 600.14 1031.53 346.36 1225.01 381.21 1157.83 431.26 1033.46 565.86 1184.33 593.66
00003130 00000055 872.55 138.09 417.44 612.14 1033.96 342.98 1226.49 382.92 1160.12 428.79 1031.61 567.40 1182.90 599.49
00003131 00000056 869.73 134.24 419.57 619.42 1038.17 343.48 1227.34 383.84 1165.23 429.37 1034.76 566.77 1186.83 599.12
00003132 00000057 872.12 133.25 418.06 616.53 1037.38 342.31 1230.07 381.59 1167.30 427.36 1034.95 566.13 1189.12 597.79
00003133 00000058 873.34 138.71 418.63 611.35 1038.19 339.67 1231.41 382.16 1167.49 425.88 1031.79 563.32 1189.29 597.84
00003134 00000059 874.10 137.00 418.02 614.02 1037.81 338.79 1232.47 381.63 1166.34 425.68 1029.62 563.21 1188.74 598.15
00003135 00000060 870.07 138.15 419.24 604.83 1036.23 340.57 1229.23 382.39 1166.08 425.44 1029.54 559.30 1187.91 593.19
00003136 00000061 875.95 140.03 413.47 593.28 1031.61 342.46 1228.03 381.65 1158.65 426.00 1028.01 560.56 1185.06 592.39
00003137 00000062 868.00 137.55 419.26 594.70 1030.40 341.65 1226.62 383.14 1158.69 425.71 1024.80 558.25 1182.93 591.93
00003138 00000063 867.55 138.73 418.76 593.15 1030.60 341.53 1224.82 382.95 1157.84 425.52 1024.52 554.73 1183.26 588.23
00003139 00000064 866.40 141.36 418.91 583.69 1030.02 340.45 1224.01 379.66 1159.44 427.02 1025.66 552.31 1184.80 583.95
00003140 00000065 868.68 139.86 417.24 578.74 1028.33 339.97 1223.59 375.24 1157.10 427.88 1026.67 551.07 1186.46 579.41
00003141 00000066 870.75 136.96 414.50 577.84 1026.73 340.18 1223.64 375.63 1158.35 425.57 1026.26 548.31 1188.93 576.80
00003142 00000067 871.23 135.79 413.23 580.10 1027.64 338.82 1224.23 373.53 1158.23 426.21 1026.01 548.29 1188.99 576.32
00003143 00000068 872.84 135.93 413.23 579.99 1027.63 337.35 1224.28 371.02 1158.56 426.53 1026.84 548.85 1189.09 576.08
00003144 00000069 874.93 130.63 411.06 589.74 1028.81 338.36 1224.78 372.22 1158.12 425.09 1026.67 550.08 1189.02 577.53
00003145 00000070 873.91 139.41 412.79 584.47 1029.54 338.18 1225.69 372.48 1161.34 424.35 1028.25 551.10 1191.12 578.86
00003146 00000071 877.46 139.85 410.28 584.64 1030.95 338.02 1226.35 372.79 1159.12 423.60 1028.07 551.72 1189.53 579.96
00003147 00000072 876.61 135.33 411.57 589.49 1031.50 338.42 1226.82 373.92 1159.60 425.14 1027.26 551.56 1188.70 580.54
00003148 00000073 875.24 138.85 412.12 584.90 1030.82 339.03 1226.19 374.09 1160.59 424.35 1028.50 551.41 1190.04 579.89
00003149 00000074 875.91 140.15 410.74 579.89 1030.20 338.78 1226.98 374.76 1158.87 425.99 1028.47 552.96 1187.47 582.02
00003150 00000075 871.35 140.36 413.15 579.20 1028.83 343.82 1222.69 383.34 1157.37 424.20 1027.19 552.93 1182.02 584.66
00003151 00000076 874.31 145.16 411.68 574.19 1026.85 348.81 1221.54 385.06 1154.82 423.63 1028.33 555.98 1183.04 585.31
00003152 00000077 871.21 142.54 411.34 578.75 1027.18 350.82 1225.51 386.80 1155.83 428.95 1029.44 560.83 1185.03 589.21
00003153 00000078 872.29 152.40 409.79 570.30 1029.26 350.05 1225.76 385.57 1156.05 429.92 1032.50 562.46 1185.37 590.45
00003154 00000079 871.94 158.60 412.33 562.34 1029.31 350.48 1227.47 383.74 1157.89 433.70 1034.93 563.60 1189.38 589.64
00003155 00000080 874.90 154.52 407.44 562.53 1030.66 347.78 1228.79 380.54 1159.24 434.02 1038.17 563.37 1189.44 588.92
00003156 00000081 873.65 141.15 407.54 573.79 1026.86 347.88 1229.24 379.74 1159.00 430.93 1036.11 562.76 1192.42 587.45
00003157 00000082 871.81 143.06 406.28 570.31 1023.77 345.54 1226.44 378.53 1155.01 428.98 1031.82 562.36 1187.24 587.96
00003158 00000083 870.27 139.54 406.00 577.21 1020.57 345.06 1223.32 377.71 1150.66 428.30 1027.73 563.80 1182.88 589.46
00003159 00000084 869.54 137.68 404.34 577.33 1020.78 345.91 1221.57 378.74 1149.25 429.76 1028.80 563.02 1180.25 589.13
00003160 00000085 866.37 146.39 407.66 574.54 1020.12 344.98 1218.41 375.26 1145.57 430.68 1028.83 565.21 1178.02 588.77
00003161 00000086 866.40 146.52 406.98 573.08 1018.99 346.20 1217.51 375.63 1145.69 431.70 1030.14 567.53 1177.35 590.53
00003162 00000087 866.84 146.91 406.15 571.85 1019.04 345.80 1218.50 374.99 1147.02 429.41 1031.95 567.95 1179.23 590.67
00003163 00000088 869.88 146.27 403.63 572.14 1019.24 344.30 1217.92 371.67 1146.15 429.05 1032.80 567.52 1179.01 588.74
00003164 00000089 868.28 152.07 405.90 566.52 1018.53 342.16 1217.05 368.86 1145.67 429.37 1033.38 568.09 1177.73 588.55
00003165 00000090 868.26 148.60 404.41 570.94 1018.37 341.75 1215.62 369.36 1145.51 427.49 1031.05 565.33 1177.11 586.78
00003166 00000091 860.90 147.48 413.01 580.77 1019.39 342.14 1215.10 373.28 1150.38 429.82 1028.78 563.17 1180.07 587.44
00003167 00000092 860.38 146.08 414.28 588.25 1018.07 342.52 1213.48 372.27 1147.73 429.89 1025.63 564.15 1179.17 587.33
00003168 00000093 855.60 147.76 419.55 587.70 1018.59 342.24 1213.20 372.78 1149.48 434.04 1027.52 565.25 1179.06 588.89
00003169 00000094 855.49 150.78 419.01 585.02 1018.16 343.53 1211.12 371.26 1146.24 437.29 1028.86 567.42 1177.33 588.78
00003170 00000095 853.80 151.57 419.73 586.16 1015.74 346.51 1210.84 374.31 1145.35 438.86 1026.50 568.73 1178.21 590.21
00003171 00000096 854.31 152.08 419.87 588.76 1015.81 346.37 1211.93 376.00 1146.63 437.22 1024.27 568.14 1178.62 591.07
00003172 00000097 855.52 155.58 417.49 573.95 1013.57 344.97 1210.15 368.31 1144.11 438.84 1028.09 571.18 1175.90 589.11
00003173 00000098 854.84 156.73 418.21 575.94 1013.42 344.07 1210.41 366.48 1147.74 436.91 1029.30 569.27 1180.00 586.41
00003174 00000099 857.42 154.80 415.35 569.93 1013.01 347.67 1213.45 365.43 1146.64 439.36 1031.47 571.61 1184.12 584.78
00003175 00000100 857.10 151.39 415.12 575.05 1014.88 347.54 1213.33 364.33 1148.43 440.06 1033.34 569.51 1186.11 581.84
00003176 00000101 862.45 153.67 410.14 577.17 1016.75 347.95 1211.92 364.27 1149.24 440.91 1035.37 571.72 1185.51 583.88
00003177 00000102 862.78 147.79 409.96 590.13 1018.34 348.12 1213.72 368.53 1153.04 439.09 1035.13 572.88 1187.11 588.66
00003178 00000103 853.73 145.36 417.99 597.61 1023.99 349.79 1217.84 377.89 1159.28 446.78 1038.75 575.38 1187.79 597.53
00003179 00000104 853.49 150.71 418.66 600.54 1028.52 352.89 1221.06 382.14 1164.66 453.50 1040.11 579.50 1191.16 603.02
00003180 00000105 866.16 148.93 408.77 603.87 1032.65 358.43 1229.13 385.72 1164.80 459.15 1041.70 585.75 1194.48 608.15
00003181 00000106 865.42 154.66 410.38 603.80 1031.83 365.00 1227.94 392.93 1165.74 464.02 1041.30 591.95 1194.74 615.31
00003182 00000107 870.48 156.18 408.07 603.26 1033.81 370.41 1229.58 398.83 1167.58 471.46 1043.45 596.40 1195.62 620.48
00003183 00000108 870.59 153.14 408.26 606.22 1037.00 374.88 1232.48 402.74 1170.67 476.62 1045.23 598.48 1198.53 622.02
00003184 00000109 869.96 153.04 411.69 613.75 1040.55 378.44 1234.98 406.52 1173.14 483.50 1046.36 601.32 1201.76 624.71
00003185 00000110 870.90 160.70 411.56 609.24 1042.56 379.20 1235.89 408.53 1173.75 488.56 1046.58 603.44 1202.51 627.93
00003186 00000111 868.46 165.81 415.55 611.53 1043.72 378.67 1236.73 408.88 1174.69 492.45 1045.99 607.41 1201.42 632.38
00003187 00000112 866.89 160.70 417.66 622.56 1043.05 378.61 1235.27 409.32 1174.13 492.58 1043.16 609.86 1198.69 635.54
00003188 00000113 865.52 167.39 418.88 620.46 1040.00 380.41 1230.90 410.09 1175.06 496.97 1036.26 611.87 1190.99 636.56
00003189 00000114 866.32 171.96 416.73 620.16 1037.23 379.59 1230.47 407.16 1174.37 494.25 1036.47 613.25 1193.19 635.79
00003190 00000115 864.34 166.50 417.72 625.67 1036.06 378.25 1226.78 406.36 1170.20 491.46 1034.81 611.38 1188.47 633.92
00003191 00000116 865.16 180.65 416.25 609.08 1029.04 376.13 1222.60 401.63 1165.65 487.07 1032.91 613.23 1186.73 633.50
00003192 00000117 855.02 186.75 423.92 602.73 1023.09 375.66 1217.80 396.71 1163.85 482.46 1033.61 609.52 1189.86 625.56
00003193 00000118 854.31 177.31 421.03 604.03 1020.56 374.36 1211.22 393.89 1157.25 477.19 1031.54 602.55 1185.05 617.38
00003194 00000119 858.84 164.80 408.33 594.03 1013.69 365.76 1213.76 382.74 1150.21 466.51 1030.99 590.70 1191.65 604.48
CROP_BBOX: 362 0 1457 1018
