Video ID: 	trRc1_CATfo
H: 	2160
W: 	3840
FPS: 	23.976023976023978

FRAME INDEX X0 Y0 W H [Landmarks (5 Points)]

00018310 00000000 1827.59 443.35 624.78 917.28 1892.79 821.51 2127.79 831.93 1921.92 991.33 1931.41 1137.67 2119.32 1145.65
00018311 00000001 1832.41 453.93 627.32 919.70 1898.35 820.07 2130.35 832.21 1921.62 990.66 1934.84 1135.03 2127.47 1144.40
00018312 00000002 1838.46 454.72 633.45 911.19 1903.19 815.79 2134.36 833.02 1923.00 985.89 1939.56 1123.83 2134.26 1137.05
00018313 00000003 1836.91 451.53 632.09 908.29 1914.05 818.55 2143.26 835.72 1932.62 995.62 1940.85 1110.68 2154.43 1122.75
00018314 00000004 1843.99 454.65 627.69 890.10 1922.79 811.70 2150.18 832.51 1942.75 981.67 1944.99 1093.85 2155.91 1109.27
00018315 00000005 1854.67 443.35 626.15 904.05 1933.27 800.48 2160.48 824.13 1951.99 967.14 1955.44 1091.54 2160.90 1109.26
00018316 00000006 1873.65 434.85 615.50 921.71 1947.73 795.50 2170.84 812.47 1956.63 952.29 1971.39 1098.91 2167.47 1111.57
00018317 00000007 1900.57 424.95 603.60 931.63 1967.21 786.98 2189.59 801.22 1967.13 943.30 1982.03 1105.37 2170.80 1115.86
00018318 00000008 1924.08 428.50 596.07 948.89 1988.69 772.48 2206.36 798.12 1977.04 941.20 1996.11 1108.75 2184.69 1126.56
00018319 00000009 1933.48 424.41 612.27 949.96 2008.61 767.05 2225.60 798.53 1993.02 933.48 2020.50 1106.05 2202.88 1129.30
00018320 00000010 1957.19 415.76 613.23 963.28 2028.07 758.85 2241.37 791.65 2012.74 933.42 2046.22 1107.78 2223.47 1131.31
00018321 00000011 1984.92 412.51 611.98 927.01 2048.38 757.71 2256.96 797.86 2032.11 929.32 2054.14 1106.33 2206.48 1133.39
00018322 00000012 2004.85 417.00 616.18 911.21 2062.47 759.60 2274.82 795.91 2047.00 929.58 2055.22 1105.98 2208.09 1131.33
00018323 DELETE   2007.74 388.78 614.93 935.01 2082.10 757.23 2291.85 793.73 2059.56 924.94 2071.19 1106.93 2220.82 1133.56
00018324 00000014 2024.87 393.86 607.44 937.85 2099.23 749.77 2305.83 787.79 2077.96 920.18 2080.41 1103.22 2230.21 1131.45
00018325 00000015 2045.67 375.05 604.73 983.17 2116.20 750.13 2324.33 784.10 2093.21 917.72 2098.39 1115.75 2246.38 1141.34
00018326 00000016 2064.46 389.88 604.17 965.93 2138.21 748.00 2345.26 792.29 2107.45 918.21 2114.97 1108.74 2259.29 1140.66
00018327 00000017 2084.39 381.10 608.40 963.80 2159.01 748.27 2351.52 800.24 2121.53 917.25 2149.14 1105.82 2284.89 1142.53
00018328 00000018 2102.64 386.85 606.69 957.91 2174.74 751.79 2367.86 802.56 2140.35 926.09 2166.06 1106.17 2302.96 1141.64
00018329 00000019 2118.77 397.18 623.12 940.52 2189.54 754.87 2382.57 818.44 2148.78 934.38 2182.22 1103.73 2319.84 1146.73
00018330 00000020 2132.86 415.23 631.59 925.92 2203.74 760.13 2402.33 827.70 2164.73 938.28 2188.97 1105.08 2331.09 1151.62
00018331 00000021 2148.11 427.00 631.28 919.51 2217.86 767.91 2420.98 839.34 2180.43 946.41 2199.83 1112.93 2345.09 1162.68
00018332 00000022 2159.83 409.75 616.63 933.48 2234.03 776.47 2432.35 851.20 2202.30 952.86 2223.41 1111.10 2359.04 1163.06
00018333 00000023 2178.12 416.30 605.72 931.05 2242.71 784.46 2438.30 865.67 2212.83 970.71 2240.46 1116.74 2374.92 1172.23
00018334 00000024 2189.61 458.81 607.33 915.38 2259.28 797.53 2446.60 871.57 2221.59 985.73 2255.62 1133.35 2395.81 1184.39
00018335 00000025 2194.33 468.28 611.48 922.10 2262.87 810.50 2456.55 888.25 2230.07 1005.00 2273.89 1142.53 2425.81 1194.80
00018336 00000026 2200.09 493.50 612.04 895.43 2268.00 831.35 2457.95 912.36 2231.14 1029.01 2291.29 1160.47 2433.21 1214.61
00018337 00000027 2206.13 508.48 620.00 908.35 2286.13 848.14 2465.74 929.23 2233.61 1045.52 2296.76 1176.35 2444.03 1231.15
00018338 00000028 2217.34 518.84 623.86 901.50 2299.11 854.50 2472.06 931.73 2241.40 1049.84 2317.86 1188.04 2452.21 1239.50
00018339 00000029 2225.96 520.42 627.66 896.84 2304.28 853.21 2482.22 932.28 2254.36 1048.84 2324.20 1185.48 2460.13 1238.22
00018340 00000030 2231.46 516.20 624.77 897.18 2311.28 848.36 2492.75 929.23 2263.44 1046.17 2324.68 1183.36 2461.64 1237.94
00018341 00000031 2236.13 519.99 624.87 890.67 2317.09 849.43 2498.39 928.05 2267.43 1044.30 2327.20 1183.00 2464.29 1236.14
00018342 00000032 2238.18 523.88 621.34 880.50 2318.39 848.46 2501.39 927.93 2269.71 1045.68 2326.70 1181.47 2465.27 1235.01
00018343 00000033 2237.43 518.88 622.89 880.72 2317.23 846.08 2501.76 929.46 2270.34 1047.09 2323.79 1177.28 2464.39 1233.42
00018344 00000034 2237.07 512.62 623.43 878.14 2314.07 844.92 2501.40 929.96 2272.51 1047.28 2324.51 1172.46 2465.00 1229.86
00018345 00000035 2233.91 508.20 623.72 879.68 2312.32 844.41 2501.25 932.14 2270.38 1045.02 2320.57 1171.45 2459.41 1231.15
00018346 00000036 2231.13 506.63 623.60 880.41 2310.82 844.55 2499.62 933.51 2266.15 1043.97 2317.79 1171.31 2457.35 1231.94
00018347 00000037 2228.73 516.24 623.47 867.54 2308.89 844.08 2498.98 934.61 2265.06 1044.04 2316.63 1168.06 2457.77 1230.05
00018348 00000038 2226.01 513.97 627.63 867.19 2304.85 842.59 2493.97 934.86 2260.51 1045.82 2320.12 1167.02 2459.93 1229.89
00018349 00000039 2223.08 515.34 627.77 866.23 2300.17 842.94 2492.22 934.12 2259.51 1046.03 2317.16 1167.78 2459.00 1230.05
00018350 00000040 2218.68 517.86 627.70 867.01 2298.63 843.93 2488.58 934.81 2256.37 1041.73 2307.94 1167.41 2445.08 1229.75
00018351 00000041 2214.98 512.83 628.27 877.99 2298.05 844.28 2486.39 931.91 2254.20 1040.52 2298.73 1169.24 2434.98 1229.66
00018352 00000042 2210.04 503.51 626.75 885.84 2294.09 843.55 2479.78 927.62 2249.81 1038.91 2287.78 1169.22 2418.97 1227.35
00018353 00000043 2208.27 509.95 628.35 874.75 2281.26 848.95 2480.62 926.12 2251.97 1042.08 2284.42 1170.88 2423.19 1223.34
00018354 00000044 2204.24 508.76 623.43 872.78 2275.99 850.22 2475.40 925.25 2249.94 1040.31 2278.99 1168.83 2417.51 1220.24
00018355 00000045 2198.29 507.34 619.95 874.86 2270.43 851.37 2472.08 924.91 2246.51 1039.47 2272.05 1168.50 2414.26 1219.26
00018356 00000046 2193.47 504.58 617.62 876.21 2265.05 849.03 2465.84 920.91 2243.12 1037.96 2269.03 1167.18 2412.13 1216.97
00018357 00000047 2191.02 499.43 613.81 881.08 2260.26 844.51 2458.57 915.31 2239.51 1036.78 2267.42 1169.07 2407.64 1218.12
00018358 00000048 2185.31 493.52 613.34 889.55 2254.31 841.42 2450.98 912.17 2234.20 1035.93 2262.08 1168.57 2403.08 1217.86
00018359 00000049 2181.31 485.57 612.99 897.91 2248.88 839.34 2443.05 906.62 2225.78 1031.11 2257.48 1169.48 2397.19 1216.77
00018360 00000050 2177.60 488.50 610.86 897.13 2242.98 835.35 2435.00 899.79 2216.43 1023.16 2249.17 1167.96 2388.59 1213.66
00018361 00000051 2173.69 486.47 603.73 901.89 2237.08 831.20 2422.98 890.63 2206.45 1015.54 2243.39 1167.67 2379.04 1209.37
00018362 00000052 2157.73 476.90 609.58 910.35 2221.94 822.47 2417.29 882.86 2194.99 1006.63 2229.30 1156.84 2376.27 1198.81
00018363 00000053 2154.27 468.90 613.28 912.39 2204.76 818.40 2407.40 873.78 2186.22 1002.64 2219.73 1158.65 2365.89 1195.71
00018364 00000054 2145.63 461.09 618.13 912.44 2197.24 813.85 2401.45 870.25 2179.21 1001.19 2213.08 1151.91 2361.32 1189.50
00018365 00000055 2135.68 449.71 616.55 919.59 2190.98 805.76 2392.60 863.26 2175.11 993.29 2211.92 1140.23 2357.80 1178.72
00018366 00000056 2120.81 440.66 614.70 920.82 2181.57 803.17 2389.80 854.47 2170.20 978.78 2193.31 1132.32 2345.37 1167.83
00018367 00000057 2111.24 435.80 607.22 909.42 2177.27 798.98 2385.94 847.48 2168.60 965.14 2183.48 1120.14 2340.26 1153.99
00018368 00000058 2100.07 427.85 611.22 909.40 2171.87 794.47 2388.65 840.64 2171.22 955.55 2169.30 1110.94 2333.50 1144.39
00018369 00000059 2091.23 427.79 619.47 908.57 2166.08 795.27 2390.38 835.45 2169.05 950.13 2156.24 1110.04 2325.14 1140.26
00018370 00000060 2088.43 435.68 612.30 904.93 2162.00 790.28 2386.20 825.71 2168.04 947.53 2152.43 1111.20 2321.50 1138.22
00018371 00000061 2083.06 443.24 604.72 892.21 2154.53 785.86 2385.38 823.77 2163.80 948.45 2143.57 1107.02 2318.92 1135.85
00018372 00000062 2074.15 447.47 607.07 880.32 2139.42 786.14 2383.38 818.59 2160.98 950.74 2130.61 1108.64 2310.02 1135.51
00018373 00000063 2070.45 448.04 602.79 883.05 2135.00 788.71 2381.37 821.22 2159.51 955.01 2126.65 1113.49 2308.37 1140.40
00018374 00000064 2064.32 453.65 599.16 878.75 2133.02 792.66 2379.05 829.50 2158.43 966.10 2121.99 1119.52 2306.10 1149.29
00018375 00000065 2057.06 451.78 601.90 883.15 2131.04 798.78 2376.44 836.87 2160.23 973.40 2120.27 1123.18 2304.08 1154.27
00018376 00000066 2050.62 455.57 606.63 892.88 2126.48 806.80 2373.15 842.02 2161.56 980.40 2121.68 1132.25 2304.72 1161.44
00018377 00000067 2047.32 471.51 603.81 879.43 2122.07 814.22 2368.79 847.36 2160.81 987.27 2124.26 1132.63 2307.45 1160.42
00018378 00000068 2046.60 479.52 599.87 880.19 2121.04 818.05 2366.44 849.95 2158.04 989.00 2126.45 1135.80 2312.50 1162.38
00018379 00000069 2036.56 472.74 597.37 893.50 2117.51 817.47 2366.90 848.31 2156.01 995.51 2124.63 1138.78 2311.85 1162.85
00018380 00000070 2029.70 471.96 598.53 895.66 2111.31 820.05 2364.84 849.55 2151.78 1001.98 2120.28 1148.38 2307.38 1171.67
00018381 00000071 2026.77 477.33 594.62 883.84 2109.22 816.59 2359.84 847.31 2151.68 998.75 2115.93 1147.32 2304.30 1171.19
00018382 00000072 2021.57 486.36 595.69 882.86 2106.76 817.10 2354.78 845.46 2148.02 997.64 2112.33 1150.71 2302.19 1172.92
00018383 00000073 2017.50 489.68 597.62 884.28 2104.44 817.14 2351.00 845.17 2143.96 999.31 2109.57 1153.71 2299.97 1175.41
00018384 00000074 2015.55 487.11 596.11 890.91 2101.02 817.13 2342.83 845.00 2137.77 1000.18 2106.73 1153.80 2296.31 1175.31
00018385 00000075 2012.49 492.87 597.26 888.13 2095.29 820.50 2332.06 843.08 2133.30 1002.66 2107.83 1159.64 2290.37 1177.03
00018386 00000076 2007.88 489.09 600.97 892.78 2087.20 826.95 2327.69 848.05 2126.93 1008.84 2105.34 1160.57 2293.37 1177.07
00018387 00000077 2001.09 485.29 603.36 878.69 2074.46 829.58 2317.04 852.16 2115.57 1011.62 2093.24 1149.55 2284.55 1167.80
00018388 00000078 1997.85 485.43 600.54 876.07 2071.15 829.10 2306.52 850.53 2105.00 1011.17 2092.03 1149.90 2277.50 1166.67
00018389 00000079 2000.77 492.96 598.22 875.25 2067.03 830.32 2294.58 853.30 2099.54 1014.93 2095.80 1156.69 2270.04 1173.58
00018390 00000080 2000.51 486.10 599.68 886.35 2064.62 829.59 2290.83 852.71 2096.77 1012.89 2095.92 1157.35 2266.84 1174.19
00018391 00000081 1997.22 473.04 597.68 889.65 2064.45 828.33 2296.29 848.62 2103.06 1007.41 2090.51 1154.35 2265.47 1169.99
00018392 00000082 1999.47 466.02 597.26 897.11 2067.72 826.53 2306.13 839.20 2110.40 1000.42 2091.12 1158.26 2271.73 1169.01
00018393 DELETE   2003.63 466.71 589.95 896.76 2079.09 812.80 2317.28 830.09 2115.66 982.70 2099.51 1145.11 2284.64 1158.78
00018394 00000084 2010.33 450.17 589.91 915.36 2085.70 793.32 2323.46 810.82 2116.50 960.35 2104.93 1130.16 2294.79 1143.62
00018395 DELETE   2010.00 435.89 588.71 918.16 2088.43 783.53 2323.75 790.45 2110.45 932.80 2107.11 1112.77 2293.01 1120.08
00018396 00000086 2008.38 430.25 589.27 898.87 2087.64 772.73 2321.45 785.78 2110.47 921.18 2097.00 1092.19 2282.93 1104.72
00018397 00000087 2004.54 428.38 590.38 881.78 2082.48 765.53 2317.86 787.67 2107.47 917.19 2081.62 1078.25 2268.38 1098.18
00018398 00000088 2000.37 430.99 591.13 879.14 2070.82 769.00 2305.42 786.12 2102.63 925.39 2073.57 1086.08 2261.63 1100.92
00018399 00000089 1990.47 439.14 587.39 873.16 2062.69 771.64 2292.74 792.53 2091.83 930.04 2058.59 1088.35 2244.41 1105.45
00018400 00000090 1980.76 436.54 595.85 885.22 2050.68 780.07 2277.11 796.80 2072.34 934.63 2053.11 1096.43 2231.85 1109.92
00018401 00000091 1965.48 444.51 600.60 894.86 2036.66 784.88 2264.14 801.46 2059.26 944.32 2052.51 1108.82 2229.29 1121.40
00018402 00000092 1953.07 436.11 604.57 910.63 2026.10 792.24 2251.01 807.86 2046.66 951.22 2048.46 1115.96 2223.73 1126.89
00018403 00000093 1945.73 447.38 613.66 914.73 2010.93 797.00 2245.18 809.00 2037.26 961.13 2037.38 1124.57 2215.84 1133.93
00018404 00000094 1939.86 453.75 610.02 910.25 2004.02 800.13 2232.17 814.75 2022.74 970.08 2030.19 1127.07 2206.24 1137.45
00018405 00000095 1938.45 461.51 601.30 900.03 2007.47 800.83 2228.47 819.44 2021.61 971.59 2028.98 1126.23 2207.65 1138.92
00018406 00000096 1938.48 464.24 601.77 898.95 2007.31 800.90 2229.04 819.99 2022.13 973.16 2030.01 1127.07 2209.89 1140.01
00018407 00000097 1937.65 464.29 602.33 898.38 2006.48 801.56 2229.52 821.36 2021.76 973.29 2028.98 1126.98 2210.68 1140.50
00018408 00000098 1938.38 462.56 601.65 904.23 2006.36 804.39 2228.72 822.94 2020.66 974.50 2029.66 1130.39 2211.77 1142.94
00018409 00000099 1938.74 464.63 603.11 904.23 2006.90 804.86 2228.16 824.07 2019.40 975.14 2029.98 1131.71 2211.35 1144.58
00018410 00000100 1938.50 463.30 604.05 906.72 2007.28 805.97 2227.76 825.60 2019.49 976.25 2031.21 1132.46 2211.54 1145.62
00018411 00000101 1938.44 464.23 602.41 904.81 2006.31 807.36 2227.78 828.73 2018.68 978.97 2031.33 1133.21 2212.12 1147.56
00018412 00000102 1938.64 467.20 602.99 902.71 2006.80 808.98 2226.94 829.80 2017.88 979.49 2033.61 1134.18 2212.88 1147.95
00018413 00000103 1938.08 468.68 603.37 902.96 2007.08 808.07 2226.86 829.48 2017.88 980.04 2034.49 1133.39 2214.93 1147.41
00018414 00000104 1937.75 467.78 603.70 903.80 2007.03 807.99 2226.50 829.58 2017.77 980.14 2035.93 1132.70 2216.45 1146.73
00018415 00000105 1936.11 464.70 605.83 913.36 2006.44 808.60 2225.04 830.11 2016.71 981.97 2038.38 1135.89 2218.83 1149.65
00018416 00000106 1936.22 464.74 605.84 916.72 2006.59 808.78 2223.43 830.91 2015.42 984.37 2039.69 1136.95 2219.34 1150.96
00018417 00000107 1934.89 471.10 606.40 912.47 2006.10 808.48 2223.35 832.04 2015.25 985.39 2040.08 1136.79 2220.12 1151.82
00018418 00000108 1933.59 471.23 607.16 915.33 2004.80 808.87 2221.82 833.26 2013.02 988.64 2039.53 1137.16 2221.59 1152.42
00018419 00000109 1932.34 467.83 608.45 921.14 2004.55 810.33 2220.15 834.04 2011.21 988.85 2039.58 1138.50 2220.54 1153.29
00018420 00000110 1930.07 468.37 609.32 922.41 2002.91 810.73 2219.47 833.89 2010.07 989.54 2039.04 1138.75 2222.21 1153.13
00018421 00000111 1928.14 466.08 612.86 925.71 2000.84 812.17 2217.82 836.18 2007.77 991.46 2037.51 1139.34 2222.65 1154.22
00018422 00000112 1923.88 458.37 614.20 931.92 1995.62 813.92 2211.51 839.99 1998.81 995.46 2030.97 1141.78 2217.94 1158.14
00018423 00000113 1919.62 463.03 612.87 937.99 1989.53 818.95 2204.95 844.13 1992.08 1002.12 2026.83 1150.79 2212.23 1166.43
00018424 00000114 1913.35 487.85 617.00 921.44 1984.45 822.11 2201.86 849.25 1988.79 1009.62 2024.43 1154.69 2212.06 1171.90
00018425 00000115 1913.70 489.27 610.77 917.92 1974.69 828.99 2197.15 849.56 1989.67 1014.69 2018.88 1158.20 2199.27 1171.75
00018426 00000116 1911.71 492.25 611.57 914.15 1973.53 828.67 2195.31 850.64 1987.77 1014.49 2016.33 1156.06 2197.09 1170.67
00018427 00000117 1913.75 488.64 607.49 917.52 1973.82 826.45 2195.05 849.15 1986.68 1011.71 2017.57 1156.22 2196.08 1171.03
00018428 00000118 1913.84 474.28 610.39 927.29 1974.05 825.31 2193.13 845.44 1984.47 1006.75 2014.63 1154.25 2192.79 1167.28
00018429 00000119 1913.57 464.33 615.07 938.23 1982.90 820.22 2191.76 845.59 1978.85 1001.66 2017.01 1151.84 2198.65 1167.87
00018430 00000120 1916.06 448.58 619.19 934.60 1983.89 818.46 2192.43 841.23 1979.91 995.79 2018.21 1147.11 2190.70 1161.67
00018431 00000121 1924.33 435.88 615.57 933.90 1987.91 810.99 2197.18 837.41 1983.17 988.10 2014.89 1137.46 2184.93 1155.01
00018432 00000122 1934.80 437.40 609.09 925.76 1996.77 806.17 2203.18 828.69 1988.56 978.35 2016.91 1131.84 2182.71 1146.89
00018433 00000123 1940.61 426.58 609.96 929.82 2002.30 798.12 2210.17 821.66 1993.90 971.91 2018.95 1124.82 2182.40 1140.82
00018434 00000124 1945.48 416.22 616.40 929.72 2001.84 788.05 2217.39 807.31 1997.44 964.72 2017.69 1117.69 2175.56 1131.49
00018435 00000125 1950.46 410.02 607.42 932.28 2015.88 787.85 2222.05 803.82 2007.14 952.69 2032.32 1118.05 2187.56 1130.10
00018436 00000126 1959.64 398.42 605.69 946.28 2023.63 786.26 2228.41 796.23 2014.20 945.07 2038.16 1120.11 2192.98 1128.02
00018437 00000127 1967.18 394.37 605.21 947.17 2031.14 778.96 2232.18 792.74 2016.99 944.44 2047.70 1115.21 2201.15 1125.18
00018438 00000128 1978.01 386.94 600.30 950.84 2040.18 776.30 2235.63 788.52 2025.52 942.30 2057.05 1112.43 2205.14 1121.40
00018439 00000129 1992.87 400.03 599.31 934.69 2044.03 768.97 2240.77 789.86 2029.31 944.09 2063.41 1109.44 2209.56 1121.66
00018440 00000130 2001.32 409.00 602.33 922.82 2050.26 773.01 2247.03 792.19 2033.25 945.90 2066.72 1109.59 2213.22 1120.65
00018441 00000131 2004.65 407.38 608.44 917.90 2056.49 776.73 2253.51 797.64 2037.01 948.27 2064.25 1104.46 2212.57 1116.96
00018442 00000132 2004.30 408.59 616.82 921.61 2058.89 781.91 2257.86 807.20 2040.98 953.92 2064.80 1104.59 2215.06 1120.66
00018443 00000133 2006.91 415.33 606.55 920.13 2067.55 790.16 2268.29 818.15 2047.04 959.16 2077.88 1118.33 2225.87 1138.76
00018444 00000134 2026.64 431.49 598.18 921.08 2082.89 789.68 2277.11 825.80 2067.34 970.47 2093.57 1130.78 2240.34 1156.50
00018445 00000135 2036.24 444.07 598.27 922.58 2101.60 802.13 2298.33 840.77 2094.47 978.63 2114.46 1141.00 2264.68 1168.54
00018446 00000136 2046.18 449.58 607.28 933.83 2113.61 810.85 2323.46 852.18 2117.15 995.76 2130.47 1148.55 2293.02 1178.02
00018447 00000137 2062.05 482.68 603.40 896.35 2127.25 817.51 2344.34 864.81 2127.67 1004.44 2139.28 1151.88 2304.85 1184.88
00018448 00000138 2070.41 486.94 602.62 902.99 2136.87 828.04 2360.65 875.77 2144.12 1020.18 2148.06 1167.04 2319.16 1200.09
00018449 00000139 2074.50 492.34 607.03 913.50 2140.00 837.00 2369.78 886.17 2152.99 1033.37 2151.41 1177.17 2325.84 1211.67
00018450 00000140 2076.34 495.49 615.66 918.04 2147.16 842.66 2376.71 903.57 2155.03 1042.66 2159.86 1181.84 2332.94 1225.27
00018451 00000141 2074.91 494.00 624.90 920.32 2150.89 850.32 2383.83 921.03 2160.13 1056.19 2160.97 1185.27 2340.85 1235.37
00018452 00000142 2081.52 508.16 620.82 906.83 2155.90 863.31 2388.34 928.99 2171.11 1069.40 2168.86 1195.79 2342.19 1242.15
00018453 00000143 2083.21 512.50 624.10 907.63 2159.25 872.87 2390.75 938.86 2175.38 1084.25 2175.13 1203.33 2348.01 1249.26
00018454 00000144 2084.93 523.24 621.24 903.68 2158.98 883.01 2393.25 950.44 2177.65 1097.24 2176.69 1211.56 2351.93 1258.57
00018455 00000145 2082.66 524.20 627.36 935.06 2155.67 895.81 2393.24 961.17 2178.19 1108.72 2176.55 1230.81 2354.99 1276.57
00018456 00000146 2081.32 530.38 633.50 973.10 2152.81 906.31 2392.43 973.06 2176.49 1128.82 2188.64 1258.95 2371.36 1304.84
00018457 00000147 2077.99 528.80 640.03 989.29 2151.87 911.49 2390.64 979.70 2175.07 1133.51 2188.19 1267.13 2369.40 1313.94
00018458 00000148 2088.33 531.11 633.65 984.58 2156.74 912.85 2388.29 978.59 2173.57 1128.09 2189.69 1267.15 2364.42 1312.41
00018459 00000149 2092.02 527.82 630.16 969.06 2159.11 908.56 2390.52 972.43 2175.60 1117.80 2186.84 1260.29 2357.84 1303.96
00018460 00000150 2088.33 529.19 626.87 935.51 2161.46 894.88 2397.30 959.88 2177.60 1104.56 2177.42 1235.71 2352.47 1280.53
00018461 00000151 2090.27 529.84 623.54 914.62 2165.05 888.53 2398.89 948.54 2178.70 1090.92 2177.50 1222.79 2352.44 1264.64
00018462 00000152 2089.36 513.20 623.90 915.25 2164.18 880.04 2395.99 939.11 2177.08 1081.35 2173.69 1213.01 2346.59 1254.31
00018463 00000153 2089.12 503.80 630.80 922.33 2162.32 876.87 2394.29 934.95 2169.15 1074.53 2165.40 1207.69 2339.05 1249.16
00018464 00000154 2085.79 507.72 622.13 904.00 2161.96 862.82 2395.27 922.42 2172.87 1059.87 2166.66 1195.66 2341.79 1238.07
00018465 00000155 2089.04 490.92 624.98 912.90 2162.68 848.60 2396.59 909.48 2170.17 1040.36 2165.22 1183.67 2340.81 1227.16
00018466 00000156 2094.71 483.03 618.15 915.63 2162.54 835.19 2395.01 883.92 2172.73 1018.90 2166.50 1170.14 2339.63 1205.46
00018467 00000157 2095.69 459.85 615.75 936.95 2161.85 823.58 2389.06 861.63 2166.66 1000.25 2167.91 1160.92 2335.91 1188.85
00018468 00000158 2092.67 433.27 611.84 950.77 2164.36 813.54 2377.23 846.66 2161.82 979.46 2173.43 1149.98 2338.85 1173.45
