Video ID: 	x_H-LzNLMvk
H: 	1080
W: 	1920
FPS: 	23.976023976023978

FRAME INDEX X0 Y0 W H [Landmarks (5 Points)]

00001201 00000000 831.79 101.25 379.07 563.76 963.06 316.64 1144.80 330.39 1085.46 390.65 981.00 508.31 1142.32 519.78
00001202 00000001 830.31 105.23 378.35 543.46 968.62 323.31 1152.64 336.13 1094.05 395.85 985.68 509.12 1144.67 521.09
00001203 00000002 836.88 106.23 377.06 534.53 975.13 322.03 1156.01 336.05 1097.32 393.02 993.52 505.87 1146.33 518.39
00001204 00000003 841.31 104.21 376.98 529.96 982.22 318.25 1155.15 331.25 1099.00 385.65 1002.44 497.95 1145.69 509.40
00001205 00000004 845.62 101.55 377.92 526.46 988.86 309.43 1162.45 330.38 1106.36 375.65 1006.47 489.10 1150.55 507.02
00001206 00000005 847.84 97.92 380.37 522.22 995.82 301.89 1168.01 326.42 1117.69 365.87 1016.54 479.59 1159.31 499.93
00001207 00000006 852.46 99.63 381.54 519.63 1006.05 300.29 1175.04 327.79 1133.93 358.64 1029.46 476.73 1171.41 499.36
00001208 00000007 857.06 102.08 381.18 521.32 1013.44 302.97 1182.56 330.22 1143.97 359.25 1037.28 480.76 1178.77 502.87
00001209 DELETE   863.57 103.49 380.77 528.11 1020.69 310.68 1192.07 336.36 1152.40 369.72 1039.24 490.25 1183.59 511.43
00001210 DELETE   863.35 106.27 383.00 543.15 1029.77 320.08 1204.39 350.23 1165.05 386.69 1039.15 503.44 1187.99 529.09
00001211 DELETE   866.12 116.03 381.87 546.37 1036.53 329.34 1211.56 357.73 1173.81 401.53 1041.03 513.75 1190.74 538.82
00001212 00000011 873.21 120.10 379.91 552.00 1043.02 333.40 1221.92 359.60 1184.64 407.93 1048.14 521.26 1202.23 544.45
00001213 00000012 882.40 118.84 378.88 560.75 1052.10 334.58 1228.18 360.71 1193.94 411.20 1055.30 524.46 1208.87 547.96
00001214 00000013 889.01 118.48 380.42 568.53 1059.41 334.91 1233.92 362.41 1199.85 412.31 1061.44 527.96 1213.45 552.26
00001215 00000014 892.12 119.51 380.43 569.72 1063.41 331.02 1236.67 360.15 1203.50 409.64 1066.81 528.85 1216.56 554.03
00001216 00000015 890.07 116.89 383.09 571.91 1063.56 323.32 1231.85 357.02 1195.03 416.28 1066.05 523.61 1205.04 552.44
00001217 00000016 891.06 118.68 383.07 567.25 1065.51 325.13 1232.46 356.54 1196.16 418.51 1067.89 523.27 1206.14 550.48
00001218 00000017 887.71 119.59 386.58 560.44 1066.70 328.22 1235.49 358.98 1197.08 422.25 1069.11 522.28 1208.74 549.00
00001219 00000018 884.89 120.86 388.49 550.57 1068.46 331.64 1240.02 361.78 1201.44 425.12 1070.01 520.87 1212.53 547.07
00001220 00000019 880.96 124.95 394.00 541.45 1072.43 337.61 1243.09 364.32 1206.50 428.67 1074.66 520.80 1215.67 544.08
00001221 00000020 883.54 128.49 393.37 535.14 1074.92 341.64 1245.59 366.31 1209.07 431.56 1078.72 521.89 1218.09 543.36
00001222 00000021 885.74 127.41 392.04 533.16 1075.86 341.49 1247.33 365.50 1211.00 430.11 1078.59 520.16 1219.52 541.21
00001223 00000022 887.88 127.06 389.57 529.34 1076.49 340.53 1248.33 364.63 1212.20 427.71 1080.25 517.91 1221.22 538.97
00001224 00000023 887.82 126.00 389.71 530.51 1076.68 340.20 1248.78 365.07 1212.42 427.31 1080.59 518.69 1221.42 540.39
00001225 00000024 884.75 128.59 390.30 532.97 1077.46 340.81 1245.60 364.98 1212.69 431.64 1079.43 520.55 1217.37 541.69
00001226 00000025 886.95 129.84 387.67 536.89 1078.25 342.14 1244.53 367.56 1211.61 435.65 1079.62 524.44 1214.25 546.71
00001227 00000026 885.40 127.77 390.53 546.71 1076.37 340.32 1243.50 368.35 1210.45 434.13 1079.52 528.18 1213.74 552.63
00001228 00000027 884.62 122.21 386.57 550.55 1072.10 341.60 1241.22 370.21 1206.64 427.17 1078.96 526.71 1215.83 551.27
00001229 00000028 885.56 116.01 380.71 550.09 1064.82 343.40 1241.72 366.86 1209.32 417.05 1072.88 527.65 1223.97 548.20
00001230 00000029 882.16 116.34 375.26 544.07 1053.57 337.61 1232.41 365.76 1197.02 404.84 1065.57 521.19 1217.99 545.57
00001231 00000030 874.27 114.70 374.12 538.58 1043.23 336.63 1219.55 355.54 1183.32 406.80 1058.02 519.38 1206.11 535.93
00001232 00000031 867.99 111.19 373.79 533.61 1030.83 331.71 1203.07 348.81 1165.67 402.87 1049.14 512.93 1192.42 527.86
00001233 00000032 866.53 108.79 374.73 533.24 1021.87 323.08 1192.60 339.89 1150.28 396.84 1040.02 506.56 1181.24 521.09
00001234 00000033 863.15 106.47 374.69 533.00 1016.78 315.47 1187.46 334.51 1142.58 392.50 1035.18 503.60 1172.56 520.28
00001235 00000034 859.94 106.12 376.76 533.59 1013.44 311.29 1184.57 332.45 1137.99 387.39 1032.59 501.87 1169.23 520.06
00001236 00000035 856.13 106.05 378.48 536.40 1010.24 310.19 1179.26 330.65 1133.26 385.44 1030.21 500.03 1165.60 517.34
00001237 00000036 854.64 107.68 378.76 536.24 1008.00 310.91 1178.00 330.75 1130.63 387.81 1027.88 501.67 1163.42 518.48
00001238 00000037 855.93 108.12 377.36 538.68 1005.61 314.25 1178.21 334.24 1127.79 393.05 1025.04 507.43 1161.77 524.66
00001239 00000038 856.74 110.96 375.90 538.61 1003.82 319.00 1179.12 340.05 1125.16 397.27 1019.92 509.34 1161.29 527.62
00001240 00000039 857.78 109.66 377.66 545.53 1000.98 322.79 1176.51 340.78 1119.28 401.05 1018.97 514.97 1159.49 530.59
00001241 00000040 856.18 108.08 379.78 550.38 998.72 320.45 1174.92 338.73 1116.85 399.86 1016.78 515.35 1157.99 531.14
00001242 00000041 856.96 105.13 379.08 557.04 997.79 316.49 1174.07 335.09 1115.39 394.74 1013.69 513.64 1158.13 529.71
00001243 00000042 855.57 101.48 380.31 568.26 998.44 310.55 1169.26 331.75 1113.59 387.86 1009.68 512.10 1149.95 530.54
00001244 00000043 852.62 100.46 381.71 569.62 995.06 309.20 1171.97 334.77 1114.44 383.95 1003.77 508.30 1153.94 529.98
00001245 00000044 853.55 104.74 377.20 548.52 992.49 315.18 1177.69 341.76 1112.44 394.35 1001.85 506.86 1158.04 529.43
00001246 00000045 852.96 108.89 377.59 542.80 990.85 320.61 1174.96 347.91 1106.81 400.97 1000.61 509.46 1152.12 532.56
00001247 00000046 854.55 109.75 378.98 548.67 989.30 324.18 1170.14 348.25 1101.53 404.13 1002.04 514.81 1148.86 535.12
00001248 00000047 852.05 109.61 380.83 550.72 988.63 324.55 1166.52 347.82 1100.57 404.07 1003.13 517.74 1144.33 537.28
00001249 00000048 851.90 109.43 379.16 547.18 987.43 323.27 1167.10 347.39 1099.37 402.34 1001.83 514.91 1144.78 535.16
00001250 00000049 851.70 109.53 378.48 544.04 984.66 322.10 1163.97 344.06 1094.86 400.60 999.04 510.98 1143.76 529.23
00001251 00000050 848.16 108.02 378.16 544.38 981.93 319.74 1162.42 342.64 1093.43 398.02 995.28 507.87 1143.03 527.02
00001252 00000051 845.93 108.89 375.28 540.58 980.18 320.39 1160.40 343.80 1091.62 398.37 990.58 504.74 1141.16 524.46
00001253 00000052 844.48 111.11 374.71 534.51 979.66 321.62 1160.35 345.43 1091.90 399.83 989.59 505.55 1139.56 525.83
00001254 00000053 843.61 108.51 375.28 546.76 978.83 322.60 1159.83 345.23 1094.35 400.50 990.41 508.87 1143.20 527.97
00001255 00000054 840.17 110.64 377.67 556.18 979.03 324.39 1154.13 347.62 1093.57 401.60 993.06 514.70 1136.81 534.31
00001256 00000055 837.06 115.26 379.21 555.08 977.94 328.95 1154.09 353.32 1093.26 405.78 991.65 520.87 1133.02 541.39
00001257 00000056 835.44 117.10 373.77 554.44 975.53 331.04 1151.30 354.65 1092.34 408.08 989.70 522.25 1131.03 542.04
00001258 00000057 833.60 118.06 374.91 549.83 974.17 331.57 1148.69 354.97 1089.88 406.85 988.83 520.49 1128.82 540.47
00001259 00000058 832.04 118.87 367.33 538.64 967.08 336.82 1150.80 359.07 1092.52 404.80 980.88 519.40 1138.25 539.07
00001260 00000059 828.63 116.96 368.25 535.49 967.92 332.96 1147.99 356.68 1092.15 402.34 977.14 511.85 1133.49 533.20
00001261 00000060 826.15 114.20 369.53 537.53 970.93 327.44 1147.63 351.81 1097.53 396.94 979.19 507.57 1133.22 529.53
00001262 00000061 823.78 113.71 371.22 535.26 970.45 321.70 1145.52 346.58 1097.43 390.81 979.75 503.97 1130.06 526.50
00001263 00000062 819.01 112.31 373.56 529.80 966.89 318.03 1146.08 342.56 1096.38 387.83 978.32 501.93 1130.45 523.77
00001264 00000063 815.72 116.51 373.20 523.38 966.46 316.94 1144.63 343.50 1095.38 387.54 977.35 500.63 1127.47 524.13
00001265 00000064 813.28 116.81 372.53 524.44 965.30 318.60 1142.87 345.40 1095.25 388.01 976.69 501.41 1126.29 525.03
00001266 00000065 808.48 120.60 372.55 523.37 962.50 322.47 1141.92 353.22 1091.77 391.84 970.35 502.60 1121.79 529.51
00001267 00000066 806.47 122.57 368.81 528.00 960.14 327.93 1136.13 357.76 1084.98 399.52 966.48 507.77 1114.39 533.79
00001268 00000067 802.76 124.55 367.55 537.87 956.32 334.13 1132.23 367.46 1082.21 403.61 964.32 517.50 1110.51 546.11
00001269 00000068 804.03 126.03 362.46 548.58 951.98 341.40 1122.70 370.00 1074.93 407.69 963.70 528.01 1104.24 552.90
00001270 00000069 798.56 126.46 364.92 538.49 947.37 343.40 1123.19 370.04 1071.99 411.38 958.68 524.54 1105.24 547.55
00001271 00000070 796.06 127.56 365.25 535.28 945.36 344.56 1123.09 370.66 1071.68 413.45 955.51 523.19 1104.28 545.61
00001272 00000071 791.45 126.02 369.68 541.33 941.75 344.84 1121.53 370.72 1068.35 416.77 952.09 526.51 1101.47 548.80
00001273 00000072 787.43 125.65 373.24 544.59 939.01 344.53 1119.58 369.87 1064.61 420.37 948.93 529.26 1096.78 551.18
00001274 00000073 785.58 126.16 374.97 551.38 938.70 341.25 1115.99 368.50 1062.14 419.02 944.13 527.51 1091.40 550.99
00001275 00000074 784.45 130.15 376.83 563.41 936.85 328.73 1107.66 361.92 1063.53 410.86 938.96 524.80 1084.67 553.51
00001276 00000075 782.46 123.53 377.94 570.30 931.14 324.51 1105.30 356.57 1061.91 406.29 934.84 522.90 1084.66 550.72
00001277 00000076 780.94 112.65 378.36 559.95 925.09 322.98 1107.42 351.47 1048.65 401.60 929.21 512.58 1088.70 536.56
00001278 00000077 778.02 111.29 376.07 548.36 922.58 324.51 1104.70 348.71 1045.33 401.81 932.62 509.69 1087.17 530.13
00001279 00000078 775.05 111.32 376.46 542.04 918.00 328.18 1096.98 348.60 1037.01 401.63 934.28 508.87 1082.42 525.75
00001280 00000079 771.75 112.56 378.02 545.90 914.56 333.01 1092.53 352.09 1032.73 406.44 932.96 515.62 1077.46 531.44
00001281 00000080 772.06 114.73 376.63 552.58 912.09 337.26 1085.27 355.37 1025.99 410.57 931.45 524.07 1068.14 539.46
00001282 00000081 770.47 114.17 377.68 559.98 908.76 338.61 1081.28 355.79 1022.25 412.45 927.41 528.92 1062.18 543.72
00001283 00000082 770.17 115.47 373.68 555.00 906.79 338.21 1075.01 352.34 1018.56 410.91 926.45 525.85 1058.33 538.21
00001284 00000083 771.16 110.99 374.01 552.59 905.27 333.98 1071.48 342.54 1017.61 404.48 931.04 520.75 1062.10 528.25
00001285 00000084 774.36 108.75 374.69 549.96 905.67 323.68 1071.51 333.20 1017.38 394.23 930.44 515.56 1060.74 524.13
00001286 00000085 777.55 107.41 375.77 545.66 905.24 318.95 1071.38 328.35 1012.29 384.78 928.78 507.00 1061.19 515.34
00001287 00000086 783.39 107.28 374.24 535.55 908.60 315.37 1078.60 327.51 1014.61 381.94 929.87 501.62 1066.60 512.08
00001288 00000087 790.89 106.86 371.00 526.53 912.76 314.56 1087.78 329.31 1021.57 379.96 931.63 496.87 1076.85 509.60
00001289 00000088 796.22 106.56 375.27 530.32 915.70 314.72 1094.08 331.19 1024.16 381.46 934.24 500.19 1082.78 514.12
00001290 00000089 801.07 108.05 375.78 534.86 916.05 319.36 1099.15 334.29 1025.52 382.83 935.46 507.53 1088.32 520.18
00001291 00000090 805.04 109.30 375.99 540.91 919.97 321.85 1102.86 337.12 1027.61 390.94 936.94 513.28 1089.35 527.05
00001292 00000091 809.57 111.25 374.31 548.26 925.77 327.07 1105.36 340.01 1031.30 399.36 941.40 521.78 1088.70 534.17
00001293 00000092 814.70 116.62 373.69 545.33 931.39 330.53 1110.95 342.87 1036.19 403.59 945.42 525.04 1092.88 537.20
00001294 00000093 818.84 119.73 373.69 542.28 935.23 333.63 1117.70 345.62 1040.90 406.84 949.41 524.55 1103.08 536.08
00001295 00000094 821.50 119.94 372.66 540.28 941.12 334.61 1123.99 347.43 1048.29 408.09 955.15 523.71 1108.17 535.87
00001296 00000095 826.34 121.18 373.85 540.36 948.39 337.66 1130.04 350.14 1056.99 411.67 962.52 525.84 1113.28 537.41
00001297 00000096 829.30 123.53 373.60 543.40 951.99 342.68 1134.52 355.38 1062.44 414.94 967.58 531.77 1119.60 543.41
00001298 00000097 832.27 125.35 379.70 545.54 958.27 339.71 1137.70 355.81 1064.75 421.66 975.85 530.28 1120.81 544.06
00001299 00000098 833.80 127.75 382.24 549.09 962.56 341.96 1143.58 359.10 1071.57 424.71 978.92 533.76 1126.54 548.21
00001300 00000099 833.85 126.62 385.11 555.74 964.77 342.69 1150.03 362.00 1077.05 426.99 979.56 534.41 1133.38 550.41
00001301 00000100 834.66 124.16 388.37 563.89 967.84 340.02 1156.25 363.62 1083.98 428.58 976.47 532.90 1137.46 552.25
00001302 00000101 835.49 121.78 391.21 562.78 972.35 337.74 1162.27 363.12 1090.33 426.01 977.92 529.47 1142.29 550.25
00001303 00000102 837.90 118.40 391.27 561.88 979.50 336.69 1169.40 364.76 1095.75 422.86 982.27 524.93 1146.56 548.00
00001304 00000103 839.57 117.91 389.38 563.41 984.23 337.69 1172.34 367.99 1100.47 421.69 984.67 524.15 1148.60 549.09
00001305 00000104 842.66 121.11 389.12 565.49 988.26 340.78 1173.89 368.27 1105.69 426.86 989.11 528.31 1151.28 551.16
00001306 00000105 844.80 123.61 387.55 560.03 993.28 346.12 1175.52 370.54 1110.21 432.58 998.40 531.99 1153.13 552.50
00001307 00000106 849.45 128.95 386.18 554.62 995.44 348.26 1169.45 367.45 1116.24 434.56 1013.42 537.97 1158.20 553.39
00001308 00000107 849.89 123.36 381.88 552.29 999.31 353.20 1180.42 370.96 1120.65 433.87 1014.89 536.31 1164.22 551.11
00001309 00000108 849.63 122.09 381.35 548.74 1003.75 350.20 1182.82 368.93 1125.77 428.09 1017.64 529.70 1166.07 545.23
00001310 00000109 851.58 120.22 380.02 546.93 1007.48 344.26 1184.26 366.10 1129.53 419.61 1019.08 523.34 1165.74 541.50
00001311 00000110 853.15 117.41 380.02 553.00 1011.10 338.30 1184.98 360.63 1134.60 411.10 1024.17 524.00 1166.24 542.96
00001312 00000111 857.65 116.43 375.84 557.57 1015.16 331.00 1179.28 355.70 1138.71 404.87 1034.08 526.31 1162.70 547.75
00001313 00000112 861.37 117.33 370.83 564.22 1018.32 328.56 1180.82 353.59 1146.42 402.53 1036.97 527.75 1167.73 549.29
00001314 00000113 862.14 122.85 372.77 562.99 1015.58 322.20 1181.30 351.05 1152.07 400.19 1039.79 527.44 1169.91 551.67
00001315 00000114 862.95 126.54 374.56 561.50 1018.17 327.00 1186.69 358.45 1155.41 404.17 1039.13 530.81 1172.27 557.09
00001316 00000115 861.29 128.39 378.02 559.86 1017.94 332.87 1186.23 359.73 1155.11 412.83 1038.10 535.37 1172.41 557.92
00001317 00000116 861.71 129.43 379.18 559.54 1019.41 339.90 1190.64 363.09 1157.06 424.67 1038.48 540.94 1176.71 560.59
00001318 00000117 862.85 134.06 378.65 551.95 1022.56 342.11 1190.52 363.92 1156.17 429.99 1042.59 542.69 1175.36 561.14
00001319 00000118 863.56 134.64 379.83 553.01 1026.64 343.98 1192.15 366.11 1158.34 432.79 1047.01 545.04 1175.20 563.59
00001320 00000119 866.06 134.65 378.56 558.19 1028.47 343.11 1195.05 367.10 1160.68 429.36 1044.22 543.40 1177.19 563.53
00001321 00000120 865.76 135.51 378.26 562.68 1029.39 340.22 1194.43 366.79 1162.00 423.64 1042.79 542.49 1175.22 565.03
00001322 00000121 862.93 130.36 380.29 555.61 1022.56 336.77 1193.73 366.51 1161.28 416.59 1037.81 533.36 1176.99 558.33
00001323 00000122 862.57 120.00 376.28 542.78 1026.69 335.25 1202.22 364.17 1160.62 409.55 1035.55 519.36 1181.71 544.24
00001324 00000123 858.71 115.37 378.61 533.56 1026.70 324.33 1196.05 353.26 1156.33 401.46 1037.43 508.18 1175.33 532.93
00001325 00000124 856.11 108.89 382.29 533.62 1023.45 316.40 1188.73 342.31 1150.91 388.87 1042.22 501.49 1174.76 523.01
00001326 00000125 852.39 107.18 386.71 525.02 1015.06 306.05 1183.55 331.23 1147.51 367.21 1044.34 490.65 1180.34 510.40
00001327 00000126 853.20 106.16 384.39 512.79 1015.28 297.41 1179.91 325.15 1150.46 351.49 1048.42 475.85 1183.40 497.27
00001328 00000127 855.82 101.15 381.49 513.56 1017.05 289.21 1185.89 323.24 1157.23 341.88 1051.37 470.03 1189.16 496.37
00001329 00000128 861.29 95.71 381.27 515.85 1018.86 285.23 1194.43 320.84 1162.88 336.02 1051.58 467.62 1196.34 494.98
00001330 00000129 865.68 96.65 379.62 516.83 1023.30 287.15 1198.52 321.25 1167.30 340.27 1053.82 470.67 1198.50 496.88
00001331 00000130 871.30 98.31 378.26 526.76 1031.35 295.88 1204.05 325.07 1173.94 350.43 1057.56 480.24 1201.59 503.78
00001332 00000131 876.77 102.85 377.55 551.11 1036.97 306.36 1202.17 333.41 1172.10 366.13 1061.24 499.89 1198.78 523.26
00001333 00000132 878.39 104.99 378.53 559.19 1040.21 311.60 1209.83 340.97 1179.26 378.05 1061.22 507.78 1202.56 532.99
00001334 00000133 879.72 104.68 378.90 558.07 1047.56 314.84 1218.82 346.60 1187.98 385.73 1062.58 508.57 1206.54 535.71
00001335 00000134 878.72 107.11 380.76 556.75 1050.92 317.45 1219.73 351.41 1190.02 387.49 1063.31 508.78 1205.20 537.90
00001336 00000135 878.19 109.13 382.65 551.55 1050.78 316.01 1218.54 352.10 1186.49 385.31 1063.63 507.67 1201.46 538.55
00001337 00000136 876.83 108.17 383.82 539.21 1047.74 311.85 1217.40 347.95 1182.29 377.37 1060.08 498.91 1198.49 529.70
00001338 00000137 876.94 108.04 383.49 533.94 1046.51 307.64 1216.50 342.82 1181.38 376.08 1057.44 494.71 1196.78 524.77
00001339 00000138 878.47 107.99 382.55 530.50 1041.96 305.21 1212.75 338.00 1175.32 373.92 1055.32 492.56 1193.90 520.55
00001340 00000139 876.98 108.62 381.99 523.68 1037.86 303.01 1212.89 339.61 1173.00 367.80 1050.10 487.78 1192.88 518.39
00001341 00000140 876.98 109.28 379.69 518.66 1034.70 301.79 1211.32 340.13 1166.18 365.90 1044.67 484.11 1188.98 515.81
00001342 00000141 873.51 108.78 383.21 522.28 1030.36 301.32 1207.93 339.62 1161.29 365.68 1040.29 486.57 1184.64 518.31
00001343 00000142 872.76 108.86 383.18 527.26 1027.24 298.84 1201.77 336.98 1155.20 367.50 1037.13 490.19 1176.58 522.11
00001344 00000143 870.00 108.87 383.90 522.91 1025.24 300.71 1203.21 339.07 1153.36 367.64 1035.11 488.80 1179.40 520.62
00001345 00000144 868.44 108.23 384.65 523.68 1023.27 301.49 1201.05 340.63 1150.64 367.15 1031.99 488.79 1177.38 521.27
00001346 00000145 869.39 106.98 382.99 524.11 1022.70 300.88 1202.60 340.82 1151.59 365.77 1032.70 490.21 1178.28 523.30
00001347 00000146 869.70 107.59 383.05 515.72 1022.24 300.58 1203.88 340.78 1151.36 363.21 1031.33 484.88 1180.50 517.75
00001348 00000147 871.55 106.82 382.55 512.74 1022.26 299.09 1203.59 339.05 1152.48 360.47 1033.23 481.77 1182.72 514.35
00001349 00000148 872.96 104.55 382.55 514.65 1022.46 300.03 1204.40 338.86 1152.33 361.79 1034.22 482.75 1183.84 514.38
00001350 00000149 877.18 105.06 378.70 515.03 1024.63 304.29 1207.05 339.85 1156.34 364.59 1039.25 486.45 1189.47 515.47
00001351 00000150 876.92 106.64 378.77 522.11 1027.98 307.45 1210.32 341.36 1160.02 371.64 1041.45 492.49 1191.27 520.47
00001352 00000151 878.27 108.80 383.47 542.10 1032.62 313.35 1210.19 344.37 1162.65 376.35 1045.79 500.95 1194.55 527.35
00001353 00000152 879.71 119.28 381.93 554.00 1035.24 320.11 1208.70 355.46 1162.75 388.49 1047.34 515.41 1189.43 545.93
00001354 00000153 873.48 122.59 391.20 563.55 1038.69 323.70 1200.61 355.30 1152.11 403.24 1046.40 521.48 1173.11 548.46
00001355 00000154 872.29 131.35 379.11 556.38 1028.14 318.28 1192.12 356.52 1154.83 389.04 1044.13 525.08 1169.44 557.32
00001356 00000155 875.66 121.73 368.53 562.67 1025.81 319.14 1192.30 355.11 1147.66 391.44 1031.85 520.93 1166.92 552.54
00001357 00000156 870.37 120.86 372.56 560.75 1023.61 318.31 1190.82 357.43 1145.70 392.93 1025.10 518.24 1161.47 552.46
00001358 00000157 864.79 117.35 377.30 552.53 1023.76 316.39 1193.42 362.27 1145.70 396.41 1018.63 510.02 1156.42 549.99
00001359 00000158 860.82 115.36 380.93 545.60 1020.75 315.22 1198.00 363.64 1143.55 395.20 1013.87 505.25 1158.64 546.96
00001360 00000159 857.84 119.16 383.11 531.86 1020.90 314.79 1199.46 361.24 1141.68 394.54 1013.25 501.04 1158.66 540.36
00001361 00000160 856.47 120.92 383.93 524.48 1021.23 313.75 1202.45 365.43 1142.87 392.55 1010.05 497.45 1158.93 541.13
00001362 00000161 856.32 120.76 384.18 522.18 1021.85 312.80 1202.51 365.15 1142.51 391.22 1010.27 495.76 1158.58 539.83
00001363 00000162 856.70 120.10 384.09 519.25 1021.33 309.89 1200.73 365.15 1141.19 387.33 1010.17 494.22 1156.48 540.57
00001364 00000163 856.34 117.03 385.51 521.43 1021.93 306.22 1198.11 360.85 1141.88 381.28 1011.51 489.91 1154.46 535.53
00001365 00000164 859.67 116.61 382.70 515.16 1022.62 302.12 1201.46 357.81 1142.43 378.08 1008.56 484.24 1156.59 531.46
