Video ID: 	wIeuHGdrJA8
H: 	1080
W: 	1920
FPS: 	25.0

FRAME INDEX X0 Y0 W H [Landmarks (5 Points)]

00003294 00000000 574.89 145.51 411.65 579.22 689.68 374.91 875.66 353.86 807.19 489.34 720.96 575.67 889.58 557.50
00003295 DELETE   580.99 144.03 411.58 582.84 701.30 375.23 887.19 353.47 824.91 487.27 731.77 576.55 901.23 557.30
00003296 00000002 587.66 146.73 407.75 584.08 710.58 372.40 894.60 352.78 833.81 486.34 741.03 579.28 905.22 562.02
00003297 00000003 591.15 150.95 405.24 588.64 718.82 369.50 902.96 353.49 842.82 488.28 744.11 578.22 912.34 564.36
00003298 00000004 592.46 150.81 404.47 592.97 723.10 369.65 906.61 355.21 847.42 492.36 745.93 580.76 913.48 568.35
00003299 00000005 596.37 151.20 407.12 580.01 724.56 373.46 912.50 357.53 852.88 493.12 749.45 577.85 920.39 564.55
00003300 00000006 597.96 149.36 408.44 575.93 725.40 374.75 916.68 356.15 857.04 492.40 753.84 577.68 926.19 562.09
00003301 00000007 599.77 149.05 408.43 572.92 729.32 375.59 920.81 357.36 860.86 492.75 757.83 576.73 929.63 561.54
00003302 00000008 605.63 152.00 405.05 573.61 737.37 371.56 923.48 356.91 862.43 489.16 769.06 579.86 926.74 567.57
00003303 00000009 604.95 151.52 407.53 585.55 739.42 370.61 924.95 358.17 866.43 493.07 770.57 583.70 928.05 572.96
00003304 00000010 604.86 147.59 412.71 599.80 740.88 374.78 927.28 360.87 872.26 499.19 770.87 590.31 930.72 578.22
00003305 00000011 604.46 145.76 415.92 604.91 742.29 375.20 929.23 361.41 874.04 500.84 771.01 591.41 932.54 579.37
00003306 00000012 604.64 145.06 417.25 606.70 743.89 375.70 931.70 361.34 876.46 502.34 771.75 592.75 934.47 580.32
00003307 00000013 604.35 144.28 418.68 607.30 744.50 375.71 933.38 361.20 877.79 502.97 772.93 592.82 936.15 580.29
00003308 00000014 606.10 142.59 417.80 600.13 745.43 374.10 939.35 359.11 878.97 501.26 775.14 590.84 939.91 578.12
00003309 00000015 606.37 136.22 421.64 601.52 747.41 366.02 944.20 350.16 881.63 496.65 775.30 582.92 943.09 569.54
00003310 00000016 608.16 131.52 422.72 606.34 749.81 363.61 946.10 347.46 883.59 494.42 778.49 582.52 944.63 568.62
00003311 00000017 608.34 131.14 422.60 611.33 751.69 361.69 946.08 347.03 884.76 492.75 779.23 583.66 942.82 570.88
00003312 00000018 607.82 129.37 425.11 620.80 751.11 361.63 946.63 347.02 885.01 494.03 778.64 586.51 943.11 573.36
00003313 00000019 607.05 129.75 425.80 616.96 749.81 361.38 946.21 346.32 884.16 493.69 778.85 585.21 943.59 571.71
00003314 00000020 604.65 105.32 429.56 627.01 747.33 361.31 946.46 342.82 882.09 491.79 777.39 577.34 947.31 562.94
00003315 00000021 604.82 104.19 430.60 627.27 747.46 359.19 945.88 339.81 882.72 489.51 776.89 575.31 947.74 560.28
00003316 00000022 605.00 100.51 431.30 629.09 748.37 358.20 947.03 338.85 883.54 488.58 778.00 574.37 948.52 559.28
00003317 00000023 605.16 99.08 432.94 631.42 748.92 357.35 948.08 337.13 884.47 487.83 778.48 573.93 949.73 558.05
00003318 00000024 606.05 100.41 434.09 630.09 749.88 355.31 949.44 335.75 885.16 486.72 779.62 573.54 951.20 558.08
00003319 00000025 612.01 112.09 435.45 620.77 752.33 351.87 956.15 334.45 886.56 485.81 782.59 574.72 952.23 558.56
00003320 00000026 613.74 111.87 436.41 620.33 753.31 350.91 957.36 333.56 886.62 485.63 785.05 575.14 953.31 558.92
00003321 00000027 615.65 110.82 435.54 621.60 753.60 350.99 957.41 333.11 886.41 486.28 786.07 575.42 954.05 558.72
00003322 00000028 615.83 109.34 437.52 623.78 753.86 350.46 957.54 332.79 886.10 486.31 786.49 574.32 955.31 557.72
00003323 00000029 611.32 96.63 440.00 635.35 757.08 350.70 953.60 331.22 886.81 486.74 787.26 574.23 955.85 557.83
00003324 00000030 616.75 113.05 437.83 615.25 751.51 345.08 955.59 330.68 879.43 482.96 782.47 569.54 949.57 555.49
00003325 00000031 610.65 102.27 436.37 619.24 748.01 341.52 946.44 326.82 874.93 480.53 775.97 563.76 946.05 551.87
00003326 00000032 608.86 99.79 436.12 618.38 743.56 338.18 940.48 324.51 869.05 476.88 770.43 557.98 941.01 547.01
00003327 00000033 605.14 98.49 437.29 617.80 739.09 334.01 935.34 323.31 861.14 473.23 765.15 553.33 935.07 544.88
00003328 00000034 603.54 101.76 435.29 616.39 732.39 328.03 930.64 321.02 851.78 466.98 757.98 550.91 927.76 545.34
00003329 00000035 603.08 96.43 437.43 611.87 730.40 325.87 930.05 321.75 845.85 468.06 747.69 541.59 921.30 538.70
00003330 00000036 604.38 94.23 438.12 615.44 731.71 323.70 932.60 319.27 849.05 465.77 749.24 541.45 924.24 538.15
00003331 00000037 606.29 94.08 437.95 615.47 735.60 323.19 936.67 317.92 854.21 465.36 752.93 540.62 931.15 536.52
00003332 00000038 606.38 88.35 438.12 627.20 738.75 323.32 936.99 316.63 858.91 462.86 758.86 545.94 932.36 540.28
00003333 00000039 606.21 90.18 438.07 624.89 740.05 323.70 938.18 316.98 860.00 464.35 759.19 545.35 933.70 539.80
00003334 00000040 605.76 93.30 435.49 621.18 736.43 325.74 933.75 318.39 856.57 465.20 756.09 543.51 931.83 537.67
00003335 00000041 604.73 93.67 434.41 621.43 735.11 325.14 932.35 318.98 853.90 463.75 753.10 542.71 929.34 537.80
00003336 00000042 604.98 95.60 433.58 620.75 735.40 324.10 932.55 318.82 853.66 463.46 752.80 542.59 929.09 538.35
00003337 00000043 612.75 108.92 429.40 613.53 738.70 321.95 941.29 321.38 855.24 466.62 758.84 542.91 927.05 540.37
00003338 00000044 613.56 105.80 429.93 619.01 740.83 322.42 943.63 322.69 858.20 466.47 760.11 543.84 929.12 541.97
00003339 00000045 612.66 82.32 436.87 646.05 756.55 321.50 952.48 321.97 874.66 463.65 762.72 547.83 942.63 547.76
00003340 00000046 622.88 97.50 438.27 626.42 774.91 322.33 975.91 327.80 899.58 470.58 784.74 547.47 949.76 550.86
00003341 DELETE   639.43 101.48 431.68 620.18 796.65 322.29 996.57 325.87 928.99 467.00 801.50 549.45 969.64 551.82
00003342 DELETE   655.65 87.14 438.30 627.95 830.92 328.36 1027.18 328.05 965.46 467.78 832.75 554.87 996.85 556.12
00003343 DELETE   667.79 94.41 437.38 621.40 859.32 336.23 1047.09 331.17 999.79 475.39 860.00 563.75 1014.94 561.26
00003344 00000050 676.98 90.26 441.04 636.98 892.31 352.59 1075.50 339.63 1046.69 479.60 888.19 573.12 1040.44 566.61
00003345 00000051 686.87 114.40 429.43 609.43 898.69 353.61 1079.80 348.78 1051.59 487.70 899.09 578.80 1046.90 576.66
00003346 00000052 689.66 117.01 427.13 610.88 903.64 359.59 1084.33 355.20 1056.93 493.88 903.18 584.43 1051.13 582.34
00003347 00000053 690.31 120.34 428.29 613.69 908.74 362.88 1087.69 360.78 1058.86 502.30 904.66 590.03 1051.10 589.77
00003348 00000054 687.89 123.30 430.58 624.66 909.93 371.00 1088.10 367.77 1059.64 509.70 902.89 599.30 1050.64 598.29
00003349 00000055 682.92 127.89 437.58 636.27 912.87 382.05 1087.70 379.73 1059.83 523.49 906.97 614.60 1048.30 613.86
00003350 00000056 681.03 130.91 439.37 637.47 914.78 386.78 1089.94 381.29 1065.67 523.78 915.69 621.91 1052.47 618.36
00003351 00000057 681.68 134.16 435.26 636.01 918.68 393.69 1090.98 383.79 1072.68 527.08 925.92 630.88 1053.71 623.62
00003352 00000058 681.66 137.07 431.15 637.46 922.21 398.77 1088.39 385.67 1075.93 529.37 930.10 637.13 1050.97 627.37
00003353 00000059 677.91 134.34 429.83 646.86 920.25 404.93 1079.31 386.05 1074.99 532.09 928.67 643.13 1044.43 629.04
00003354 00000060 661.59 160.51 444.86 631.46 903.29 405.55 1070.81 396.24 1058.25 541.33 921.35 656.01 1039.96 648.55
00003355 00000061 655.16 141.09 440.76 660.59 893.89 407.79 1057.76 389.88 1047.76 545.18 906.58 661.45 1024.21 648.53
00003356 00000062 651.27 136.66 446.13 669.18 890.34 411.08 1054.93 392.76 1043.46 551.88 903.71 667.12 1020.16 654.19
00003357 00000063 647.46 161.10 457.24 663.83 895.72 409.79 1064.51 406.12 1047.73 552.25 909.42 671.66 1026.98 668.59
00003358 00000064 650.98 156.72 456.18 681.30 900.16 417.69 1067.15 409.41 1059.63 564.87 879.08 668.44 1015.08 666.55
00003359 00000065 667.02 157.23 453.28 697.55 916.50 427.04 1081.86 415.14 1081.90 576.05 880.51 673.88 1024.57 670.45
00003360 00000066 670.30 158.86 450.32 697.56 917.99 431.12 1085.06 418.80 1082.45 582.94 880.46 678.30 1023.79 674.85
00003361 00000067 668.19 161.22 450.52 694.63 916.38 433.25 1086.54 419.78 1081.47 586.63 880.38 680.90 1025.16 676.34
00003362 00000068 663.08 161.76 450.85 690.11 911.64 434.82 1081.13 421.53 1077.48 586.91 878.31 680.17 1022.51 675.61
00003363 00000069 656.21 165.20 452.98 675.80 901.64 440.10 1076.28 420.83 1069.14 585.62 879.48 679.03 1022.86 669.44
00003364 00000070 639.80 166.32 456.57 664.81 890.01 442.24 1061.82 427.13 1051.93 583.92 868.04 675.94 1005.41 669.88
00003365 00000071 638.16 167.09 451.62 661.39 885.18 445.38 1058.71 430.78 1045.42 585.89 864.26 676.52 1001.96 670.94
00003366 00000072 634.85 156.77 454.55 673.32 882.76 449.16 1044.82 422.04 1040.65 583.56 873.15 681.89 1000.68 664.45
00003367 00000073 632.54 153.73 454.92 676.05 879.10 448.41 1042.70 420.26 1038.09 581.54 873.10 682.04 1001.77 663.47
00003368 00000074 630.86 153.77 452.18 675.49 871.43 448.06 1041.62 418.53 1031.84 581.02 872.08 683.81 1003.37 663.60
00003369 00000075 625.47 161.83 452.62 671.90 860.15 446.20 1038.76 420.51 1022.33 580.86 863.84 685.84 1000.90 668.36
00003370 00000076 618.67 161.87 459.92 673.74 856.57 442.46 1038.21 420.23 1018.55 581.84 863.53 688.63 997.30 674.06
00003371 00000077 616.76 163.51 464.75 672.50 853.25 442.87 1038.79 422.90 1015.45 582.86 862.31 690.28 997.30 677.37
00003372 00000078 615.26 164.18 467.08 673.02 854.11 442.82 1038.95 423.20 1016.65 584.40 863.02 692.07 996.82 679.55
00003373 00000079 617.52 165.62 467.17 675.12 857.98 443.49 1040.99 424.89 1020.09 587.22 863.36 694.52 995.74 683.11
00003374 00000080 622.75 164.47 469.34 685.75 869.80 443.28 1044.92 427.27 1030.10 590.10 861.78 693.39 992.97 685.03
00003375 00000081 621.68 165.70 470.65 686.19 870.84 444.06 1045.67 426.14 1035.00 590.38 858.28 693.06 993.92 683.40
00003376 00000082 623.70 161.99 466.07 684.60 869.33 444.48 1044.80 423.94 1032.56 589.11 860.17 692.67 994.65 680.84
00003377 00000083 618.60 164.71 465.51 685.76 861.43 441.32 1042.95 420.57 1027.02 586.40 858.68 693.08 997.81 680.39
00003378 00000084 609.14 155.52 467.48 699.39 852.22 440.52 1037.37 419.57 1019.49 582.79 853.78 693.75 995.55 680.18
00003379 00000085 592.47 161.59 470.59 697.74 837.18 431.36 1020.46 418.85 1001.01 580.43 849.99 702.31 982.14 692.38
00003380 00000086 583.60 168.43 464.67 692.34 828.26 434.22 1005.66 424.13 990.91 579.98 839.96 701.45 967.95 693.05
00003381 00000087 573.52 164.39 465.25 697.23 817.86 440.14 994.70 428.13 977.63 585.43 833.02 705.21 960.00 694.87
00003382 00000088 560.51 156.13 472.10 699.05 791.29 444.51 977.75 420.26 954.90 586.92 816.93 705.71 950.24 687.92
00003383 00000089 551.37 154.31 466.69 699.62 763.95 444.45 961.69 420.56 926.88 582.51 798.20 701.93 938.29 684.29
00003384 00000090 530.48 166.29 467.08 683.18 729.91 438.24 939.34 417.85 895.00 585.22 774.50 709.66 914.07 691.20
00003385 00000091 480.88 152.15 468.54 691.80 647.40 445.97 866.02 422.29 801.36 583.43 691.66 688.24 862.00 670.49
00003386 00000092 452.29 161.96 464.92 678.53 609.47 438.75 827.71 414.96 759.39 583.54 658.15 688.65 827.85 668.69
00003387 00000093 420.71 164.73 481.71 674.94 569.89 448.05 790.82 417.00 714.32 583.90 623.39 685.00 800.44 660.60
00003388 00000094 396.62 159.81 483.74 687.75 539.60 445.69 765.21 419.93 679.86 591.65 595.81 690.01 771.00 670.00
00003389 00000095 379.54 173.58 493.54 674.63 512.11 443.78 742.03 410.16 659.33 588.74 578.37 694.52 754.60 664.15
00003390 00000096 364.84 177.73 492.56 675.36 493.73 447.05 717.76 411.37 636.01 587.20 570.32 699.63 737.98 667.60
00003391 00000097 365.85 177.38 492.23 672.09 493.04 449.10 716.56 413.76 633.23 586.62 569.86 698.33 736.18 666.72
00003392 00000098 364.61 177.00 496.49 671.00 492.92 445.00 717.25 409.83 633.60 585.52 572.00 698.35 736.31 666.21
00003393 00000099 366.47 175.33 497.66 674.42 494.22 443.21 719.90 407.41 635.22 584.11 575.64 701.36 737.39 668.72
00003394 00000100 368.32 178.68 501.01 674.67 495.94 439.35 722.71 403.08 638.20 583.85 580.43 705.60 737.11 672.50
00003395 00000101 385.53 180.76 492.56 670.53 505.88 435.54 734.14 404.19 645.95 585.72 588.84 707.04 743.67 677.98
00003396 00000102 395.07 180.52 488.04 671.75 515.69 436.01 744.54 408.28 653.18 590.80 593.13 707.22 752.25 680.69
00003397 00000103 408.28 170.70 487.62 681.66 530.52 438.99 760.71 412.11 662.70 593.71 596.83 697.67 766.34 676.71
00003398 00000104 420.32 167.45 484.44 667.46 539.63 433.30 768.08 411.50 667.83 590.58 597.68 686.41 766.96 669.37
00003399 00000105 429.15 161.97 485.89 669.33 544.65 430.77 774.37 409.53 672.49 588.56 601.62 681.56 773.83 664.46
00003400 00000106 437.26 160.80 489.00 674.99 550.16 426.52 777.46 407.77 673.64 586.65 605.10 677.61 779.33 662.12
00003401 00000107 443.30 160.33 487.99 672.97 554.25 423.95 779.95 408.25 673.00 584.08 602.45 672.23 778.90 659.18
00003402 00000108 448.70 148.99 486.36 683.68 558.83 420.21 789.91 410.26 676.20 587.29 603.20 669.28 783.87 661.04
00003403 00000109 453.38 146.34 487.56 685.89 564.65 418.54 793.86 410.06 679.28 583.47 605.44 664.03 787.44 656.89
00003404 00000110 455.40 143.51 488.72 688.03 568.47 416.29 799.39 408.34 684.55 581.22 605.95 660.50 793.70 653.50
00003405 00000111 461.96 141.26 485.52 688.97 573.90 415.36 805.22 408.00 690.98 578.38 608.78 659.78 799.78 653.34
00003406 00000112 463.24 148.79 485.46 681.11 575.52 415.27 809.34 407.88 693.83 579.17 611.50 660.39 802.57 654.16
00003407 00000113 464.90 149.36 484.92 680.02 577.12 414.82 811.64 407.42 696.09 578.32 613.14 660.59 804.45 654.42
00003408 00000114 465.70 144.45 483.72 684.53 577.83 415.07 811.27 407.23 697.08 577.42 613.00 660.20 805.36 653.57
00003409 00000115 466.27 146.02 483.28 683.05 578.72 415.62 811.99 407.73 697.91 577.59 613.47 660.01 805.71 653.37
00003410 00000116 467.12 150.90 482.86 686.16 581.64 420.97 817.97 411.38 705.43 586.17 617.42 667.32 812.64 659.46
00003411 00000117 471.48 157.29 480.38 681.66 594.03 425.60 826.07 415.90 717.78 591.94 627.80 669.16 819.70 661.80
00003412 00000118 477.10 157.06 482.08 682.87 608.20 427.39 834.76 416.41 733.77 587.30 640.38 665.91 829.65 657.39
00003413 00000119 486.93 159.38 482.82 677.43 625.47 428.62 850.57 409.89 759.59 577.34 662.36 662.44 853.24 647.52
00003414 00000120 498.20 144.95 477.94 688.30 640.08 422.33 857.97 394.60 783.88 564.07 683.37 659.30 871.53 636.82
00003415 00000121 506.99 130.52 473.00 682.87 656.23 397.59 872.85 366.53 811.36 537.38 708.73 646.02 889.29 619.65
00003416 00000122 505.01 118.96 469.90 685.03 652.29 388.13 868.44 356.63 808.84 526.59 710.63 638.44 886.31 610.99
00003417 00000123 502.46 113.88 470.86 685.23 645.59 383.47 863.22 355.96 797.36 516.02 702.71 630.93 881.45 606.19
00003418 00000124 490.99 112.32 478.28 689.49 633.94 377.66 851.33 349.99 781.26 514.00 692.38 628.28 871.37 603.49
00003419 00000125 481.14 105.44 479.98 706.43 621.43 374.93 839.80 348.81 765.01 514.10 675.71 630.39 857.41 607.33
00003420 00000126 475.83 108.93 477.98 704.03 605.94 376.46 822.24 358.89 735.57 524.77 649.82 626.68 837.26 611.24
00003421 00000127 482.54 109.33 480.67 703.44 608.18 376.81 824.94 362.50 732.24 529.03 647.55 624.25 836.37 611.66
00003422 00000128 496.65 120.34 475.92 694.24 617.83 381.45 831.17 369.20 736.12 531.70 652.46 625.03 840.49 614.48
00003423 00000129 511.39 120.77 479.92 698.37 627.66 387.43 844.80 377.16 739.39 544.40 657.09 630.39 854.65 620.37
00003424 00000130 530.75 133.40 477.48 693.55 641.47 386.63 862.09 382.94 752.76 555.12 667.47 633.90 867.54 630.24
00003425 00000131 564.55 134.23 468.78 698.96 671.56 385.42 898.21 397.27 773.54 565.69 683.99 637.81 878.24 647.49
00003426 00000132 573.26 135.46 478.43 701.92 683.22 392.04 904.26 404.31 778.84 568.70 689.89 636.83 885.38 648.09
00003427 00000133 581.99 133.89 476.90 700.66 694.77 388.30 914.15 404.26 789.13 565.41 695.46 630.67 892.59 644.98
00003428 00000134 594.26 139.24 475.73 695.18 709.42 379.68 929.09 403.79 805.70 564.31 710.25 623.23 900.57 641.72
00003429 00000135 587.78 132.18 481.65 697.15 710.05 378.66 932.50 395.78 812.89 560.12 707.11 621.84 912.15 636.45
00003430 00000136 586.25 129.56 484.62 692.37 715.71 378.97 938.04 393.61 823.30 560.31 718.04 621.80 917.64 634.07
00003431 00000137 584.65 128.33 484.96 686.08 714.72 382.45 938.43 394.76 823.75 563.58 717.91 622.97 918.15 633.35
00003432 00000138 578.83 128.34 483.83 691.11 707.28 388.21 930.32 397.05 816.20 567.16 710.59 627.37 912.85 635.10
00003433 00000139 571.55 130.28 483.29 695.23 693.40 395.16 915.05 402.59 797.36 569.29 699.35 631.76 896.94 638.65
00003434 00000140 563.48 139.30 481.27 688.54 677.31 400.93 898.55 410.74 775.82 577.87 684.34 637.10 878.11 646.51
00003435 00000141 532.16 160.76 484.18 671.00 634.10 407.64 867.81 426.01 730.44 594.04 647.47 650.68 842.79 666.85
00003436 00000142 522.61 169.95 485.84 660.61 622.02 415.58 853.02 431.87 715.25 600.66 640.65 653.77 830.69 668.96
00003437 00000143 518.51 167.75 483.73 663.02 619.21 420.62 851.28 431.38 717.68 604.04 641.86 658.14 831.27 668.75
00003438 00000144 514.38 161.98 482.55 669.55 621.11 423.78 854.38 428.42 727.19 604.46 645.84 662.58 835.40 667.88
00003439 00000145 508.55 156.87 487.71 682.08 624.95 426.95 854.05 422.68 738.85 593.70 651.79 665.60 845.16 662.09
00003440 00000146 493.29 156.62 487.35 687.39 616.34 423.18 844.85 414.64 736.71 586.85 650.36 666.28 840.19 659.25
00003441 00000147 480.81 147.52 479.79 699.92 603.00 419.63 830.84 415.11 720.73 586.45 632.21 664.98 822.19 661.55
00003442 DELETE   463.41 146.55 483.73 694.06 581.33 409.21 807.86 405.70 695.30 579.21 613.98 658.88 800.91 655.89
00003443 00000149 446.98 146.11 485.99 691.62 549.49 408.28 771.09 403.32 648.19 571.71 585.11 656.45 765.87 652.69
00003444 00000150 428.12 145.03 481.20 688.38 518.95 409.83 738.76 406.86 611.86 575.15 552.71 655.88 732.37 653.97
00003445 00000151 388.18 157.68 489.09 668.35 469.74 408.16 693.80 414.35 554.64 582.74 508.27 653.33 687.80 658.30
00003446 00000152 381.09 166.80 492.37 664.77 460.77 416.30 685.06 419.24 546.57 586.52 503.60 661.43 680.66 664.00
00003447 00000153 377.67 171.70 495.53 667.60 461.39 422.87 686.21 420.65 551.58 592.20 509.02 668.22 685.53 666.34
00003448 00000154 375.71 167.56 496.94 682.12 467.03 428.53 690.39 418.88 565.35 598.77 524.49 679.87 697.86 671.77
00003449 00000155 369.76 178.94 494.92 685.80 467.33 436.25 691.16 419.21 574.31 596.11 529.45 688.77 705.56 672.51
00003450 00000156 365.48 174.63 495.83 697.16 462.93 436.89 686.05 418.96 570.06 595.82 523.10 691.23 701.21 674.53
00003451 00000157 367.67 182.87 491.64 689.88 461.15 434.28 680.54 421.99 562.64 595.53 515.74 685.39 694.38 673.49
00003452 00000158 367.42 185.21 492.45 688.53 461.20 432.68 679.89 422.98 560.75 596.19 513.64 684.85 690.15 675.44
00003453 00000159 370.92 185.76 493.05 688.76 464.22 430.62 683.99 422.82 562.84 596.87 515.03 684.80 693.55 676.80
00003454 00000160 377.23 184.51 491.64 692.78 471.23 430.79 691.55 423.03 570.36 596.84 522.00 688.26 701.21 679.93
00003455 00000161 390.11 179.03 490.26 691.25 487.80 429.93 712.41 422.64 592.70 597.71 540.52 690.52 713.49 683.19
00003456 00000162 399.56 173.09 484.27 685.67 495.70 432.07 727.08 427.43 602.58 606.50 541.14 692.34 714.70 689.44
00003457 00000163 409.22 179.70 477.28 680.78 502.15 433.06 733.97 429.53 609.34 608.17 543.87 694.06 717.73 692.27
00003458 00000164 414.15 184.50 488.76 685.53 512.01 435.37 737.95 431.04 615.53 603.09 554.74 691.75 728.76 688.60
00003459 00000165 430.73 190.49 487.02 684.13 530.03 430.17 757.08 428.14 634.05 600.83 571.87 687.21 749.13 685.76
00003460 00000166 467.51 182.63 484.69 694.65 576.32 423.37 801.40 428.51 679.29 596.92 603.13 680.58 788.91 684.26
00003461 00000167 492.81 182.62 482.59 690.37 602.83 427.46 826.31 431.61 706.45 599.41 628.57 679.90 813.77 683.67
00003462 DELETE   515.01 170.76 482.16 694.04 622.84 423.32 854.94 431.21 726.71 599.04 640.85 674.03 834.68 682.25
00003463 00000169 538.11 171.11 478.17 689.08 654.40 419.93 880.97 431.52 758.67 585.79 660.75 666.17 857.58 674.13
