Video ID: 	VFhH_6zRJlQ
H: 	1080
W: 	1920
FPS: 	25.0

FRAME INDEX X0 Y0 W H [Landmarks (5 Points)]

00003464 00000000 1109.44 131.42 427.68 633.16 1169.52 394.82 1349.29 426.44 1205.23 520.70 1161.75 604.72 1317.20 631.03
00003465 00000001 1105.60 128.98 441.79 636.44 1174.78 383.89 1355.41 426.22 1203.58 510.36 1155.42 596.01 1306.78 631.61
00003466 00000002 1088.64 133.14 455.06 635.79 1171.26 375.69 1355.38 434.65 1192.59 510.05 1140.40 592.92 1284.27 642.31
00003467 DELETE   1070.73 143.18 461.64 644.38 1155.38 388.67 1339.02 454.43 1168.10 522.65 1121.36 608.36 1257.14 662.50
00003468 DELETE   1070.89 168.16 439.50 643.00 1135.00 418.92 1320.40 480.00 1148.44 555.68 1109.32 643.63 1246.29 693.63
00003469 00000005 1053.35 171.45 448.11 649.38 1126.22 436.76 1299.33 482.99 1132.52 566.50 1107.71 661.30 1234.55 699.40
00003470 00000006 1041.53 168.45 445.33 652.73 1112.59 432.78 1288.24 479.25 1125.93 569.63 1097.64 658.96 1230.19 697.33
00003471 00000007 1036.36 157.64 438.29 652.02 1099.13 428.75 1278.17 470.42 1118.84 563.95 1090.02 653.68 1226.20 687.68
00003472 00000008 1030.89 158.23 436.34 642.31 1089.69 422.23 1269.68 459.55 1111.11 553.99 1085.72 646.83 1220.72 677.20
00003473 00000009 1022.54 153.87 435.29 641.81 1077.38 421.32 1258.34 459.44 1102.69 548.58 1070.64 640.56 1213.41 671.56
00003474 00000010 1011.47 147.75 440.77 646.83 1070.29 417.97 1248.17 455.40 1091.52 546.00 1065.00 635.53 1209.66 665.14
00003475 00000011 1007.09 145.07 436.91 648.52 1064.57 411.65 1242.81 450.51 1084.94 544.41 1060.76 633.89 1203.39 664.48
00003476 00000012 1006.59 138.65 434.59 651.56 1062.00 408.05 1238.11 444.43 1077.40 538.25 1056.08 629.90 1198.69 658.41
00003477 00000013 1006.87 137.61 433.79 648.13 1062.61 405.05 1236.66 441.58 1075.32 532.59 1054.74 625.31 1195.16 654.13
00003478 00000014 1007.74 133.19 433.39 649.78 1064.59 403.23 1236.49 438.93 1075.67 528.03 1055.40 623.00 1193.26 651.27
00003479 00000015 1007.11 129.20 435.96 646.91 1064.03 400.72 1237.57 436.54 1076.12 527.15 1054.02 619.58 1193.44 648.12
00003480 DELETE   1008.44 125.94 438.26 646.70 1067.11 397.40 1242.25 433.93 1079.91 524.67 1056.04 616.05 1198.20 645.35
00003481 00000017 1013.94 126.10 440.70 643.74 1070.94 395.15 1248.06 432.38 1082.80 521.13 1059.34 613.36 1201.98 643.76
00003482 00000018 1020.65 121.15 443.92 646.54 1076.38 394.19 1254.00 432.15 1089.31 516.70 1062.57 612.16 1203.67 643.73
00003483 00000019 1025.84 125.74 438.01 646.95 1081.70 397.28 1258.09 435.75 1095.21 520.28 1066.36 615.40 1207.60 647.54
00003484 00000020 1028.20 138.69 434.66 639.73 1084.16 400.72 1259.67 441.12 1096.95 524.44 1069.79 619.49 1209.82 653.21
00003485 00000021 1027.35 140.90 436.72 641.83 1085.44 404.48 1260.82 447.79 1097.23 528.68 1068.68 621.60 1208.85 657.60
00003486 00000022 1026.75 144.03 437.26 640.91 1086.60 406.11 1262.54 452.27 1097.43 530.95 1068.25 621.40 1210.13 659.58
00003487 00000023 1032.02 150.13 434.58 631.96 1092.99 404.57 1263.48 450.24 1101.14 534.14 1082.01 620.77 1214.94 657.51
00003488 00000024 1025.38 152.91 440.87 634.80 1087.10 401.08 1265.57 460.30 1102.79 539.60 1070.25 616.33 1214.05 662.99
00003489 00000025 1023.77 152.22 439.60 630.25 1086.89 407.73 1261.27 458.02 1097.12 534.35 1067.17 617.64 1210.30 658.41
00003490 00000026 1030.93 154.68 430.67 627.89 1090.36 407.03 1259.73 453.42 1098.61 537.06 1080.41 621.67 1214.88 658.77
00003491 00000027 1026.27 158.59 431.99 627.64 1085.65 411.53 1260.59 457.56 1096.98 534.49 1067.69 624.62 1210.90 661.80
00003492 00000028 1033.99 152.43 421.56 628.92 1092.79 409.45 1259.09 451.39 1103.00 533.67 1085.55 622.09 1216.70 655.74
00003493 00000029 1028.35 143.16 427.09 636.95 1089.68 407.81 1264.49 449.41 1102.04 526.68 1069.96 619.18 1208.51 653.75
00003494 00000030 1032.83 144.83 420.87 626.99 1093.10 400.24 1264.37 441.25 1106.45 520.77 1073.36 617.92 1200.61 652.08
00003495 00000031 1035.63 135.35 417.79 635.96 1094.70 399.34 1268.61 435.69 1115.53 518.06 1078.05 621.32 1202.37 652.24
00003496 00000032 1040.04 137.04 412.55 637.50 1097.76 401.66 1270.63 435.49 1121.65 519.62 1083.27 625.24 1205.94 654.26
00003497 00000033 1043.42 138.62 409.57 638.28 1099.24 404.20 1272.81 437.33 1126.52 524.63 1086.34 625.09 1213.67 653.64
00003498 00000034 1053.73 144.76 408.96 637.57 1113.23 412.92 1280.57 442.98 1135.54 522.09 1100.04 627.38 1230.87 653.44
00003499 00000035 1062.79 142.12 397.42 647.19 1113.22 419.30 1292.22 442.56 1148.04 538.86 1108.89 634.45 1255.95 654.88
00003500 00000036 1072.49 147.89 390.03 648.82 1120.91 434.88 1295.45 453.05 1161.04 555.09 1122.61 647.47 1269.19 663.83
00003501 00000037 1071.66 169.59 397.24 636.11 1135.39 450.38 1306.82 475.96 1168.49 570.91 1134.75 651.17 1279.99 671.97
00003502 00000038 1079.66 182.95 390.71 630.61 1139.72 463.69 1312.69 487.84 1176.84 583.27 1138.54 661.12 1286.53 681.46
00003503 00000039 1084.05 189.78 385.21 627.20 1148.49 474.74 1319.46 497.97 1188.37 589.73 1141.36 661.38 1293.62 681.06
00003504 00000040 1089.48 176.71 386.85 640.39 1148.88 466.58 1326.19 489.58 1200.85 580.69 1148.37 663.55 1298.51 683.05
00003505 00000041 1094.96 171.79 389.92 643.44 1155.20 459.48 1332.89 483.07 1206.18 573.06 1154.60 658.16 1305.59 678.34
00003506 00000042 1094.59 171.32 392.34 641.20 1159.40 457.64 1333.55 483.24 1208.44 569.00 1157.03 654.47 1304.31 675.97
00003507 00000043 1097.58 172.48 394.55 639.62 1162.41 459.63 1337.22 486.47 1210.88 571.53 1159.70 655.31 1306.77 677.50
00003508 00000044 1107.81 172.63 389.01 636.52 1170.40 460.10 1343.23 490.02 1215.16 577.12 1165.90 654.24 1313.07 678.67
00003509 00000045 1111.10 172.65 393.76 623.25 1179.27 450.90 1350.08 482.60 1222.23 565.40 1171.50 644.06 1313.89 669.53
00003510 00000046 1113.34 161.88 393.35 623.09 1185.27 442.20 1355.20 473.27 1228.84 553.85 1174.50 633.03 1317.48 657.28
00003511 00000047 1107.39 154.62 394.74 628.48 1178.72 433.13 1350.11 464.24 1220.81 545.25 1166.82 627.43 1309.49 652.07
00003512 00000048 1099.27 157.98 395.93 624.23 1167.32 431.21 1335.45 464.76 1207.15 546.13 1157.48 628.37 1297.07 655.57
00003513 00000049 1088.87 171.72 394.24 616.88 1157.78 442.77 1330.08 475.12 1196.00 557.06 1141.53 639.88 1278.47 666.26
00003514 00000050 1087.17 177.45 390.89 610.54 1151.96 445.69 1323.12 475.24 1188.12 556.26 1137.62 641.62 1272.95 665.80
00003515 00000051 1084.80 180.76 390.51 602.09 1148.03 444.78 1314.06 474.62 1179.02 553.77 1133.97 637.54 1265.96 661.59
00003516 00000052 1082.29 182.01 391.53 596.03 1147.04 440.56 1310.31 473.33 1173.13 548.06 1130.85 632.14 1259.66 658.60
00003517 00000053 1079.98 180.23 394.76 597.57 1146.09 434.89 1310.93 471.13 1171.41 543.50 1128.09 627.24 1258.29 656.60
00003518 00000054 1079.72 180.55 396.81 599.39 1147.20 431.95 1311.87 471.63 1169.97 541.69 1126.90 626.15 1255.77 658.25
00003519 00000055 1078.72 180.15 396.47 600.51 1145.90 432.19 1310.15 473.09 1168.80 544.07 1125.11 626.28 1254.34 659.27
00003520 00000056 1075.94 177.22 395.90 596.69 1144.05 433.67 1309.37 471.31 1171.38 547.33 1126.25 625.05 1258.29 655.24
00003521 00000057 1071.14 177.12 396.23 593.58 1139.37 430.69 1304.10 469.75 1163.92 544.91 1124.39 618.30 1263.35 649.54
00003522 00000058 1062.91 175.60 399.62 592.31 1135.04 430.22 1300.99 470.13 1162.10 542.31 1120.42 615.84 1259.72 647.31
00003523 00000059 1062.52 174.83 396.36 595.06 1134.81 434.89 1295.71 474.55 1160.27 542.93 1121.99 619.75 1253.21 651.08
00003524 00000060 1062.02 175.51 395.50 595.93 1135.40 436.67 1294.06 477.06 1159.68 544.55 1122.94 621.20 1251.87 653.20
00003525 00000061 1062.90 174.04 389.96 597.58 1134.10 437.31 1293.04 477.15 1161.22 547.39 1121.07 621.69 1251.16 653.22
00003526 00000062 1061.03 174.57 386.92 599.25 1131.30 438.84 1293.60 477.29 1162.71 549.66 1118.57 623.36 1252.72 653.97
00003527 00000063 1056.93 173.31 387.11 600.15 1128.41 436.68 1289.00 473.04 1160.81 544.06 1114.25 623.00 1246.21 652.16
00003528 00000064 1048.82 165.90 387.22 603.61 1124.66 430.83 1285.32 462.78 1161.21 532.70 1110.82 618.28 1241.85 644.04
00003529 00000065 1043.25 168.73 381.32 605.76 1106.30 430.09 1278.61 457.45 1143.75 531.16 1091.94 623.19 1223.05 646.38
00003530 00000066 1033.64 161.64 389.79 604.95 1101.12 426.51 1278.02 455.22 1137.97 528.48 1084.88 613.66 1229.36 637.18
00003531 00000067 1031.77 162.60 380.86 603.59 1094.46 431.79 1267.77 452.95 1134.95 535.05 1086.38 617.22 1231.46 634.27
00003532 00000068 1027.04 173.75 375.07 599.21 1088.52 440.82 1254.75 454.39 1135.68 543.37 1089.75 630.70 1224.29 641.32
00003533 00000069 1027.00 182.25 364.93 600.02 1084.35 455.17 1241.02 471.00 1121.60 554.95 1089.85 636.05 1223.51 650.00
00003534 00000070 1025.71 185.68 364.11 594.32 1081.05 456.10 1236.96 470.52 1118.25 555.09 1088.53 636.96 1221.18 649.90
00003535 00000071 1028.15 178.81 365.92 587.48 1085.58 444.44 1241.10 459.74 1121.78 541.84 1090.21 624.50 1219.81 638.18
00003536 00000072 1029.87 168.00 374.38 587.19 1093.17 427.80 1253.64 440.24 1132.92 528.29 1094.57 618.52 1217.96 627.67
00003537 00000073 1032.21 165.75 377.40 583.56 1097.71 415.86 1258.12 431.51 1132.36 515.62 1094.29 605.20 1216.93 617.17
00003538 00000074 1035.56 164.32 377.03 579.86 1100.64 412.60 1259.28 427.17 1132.09 507.28 1096.00 599.47 1216.18 610.66
00003539 00000075 1035.90 163.92 379.11 583.27 1100.20 410.87 1260.16 429.43 1130.83 512.27 1093.71 599.23 1217.35 613.79
00003540 00000076 1036.90 164.57 377.29 587.69 1101.36 412.86 1261.31 431.83 1133.00 517.04 1096.26 603.63 1222.40 618.42
00003541 00000077 1040.06 163.99 376.91 587.57 1102.34 413.01 1263.86 432.59 1133.66 519.15 1097.19 603.57 1227.23 618.82
00003542 00000078 1043.17 162.29 377.45 587.76 1104.88 411.44 1269.02 431.59 1137.12 518.62 1098.53 603.35 1231.42 619.15
00003543 00000079 1046.09 158.58 377.45 588.71 1107.84 411.24 1271.17 431.13 1139.87 516.95 1100.70 602.94 1233.94 618.46
00003544 00000080 1048.22 162.33 379.45 585.79 1111.32 412.25 1276.71 434.70 1143.09 516.40 1100.32 603.92 1235.94 621.61
00003545 00000081 1052.05 166.66 381.98 578.45 1124.18 410.30 1284.21 443.64 1156.10 517.97 1110.53 598.64 1241.76 625.00
00003546 00000082 1053.19 172.15 387.12 580.73 1128.10 417.78 1285.79 453.66 1158.21 524.04 1112.74 604.49 1242.57 632.86
00003547 00000083 1055.92 175.51 385.32 584.50 1130.04 426.79 1289.45 460.23 1162.37 530.25 1114.94 613.33 1246.52 639.99
00003548 00000084 1054.31 178.92 385.52 583.73 1129.95 428.38 1289.80 461.78 1163.74 531.95 1114.48 614.53 1246.99 641.42
00003549 00000085 1055.22 180.83 383.87 584.70 1129.65 429.02 1288.03 461.33 1162.62 531.97 1114.39 616.34 1245.37 642.56
00003550 00000086 1053.86 181.14 382.79 586.05 1128.74 429.00 1288.00 461.51 1163.94 532.26 1113.76 616.28 1245.60 642.81
00003551 00000087 1053.01 178.98 382.88 586.91 1127.38 429.22 1285.58 461.82 1163.70 532.08 1114.60 616.09 1245.01 642.46
00003552 00000088 1052.33 175.17 383.95 580.46 1124.77 426.05 1285.62 459.89 1162.95 528.67 1112.84 610.82 1243.12 637.68
00003553 00000089 1056.25 172.77 381.90 578.08 1128.16 425.46 1289.36 458.62 1166.59 527.30 1117.88 609.11 1248.52 635.03
00003554 00000090 1064.51 169.67 376.61 586.00 1136.42 425.22 1292.77 457.12 1172.19 526.14 1127.25 612.25 1251.59 637.64
00003555 00000091 1070.54 160.73 369.42 590.18 1139.31 417.19 1304.44 446.67 1180.80 524.02 1130.90 605.46 1270.62 628.48
00003556 00000092 1069.72 168.48 368.33 576.94 1143.01 418.51 1303.86 437.44 1184.18 524.87 1135.98 607.77 1271.89 623.05
00003557 00000093 1068.33 166.79 366.39 580.52 1141.67 422.11 1304.36 438.13 1187.60 529.63 1137.66 610.48 1276.01 623.09
00003558 00000094 1066.90 159.58 368.79 594.86 1139.41 425.47 1307.39 453.33 1190.18 533.54 1135.43 611.48 1278.60 632.86
00003559 00000095 1065.14 164.05 371.27 599.56 1137.28 434.36 1306.70 464.98 1189.41 544.98 1132.87 619.54 1277.12 643.40
00003560 00000096 1066.30 176.70 369.09 592.40 1137.78 445.96 1307.48 478.03 1189.20 555.33 1132.46 625.45 1277.04 651.03
00003561 00000097 1069.06 180.32 367.67 586.50 1141.96 445.36 1310.04 479.60 1193.75 555.96 1134.16 623.51 1277.70 651.14
00003562 00000098 1073.80 173.87 365.84 586.28 1146.88 437.11 1311.32 471.16 1195.71 547.81 1136.68 617.67 1275.64 645.06
00003563 00000099 1072.94 169.47 367.11 580.08 1146.87 425.36 1311.43 463.83 1193.09 537.17 1134.69 607.33 1271.83 638.30
00003564 00000100 1071.28 167.04 366.40 577.22 1146.96 421.01 1308.13 461.29 1191.02 533.87 1132.91 604.56 1264.90 636.97
00003565 00000101 1066.35 169.29 369.30 581.48 1141.85 424.59 1304.78 462.90 1186.25 535.51 1128.92 608.92 1262.87 639.53
00003566 00000102 1063.88 174.54 367.49 589.19 1134.79 436.32 1294.13 471.38 1176.65 545.16 1124.99 621.44 1256.28 649.73
00003567 00000103 1058.58 178.26 369.00 592.58 1129.65 442.60 1290.82 475.34 1173.08 550.10 1117.42 626.11 1252.82 652.71
00003568 00000104 1056.52 182.68 369.68 582.60 1128.64 439.94 1289.28 475.45 1171.65 546.46 1113.65 621.83 1248.29 650.84
00003569 00000105 1059.60 182.31 369.50 578.84 1133.04 433.47 1293.47 471.31 1174.69 540.05 1115.65 617.08 1248.50 648.07
00003570 00000106 1061.93 180.93 370.74 574.05 1137.75 425.83 1294.24 465.96 1173.72 532.37 1117.27 610.03 1245.01 642.75
00003571 00000107 1060.64 180.83 372.15 569.32 1137.60 420.23 1291.20 462.95 1169.10 527.55 1114.68 603.08 1240.29 637.82
00003572 00000108 1060.14 182.93 373.09 563.62 1136.26 417.93 1287.72 462.12 1164.62 524.98 1112.09 600.63 1234.29 636.47
00003573 00000109 1062.58 183.24 372.11 563.94 1137.24 420.05 1289.10 462.54 1165.30 525.40 1115.40 602.74 1236.91 637.10
00003574 00000110 1069.57 184.16 364.74 565.23 1130.12 424.61 1292.17 461.65 1163.13 528.23 1108.50 612.39 1231.05 643.31
00003575 DELETE   1066.27 187.55 370.25 560.77 1143.06 426.53 1296.47 461.73 1170.79 527.63 1118.23 609.57 1238.55 639.68
00003576 00000112 1066.51 183.55 371.09 564.28 1142.88 425.64 1295.74 457.57 1169.38 523.54 1119.30 610.69 1236.81 638.02
00003577 00000113 1064.11 183.43 373.34 565.32 1139.81 423.80 1293.85 452.44 1168.22 519.71 1118.14 611.15 1236.39 635.82
CROP_BBOX: 728 0 1709 961
