Video ID: 	4BBJA8OB3RY
H: 	1080
W: 	1920
FPS: 	25.0

FRAME INDEX X0 Y0 W H [Landmarks (5 Points)]

00010857 00000000 582.66 186.58 397.47 557.97 676.16 443.63 827.60 413.23 758.37 525.52 729.03 617.93 854.41 592.53
00010858 DELETE   583.03 181.19 398.16 562.23 676.00 439.46 827.77 409.86 757.64 519.43 728.63 614.79 855.29 589.96
00010859 00000002 584.59 171.88 398.83 566.09 679.18 433.32 830.58 405.82 761.66 518.40 732.85 609.06 859.00 585.78
00010860 00000003 584.71 172.35 402.42 562.42 682.40 430.67 833.78 402.16 766.04 513.10 736.53 604.93 862.99 580.90
00010861 00000004 584.20 173.70 404.28 558.88 683.69 428.44 836.33 398.53 769.53 509.19 737.42 602.42 865.04 577.47
00010862 00000005 587.08 176.58 402.25 541.74 683.45 423.99 837.78 392.89 771.65 505.54 738.28 596.63 865.97 570.37
00010863 00000006 583.21 178.43 404.41 535.40 685.61 420.37 836.50 389.26 774.67 500.05 740.96 591.08 865.68 564.67
00010864 00000007 585.61 176.53 402.39 530.50 686.68 416.23 837.32 383.77 775.90 496.88 744.99 587.87 868.03 560.25
00010865 00000008 586.60 172.15 401.80 529.46 686.91 413.89 840.50 380.48 778.40 493.53 748.28 590.13 868.86 561.54
00010866 00000009 586.85 175.42 403.58 541.47 692.59 410.49 845.41 379.80 784.61 492.20 754.55 595.40 870.51 569.62
00010867 00000010 587.41 171.92 407.52 536.80 693.31 409.81 851.93 377.53 789.03 489.10 756.14 591.48 879.52 563.48
00010868 00000011 586.92 174.37 412.09 528.55 692.42 410.85 855.33 373.62 791.96 486.31 759.02 589.24 887.47 556.40
00010869 00000012 589.39 174.13 408.98 525.69 696.17 410.63 853.99 369.74 796.10 480.58 763.74 584.16 890.92 548.67
00010870 00000013 594.50 169.40 404.64 521.02 697.07 408.24 855.69 363.85 797.27 472.78 766.78 580.97 893.72 542.65
00010871 00000014 595.27 170.31 403.75 520.08 700.17 406.32 860.04 362.03 802.48 466.37 767.89 577.70 897.99 539.36
00010872 00000015 594.71 169.64 405.58 525.72 700.57 406.62 861.15 362.28 803.87 465.25 769.16 579.39 900.48 541.23
00010873 00000016 595.16 164.75 403.88 529.11 699.68 406.31 856.69 361.44 802.78 465.55 770.38 578.98 897.17 540.54
00010874 00000017 595.47 165.25 401.75 521.83 696.48 406.33 851.71 359.73 797.57 466.80 766.18 574.78 893.46 534.44
00010875 00000018 588.92 167.40 406.64 520.91 691.67 407.55 846.54 357.01 792.72 466.89 760.46 573.97 889.29 530.09
00010876 00000019 586.27 169.60 408.15 521.85 689.56 408.26 845.53 358.17 790.41 468.98 757.45 574.94 887.84 531.35
00010877 00000020 583.23 168.52 409.32 526.53 688.81 407.98 844.26 359.30 789.55 469.14 757.55 577.30 885.75 535.13
00010878 00000021 581.89 168.13 411.15 526.92 688.80 409.40 844.51 361.97 789.76 470.55 758.68 579.22 885.33 538.09
00010879 00000022 580.78 166.04 411.29 530.63 688.92 411.64 844.72 367.48 788.37 470.95 755.46 577.77 884.18 539.18
00010880 00000023 579.35 161.06 413.70 535.48 686.00 408.46 842.51 364.10 785.40 471.23 753.98 576.55 883.91 537.45
00010881 00000024 577.87 162.74 415.40 536.16 685.67 410.35 842.26 364.98 784.94 471.95 754.17 578.48 884.45 538.55
00010882 00000025 577.68 165.45 415.52 536.67 685.92 410.09 842.88 365.33 785.74 470.83 753.73 578.55 885.28 539.21
00010883 00000026 576.88 167.79 416.46 535.48 685.67 412.10 842.55 365.90 784.98 473.67 753.77 579.76 885.39 539.23
00010884 00000027 579.43 172.03 412.64 528.61 686.01 411.76 844.75 362.09 788.16 472.54 756.44 582.40 887.75 539.37
00010885 00000028 579.55 177.17 413.40 522.11 688.01 409.29 846.00 359.58 790.69 472.28 758.82 581.23 889.04 538.36
00010886 00000029 579.15 180.19 414.39 522.87 688.19 409.21 845.84 359.17 790.66 471.93 758.28 580.77 890.16 537.65
00010887 00000030 579.82 180.37 414.38 522.41 688.25 408.36 845.96 359.11 790.71 472.96 757.96 580.34 890.27 537.82
00010888 00000031 577.75 182.05 416.84 523.99 688.70 408.75 845.00 359.70 790.24 475.19 758.11 580.70 889.66 538.43
00010889 00000032 576.70 179.27 417.34 526.13 686.81 410.99 843.24 361.77 788.20 478.15 755.38 580.64 888.87 538.07
00010890 00000033 578.02 175.53 414.83 525.21 684.92 412.86 841.91 363.99 785.66 482.18 753.82 581.70 886.96 539.40
00010891 00000034 578.86 176.34 412.10 524.20 684.39 414.95 841.28 366.20 785.42 483.40 751.35 581.39 886.45 539.41
00010892 00000035 577.23 181.62 412.79 520.76 684.42 417.41 840.77 367.39 785.97 486.35 751.52 583.98 885.41 541.15
00010893 00000036 576.07 186.34 412.64 517.76 684.67 419.11 841.18 370.85 786.16 490.49 751.60 587.11 883.24 545.91
00010894 00000037 575.51 185.19 412.30 517.01 685.12 419.41 841.59 372.20 786.77 492.49 751.51 586.33 882.48 545.97
00010895 00000038 575.45 188.87 413.39 513.96 685.20 420.43 842.45 371.94 787.62 494.18 751.53 586.41 884.32 545.19
00010896 00000039 575.59 186.52 412.82 513.83 684.87 419.54 842.81 371.26 787.75 493.93 752.41 585.82 885.01 544.53
00010897 00000040 575.59 187.68 413.10 512.72 685.00 419.50 844.03 369.66 789.23 493.63 751.84 584.70 887.07 542.24
00010898 00000041 575.71 189.09 412.53 511.47 684.81 419.30 843.81 369.50 788.99 493.72 751.77 584.81 886.55 542.48
00010899 00000042 576.16 186.48 411.49 514.19 684.13 418.78 843.70 369.72 787.90 493.48 750.21 584.32 886.76 542.54
00010900 00000043 575.38 188.13 412.01 511.29 683.75 419.10 842.82 369.68 787.42 493.24 749.59 584.12 885.27 542.14
00010901 00000044 574.07 191.03 413.06 510.37 683.56 419.24 842.70 369.88 787.20 494.24 749.00 584.30 885.17 542.56
00010902 00000045 574.74 191.34 412.88 510.59 683.59 419.29 842.73 370.07 786.93 494.30 749.51 585.08 884.95 543.47
00010903 00000046 574.87 191.62 412.17 509.95 683.67 419.24 842.71 370.62 786.65 494.95 748.81 585.12 884.15 544.01
00010904 00000047 575.38 191.31 411.70 511.72 683.86 418.97 842.44 371.04 786.50 495.09 748.56 585.39 883.65 544.94
00010905 00000048 575.31 191.63 411.62 511.12 684.37 419.62 842.19 371.50 786.95 494.40 749.58 586.07 882.77 545.43
00010906 00000049 575.75 195.46 411.03 508.11 685.05 419.72 842.93 371.73 787.74 495.77 749.85 586.50 882.63 546.22
00010907 00000050 575.90 195.90 410.46 507.96 685.59 420.15 842.90 372.19 788.14 495.89 750.17 586.68 882.17 546.46
00010908 00000051 576.02 194.23 410.81 508.92 685.26 420.41 842.88 371.94 788.16 496.26 750.57 587.17 882.36 546.40
00010909 00000052 576.45 194.64 410.97 508.60 685.55 419.99 843.84 372.04 788.42 496.46 750.59 587.26 882.74 546.93
00010910 00000053 576.29 194.32 412.64 508.56 685.80 419.89 845.17 372.58 788.94 496.33 751.34 587.32 883.60 547.36
00010911 00000054 577.15 196.88 411.38 504.91 686.68 419.60 846.82 372.32 790.08 497.05 751.74 587.41 883.43 547.59
00010912 00000055 578.19 196.43 410.76 506.19 687.52 419.80 847.54 372.07 791.45 496.49 751.85 587.07 884.76 546.95
00010913 00000056 578.49 195.56 411.06 506.51 687.51 419.23 847.53 371.18 791.69 496.79 752.58 587.03 885.27 546.56
00010914 00000057 578.62 195.10 410.75 507.18 687.66 419.30 847.70 371.27 792.30 496.14 752.31 586.41 885.97 545.90
00010915 00000058 579.16 195.83 410.61 507.92 688.39 418.86 847.85 370.82 792.97 496.66 752.32 586.53 886.14 546.23
00010916 00000059 579.46 194.06 410.12 509.06 688.52 418.21 848.27 370.26 793.09 496.01 752.51 586.52 886.49 546.15
00010917 00000060 579.43 191.93 410.83 511.76 687.84 417.43 848.45 369.68 792.85 495.44 752.21 586.97 887.28 546.67
00010918 00000061 580.30 189.37 410.06 513.75 687.52 416.37 847.68 369.68 791.24 494.53 752.42 587.58 885.72 547.97
00010919 00000062 579.69 190.34 410.79 514.10 687.94 416.28 847.64 370.21 791.17 494.36 753.31 588.65 885.10 549.51
00010920 00000063 579.38 192.74 410.75 512.20 688.42 416.51 848.21 369.97 792.06 495.81 754.07 589.75 884.57 550.39
00010921 00000064 578.89 189.55 411.83 516.33 688.03 419.14 845.97 372.82 791.22 495.05 754.89 591.28 883.70 551.91
00010922 00000065 579.13 185.00 411.12 523.46 688.15 422.52 843.98 376.86 790.75 494.81 755.22 592.90 883.00 554.04
00010923 00000066 579.54 190.56 411.85 521.04 689.89 424.02 846.65 379.01 792.59 495.86 754.96 594.43 883.12 556.38
00010924 00000067 580.38 188.44 411.61 525.91 690.27 424.34 847.14 380.24 792.72 495.97 755.06 595.05 883.68 557.76
00010925 00000068 581.03 191.41 412.17 526.15 691.27 424.76 848.92 381.04 793.59 496.26 755.18 596.98 884.04 560.14
00010926 00000069 581.27 193.02 412.72 527.54 692.19 424.23 850.29 381.10 794.85 496.58 755.50 597.75 884.52 561.49
00010927 00000070 582.21 191.15 413.03 531.99 692.85 422.56 851.67 380.63 795.26 496.11 756.10 598.23 885.59 562.88
00010928 00000071 583.41 192.18 414.57 537.56 694.24 421.29 853.08 380.56 795.88 496.58 756.01 598.57 886.54 564.26
00010929 00000072 589.41 182.07 413.66 547.68 696.15 416.45 856.48 378.54 792.21 488.36 758.17 594.79 894.29 563.92
00010930 00000073 590.68 182.97 412.70 548.42 696.87 416.60 857.28 378.89 792.81 487.97 759.57 595.97 895.02 565.26
00010931 00000074 591.50 182.38 412.93 549.36 697.02 415.82 858.30 378.25 792.56 487.26 759.50 595.63 895.89 564.98
00010932 00000075 592.84 181.62 410.74 548.33 697.66 414.67 859.00 377.62 793.08 486.97 759.32 594.42 895.02 564.32
00010933 00000076 594.93 181.03 409.10 541.39 699.17 414.26 860.18 377.43 794.15 487.37 760.06 591.80 894.27 562.17
00010934 00000077 594.56 180.54 409.84 539.73 699.32 413.51 860.37 376.01 794.87 486.83 760.24 590.59 894.79 560.44
00010935 00000078 593.25 181.38 410.22 549.60 698.67 410.43 860.35 374.06 794.00 481.39 761.74 595.67 894.64 566.31
00010936 00000079 592.12 179.56 410.40 555.60 696.62 410.60 859.29 373.62 791.80 481.85 761.41 600.74 893.81 570.95
00010937 00000080 593.82 181.36 410.09 548.13 696.49 410.52 859.76 373.43 790.71 479.71 758.84 594.73 893.88 564.71
00010938 00000081 587.32 184.33 408.62 520.29 692.97 413.71 850.53 370.89 791.72 482.86 759.00 586.37 887.55 549.71
00010939 00000082 587.60 178.90 408.51 516.28 691.54 410.67 847.50 366.68 789.67 476.81 758.68 580.54 887.03 542.62
00010940 00000083 589.01 177.54 406.56 515.11 692.39 403.97 845.72 359.22 788.45 468.78 758.63 574.56 885.41 535.98
00010941 00000084 590.21 172.91 406.24 516.17 691.00 401.01 843.83 354.66 786.78 462.55 756.51 569.42 884.56 529.54
00010942 00000085 592.63 176.89 403.86 509.31 694.05 397.77 847.73 355.55 787.39 456.14 753.98 564.39 881.56 528.06
00010943 00000086 593.09 168.56 401.46 510.69 697.01 389.93 850.63 349.87 791.53 447.61 753.63 557.50 879.58 523.22
00010944 00000087 594.32 163.73 401.24 513.59 697.57 385.26 851.88 343.24 794.92 441.26 755.58 554.69 882.45 518.76
00010945 00000088 597.73 165.18 398.43 511.96 699.81 382.85 852.73 337.54 798.23 432.63 760.42 554.87 885.64 516.83
00010946 00000089 595.69 145.68 402.41 537.61 702.43 369.12 865.10 336.72 797.87 438.66 765.31 553.00 893.17 527.03
00010947 00000090 597.26 147.08 404.10 534.36 702.89 370.01 869.62 336.27 801.31 443.83 768.06 554.26 900.63 526.61
00010948 00000091 597.55 153.40 404.49 526.50 703.29 373.59 872.40 339.83 802.55 449.58 767.83 557.11 903.09 529.10
00010949 00000092 602.91 168.06 394.28 512.97 701.95 389.85 863.47 345.55 804.83 452.10 766.01 570.10 896.78 532.72
00010950 00000093 603.39 171.18 403.19 527.72 709.31 394.99 871.66 357.26 809.33 462.23 768.57 576.56 900.80 546.82
00010951 00000094 601.27 181.63 407.63 533.95 710.19 401.96 873.28 364.68 809.51 472.18 776.54 590.48 907.06 560.96
00010952 00000095 601.98 181.31 407.85 548.67 710.64 406.68 873.63 368.94 811.18 483.75 778.79 598.23 914.36 567.20
00010953 00000096 599.68 189.48 408.56 540.53 709.90 410.95 876.63 372.48 811.78 489.73 779.46 601.91 914.68 570.35
00010954 00000097 601.19 187.83 408.78 538.31 710.20 411.46 877.65 374.21 811.44 490.00 777.68 600.71 912.52 570.44
00010955 00000098 601.85 185.79 406.65 536.17 711.66 407.09 876.93 372.37 811.79 486.15 777.30 596.62 907.16 569.00
00010956 00000099 601.80 181.68 408.29 538.38 711.29 403.05 875.89 367.78 811.18 479.44 776.45 593.58 905.32 565.70
00010957 00000100 605.74 180.69 403.68 528.00 713.06 399.00 876.48 364.72 811.35 472.04 777.21 588.80 902.07 561.97
00010958 00000101 607.16 182.36 403.17 516.52 714.29 394.39 878.30 359.21 814.29 465.98 775.31 576.82 903.18 549.20
00010959 00000102 608.20 180.31 404.19 513.97 715.89 391.15 881.06 356.51 816.96 461.71 774.64 571.09 904.80 543.51
00010960 00000103 606.77 176.21 407.01 519.40 716.04 386.84 880.30 353.11 817.72 457.44 773.94 565.72 905.87 538.57
00010961 00000104 607.23 173.09 407.32 521.67 717.02 385.63 879.89 352.72 818.49 457.65 773.22 565.74 903.72 539.24
00010962 00000105 608.67 176.32 407.99 521.28 719.11 382.58 882.66 351.01 820.39 456.99 776.37 566.31 905.89 540.77
00010963 00000106 610.96 177.06 404.30 523.50 720.50 378.70 886.92 348.59 822.25 452.85 781.69 569.24 906.87 545.14
00010964 00000107 612.12 176.61 403.64 519.53 722.94 378.14 889.61 347.00 824.48 450.51 781.76 567.81 909.36 542.76
00010965 00000108 613.05 174.87 401.67 516.39 722.16 378.77 889.40 345.28 822.91 449.21 778.38 566.50 910.43 539.36
00010966 00000109 610.28 178.64 401.70 512.24 718.54 376.87 885.89 344.69 818.91 449.33 774.49 561.83 909.04 535.54
00010967 00000110 607.64 176.54 402.70 516.93 714.63 378.73 880.42 344.76 814.94 449.99 771.29 563.92 907.36 536.37
00010968 00000111 605.69 178.07 402.25 519.31 710.22 386.25 875.91 349.92 811.84 455.90 769.27 570.88 907.09 541.73
00010969 00000112 603.59 178.49 406.96 530.86 709.33 394.95 873.48 357.38 809.93 461.74 771.98 578.00 908.77 547.84
00010970 00000113 600.81 185.68 408.23 532.99 707.90 402.59 871.24 362.98 808.38 470.92 774.88 585.96 912.24 553.83
00010971 00000114 596.98 188.69 411.90 538.95 706.11 412.86 871.18 371.65 808.55 487.13 774.95 598.87 911.97 564.87
00010972 00000115 596.97 191.17 411.46 539.82 705.64 426.07 870.35 383.94 807.21 498.83 776.64 607.01 914.45 571.71
00010973 00000116 594.92 195.22 413.15 536.13 703.56 434.13 867.59 392.07 802.58 505.38 773.58 610.16 909.51 574.76
00010974 00000117 593.65 203.30 415.20 528.52 701.91 438.09 866.35 397.72 799.73 511.73 770.94 613.73 904.25 579.78
00010975 00000118 595.05 219.08 411.95 513.68 702.52 437.15 868.35 402.40 799.82 523.23 770.00 615.18 901.00 585.52
00010976 00000119 594.57 223.15 410.61 511.74 701.81 440.50 868.70 405.73 800.12 527.45 768.79 617.98 900.40 588.33
00010977 00000120 594.42 227.65 410.64 508.99 702.34 442.37 870.46 407.82 802.44 530.41 769.41 618.97 902.06 589.34
00010978 00000121 594.96 228.30 411.21 510.08 702.62 442.42 871.49 409.26 802.57 532.83 769.94 621.43 901.93 593.00
00010979 00000122 594.85 232.21 409.50 509.55 702.91 442.68 873.00 411.22 802.92 535.30 768.60 623.43 900.96 596.55
00010980 00000123 595.01 228.45 411.28 522.30 705.48 442.50 872.86 413.58 803.81 534.07 765.86 621.52 901.28 596.83
00010981 00000124 596.83 231.65 410.32 516.28 705.73 442.13 874.30 413.22 803.97 535.49 765.97 622.13 901.66 597.43
00010982 00000125 597.39 227.03 411.89 518.45 704.43 442.06 875.36 411.41 803.33 534.56 768.35 624.20 903.84 598.11
00010983 00000126 596.93 224.58 412.21 521.68 705.16 439.76 876.74 410.46 804.72 534.74 768.53 624.59 903.44 599.73
00010984 00000127 597.09 221.81 412.30 525.26 705.57 441.14 876.61 411.12 805.39 534.86 768.42 624.00 905.14 598.59
00010985 00000128 598.21 228.53 410.00 518.46 704.71 442.33 876.64 412.82 804.25 537.69 766.99 625.12 904.48 600.03
00010986 00000129 598.67 226.77 411.07 523.26 704.95 443.67 875.51 415.07 804.06 539.26 766.54 624.33 905.41 599.57
00010987 00000130 596.63 231.35 409.89 518.73 703.64 452.02 873.45 421.17 803.66 542.22 763.83 624.18 904.49 597.47
00010988 00000131 595.40 229.57 407.28 526.13 702.32 460.09 873.12 429.27 802.25 541.51 762.39 627.99 903.55 601.31
00010989 00000132 592.16 237.08 409.53 515.65 694.46 467.08 858.47 425.83 796.33 547.82 755.82 637.13 892.67 601.02
00010990 DELETE   589.50 234.51 410.83 520.50 692.21 467.37 855.18 426.67 792.27 549.63 754.80 640.27 887.92 604.37
00010991 DELETE   588.26 238.45 409.84 516.97 690.62 465.10 849.39 424.17 788.33 548.40 751.69 639.02 881.39 603.11
00010992 00000135 586.31 234.18 408.83 523.04 688.64 462.59 844.78 421.87 785.08 544.11 748.75 636.45 878.60 600.73
00010993 00000136 586.67 232.31 406.59 520.35 689.87 456.53 844.95 418.50 785.40 537.63 747.55 630.55 875.85 597.13
00010994 00000137 586.64 230.96 405.68 515.38 690.21 454.83 844.18 419.60 783.13 534.82 743.78 625.64 870.22 594.51
00010995 DELETE   587.01 215.29 406.09 524.63 690.23 445.01 852.41 418.91 778.07 529.65 745.23 615.42 875.74 593.60
00010996 00000139 587.88 222.05 399.95 517.20 688.72 447.10 843.66 412.13 782.93 527.55 747.16 626.95 866.42 596.00
00010997 00000140 586.14 217.16 403.46 529.32 687.61 445.60 842.78 408.44 782.70 522.28 747.72 627.18 868.67 594.36
00010998 00000141 589.21 197.92 404.27 541.61 688.47 429.21 849.29 401.62 775.18 513.81 749.56 612.11 876.11 589.47
00010999 00000142 591.47 198.03 404.90 535.81 689.71 424.45 850.42 394.46 775.32 508.15 748.32 604.36 877.21 579.58
00011000 00000143 589.00 201.43 407.03 530.36 692.26 428.24 846.69 394.35 782.26 511.98 747.43 604.55 871.87 576.66
00011001 00000144 588.89 202.44 406.37 530.36 692.63 427.76 846.25 394.40 782.05 511.14 746.84 603.42 871.60 575.88
00011002 00000145 587.25 205.06 405.13 525.68 691.35 431.32 843.75 397.01 780.43 515.28 746.32 605.27 868.96 576.95
00011003 00000146 588.43 209.95 405.12 522.67 690.60 435.78 843.16 400.01 779.68 519.54 745.27 607.03 869.16 577.26
00011004 00000147 588.17 208.07 406.20 525.14 690.34 437.44 842.25 402.73 779.01 519.85 744.82 607.88 868.55 578.88
00011005 00000148 587.39 210.94 406.95 522.87 689.89 437.45 843.34 402.85 779.68 520.77 744.85 608.60 869.42 579.62
00011006 00000149 586.73 210.73 405.57 518.37 689.22 437.73 844.11 400.69 781.36 521.14 746.43 609.06 870.75 578.28
00011007 00000150 586.40 211.14 404.66 517.14 689.85 436.24 844.64 399.20 782.27 519.56 748.73 610.85 870.01 580.40
00011008 00000151 586.23 206.75 402.78 524.05 690.46 433.38 846.01 395.97 785.08 517.68 751.50 614.01 871.29 583.58
00011009 00000152 586.36 207.04 402.63 526.26 691.44 433.45 847.12 395.08 786.89 517.66 753.56 615.22 873.47 583.83
00011010 00000153 590.30 200.76 402.58 529.39 692.88 421.71 857.55 393.28 783.77 506.60 753.19 606.37 878.31 583.18
00011011 00000154 592.70 200.78 402.22 525.34 694.38 420.50 858.58 390.31 785.54 503.55 755.17 604.21 881.41 579.50
00011012 00000155 587.95 202.81 406.43 523.33 695.50 426.61 852.73 389.39 791.00 510.35 755.75 605.89 878.47 575.23
00011013 00000156 589.46 200.91 407.40 525.86 695.69 424.82 852.08 389.55 788.85 507.54 751.69 600.09 878.17 570.71
00011014 00000157 588.34 200.13 407.04 516.26 694.63 424.37 850.83 387.04 789.06 505.43 753.27 596.97 879.08 565.67
00011015 00000158 589.07 201.42 407.00 514.00 694.83 423.54 850.87 385.67 789.33 503.71 750.37 591.41 881.08 559.76
00011016 00000159 587.89 202.86 407.15 510.24 694.15 423.64 849.79 385.47 788.96 503.19 749.50 590.59 879.39 558.73
00011017 00000160 585.53 200.50 406.97 512.63 692.76 423.38 847.62 385.95 787.66 502.70 747.54 589.34 878.16 558.05
00011018 00000161 584.77 201.17 405.48 511.34 691.51 423.66 846.59 385.64 787.11 502.84 746.67 590.18 877.39 558.42
00011019 00000162 583.02 200.82 404.97 511.91 690.02 424.11 844.55 385.38 785.58 502.39 744.70 590.37 875.57 558.03
00011020 00000163 581.68 201.39 406.48 512.84 688.58 424.43 843.20 385.72 783.46 502.62 743.75 592.13 873.57 559.70
00011021 00000164 581.66 204.33 405.44 509.73 687.44 426.15 840.90 386.42 781.84 503.27 742.85 593.11 871.54 559.78
00011022 00000165 580.18 205.86 406.96 508.88 686.31 427.03 840.85 388.00 780.42 503.60 741.77 595.19 870.05 562.54
00011023 00000166 579.76 205.23 406.20 508.98 685.19 427.55 839.44 388.09 778.95 504.82 741.61 596.63 868.92 563.73
00011024 00000167 580.17 200.85 406.30 518.38 685.60 427.91 838.29 389.52 779.09 507.14 742.53 598.53 868.79 566.58
00011025 00000168 580.35 204.71 406.13 517.26 686.29 427.95 839.51 390.54 779.25 508.10 742.37 599.23 868.99 568.07
00011026 00000169 578.98 205.57 408.18 519.78 686.33 428.10 839.12 391.67 778.50 508.02 741.84 599.62 868.15 569.08
00011027 00000170 579.45 204.69 407.31 521.62 686.68 428.62 838.07 392.23 777.88 507.52 741.62 598.78 868.08 568.27
