Video ID: 	8GXyPjCGmjw
H: 	1080
W: 	1920
FPS: 	23.976023976023978

FRAME INDEX X0 Y0 W H [Landmarks (5 Points)]

00007812 00000000 899.64 85.99 337.39 534.06 944.46 285.17 1078.93 312.00 944.53 380.95 929.17 485.66 1024.15 507.64
00007813 00000001 894.93 85.72 339.90 533.62 943.87 283.74 1077.57 311.10 940.14 378.94 926.14 484.07 1020.42 506.59
00007814 00000002 893.26 85.47 340.13 534.11 943.70 281.94 1077.00 309.98 938.56 377.45 925.07 482.79 1019.31 505.83
00007815 00000003 891.19 86.43 341.09 530.31 943.12 282.90 1075.70 310.58 937.20 376.49 923.15 481.51 1017.27 504.33
00007816 DELETE   887.79 86.94 343.76 529.22 942.69 282.58 1074.44 311.16 935.50 375.34 921.60 479.40 1016.61 502.88
00007817 00000005 888.03 87.05 343.68 530.29 942.13 282.15 1074.68 310.97 934.80 375.61 921.23 480.20 1016.69 503.80
00007818 DELETE   889.96 88.26 341.96 529.93 942.31 282.14 1075.18 310.58 936.31 376.03 922.75 481.45 1017.76 504.80
00007819 DELETE   892.39 90.72 341.59 529.93 942.60 283.86 1076.22 310.86 938.28 377.78 924.57 484.51 1020.36 506.61
00007820 00000008 893.92 89.56 340.06 531.57 942.64 283.78 1076.67 310.85 939.23 378.21 925.38 486.11 1020.47 508.28
00007821 00000009 895.50 90.78 339.96 531.52 942.47 286.91 1077.19 311.85 940.57 379.43 927.06 488.39 1022.48 508.77
00007822 00000010 897.52 90.25 339.60 531.61 942.98 288.75 1078.40 312.92 943.07 378.96 927.51 488.22 1024.19 508.12
00007823 00000011 897.30 90.33 339.95 533.17 943.20 289.94 1078.85 312.91 943.35 379.18 927.89 489.31 1024.72 508.28
00007824 00000012 899.81 87.49 338.10 539.00 937.40 293.01 1072.25 308.58 939.16 378.25 929.19 495.00 1026.30 511.17
00007825 00000013 900.41 87.50 338.42 538.03 938.37 293.54 1072.91 309.75 940.66 380.13 930.43 494.36 1027.88 511.12
00007826 00000014 900.72 88.77 337.52 536.18 939.29 293.78 1074.47 310.91 942.75 380.96 930.65 494.05 1028.43 511.53
00007827 00000015 902.54 88.40 336.83 534.89 939.95 294.25 1075.05 312.15 943.32 381.30 931.13 492.75 1029.75 510.86
00007828 00000016 903.47 87.96 336.74 535.70 941.46 294.72 1076.21 312.29 946.14 381.95 934.11 492.87 1032.56 510.77
00007829 00000017 905.33 88.03 335.79 536.09 943.05 295.89 1077.09 311.35 948.10 381.39 936.68 493.75 1034.75 510.05
00007830 00000018 905.81 86.43 338.27 539.42 945.62 297.14 1080.13 311.85 950.24 383.58 939.50 495.35 1038.01 510.95
00007831 00000019 905.37 85.92 339.44 540.34 949.41 294.99 1084.15 313.20 953.53 383.94 941.10 493.44 1039.20 511.65
00007832 00000020 908.05 88.55 339.95 536.81 952.89 295.33 1089.88 315.07 957.65 385.78 943.53 492.54 1044.49 511.97
00007833 00000021 909.72 91.54 339.94 534.66 954.46 296.34 1091.83 315.66 959.87 387.24 946.60 493.23 1048.23 512.23
00007834 00000022 908.91 89.04 343.98 538.10 955.34 294.12 1094.12 315.50 959.93 387.28 947.04 491.78 1049.89 512.26
00007835 00000023 910.14 90.78 343.82 537.04 957.03 293.58 1096.05 316.01 962.01 388.02 948.14 491.88 1051.06 513.26
00007836 00000024 909.38 89.65 345.49 536.24 957.08 293.17 1097.86 315.81 963.16 388.16 948.60 492.03 1052.27 513.46
00007837 00000025 910.42 91.18 344.38 534.28 959.03 292.71 1097.88 316.84 964.00 388.39 949.90 490.56 1052.36 513.04
00007838 00000026 910.32 91.56 345.26 533.18 959.58 294.52 1099.01 317.51 964.92 387.71 950.73 491.22 1053.08 512.77
00007839 00000027 910.10 90.40 344.08 534.53 955.49 298.04 1098.53 316.97 963.53 388.83 949.81 495.66 1053.44 513.85
00007840 00000028 908.71 89.04 345.69 540.69 953.51 300.67 1098.08 317.90 962.71 391.42 949.64 498.18 1055.94 514.78
00007841 00000029 906.61 85.76 346.97 544.90 951.46 300.72 1096.56 317.72 962.05 392.55 946.76 498.47 1054.04 515.06
00007842 00000030 909.41 85.12 341.43 544.72 949.74 300.56 1093.42 317.10 958.93 392.32 944.27 498.80 1051.65 515.25
00007843 00000031 907.22 86.59 341.03 542.53 947.65 302.24 1089.32 317.05 957.45 392.31 943.01 498.94 1048.30 514.20
00007844 00000032 905.25 86.01 342.13 532.69 950.86 300.18 1090.19 322.32 960.89 385.50 940.98 492.90 1040.56 510.27
00007845 00000033 904.51 87.09 342.61 528.97 949.60 299.64 1087.97 321.23 959.59 385.94 940.74 492.51 1037.67 509.54
00007846 00000034 903.59 85.84 342.59 529.67 948.28 298.93 1087.01 320.95 959.59 386.43 939.79 492.55 1036.57 510.05
00007847 00000035 903.75 88.44 341.34 530.11 949.05 298.64 1085.49 320.24 958.91 387.05 940.75 493.47 1035.69 510.59
00007848 00000036 901.73 88.13 342.92 532.93 948.05 298.77 1085.10 319.67 956.91 386.51 938.44 495.10 1034.01 511.72
00007849 00000037 902.86 85.07 339.21 543.96 940.93 302.08 1080.92 314.65 950.51 389.12 937.83 503.28 1037.00 516.87
00007850 00000038 902.50 86.03 338.03 543.37 939.72 302.59 1079.81 314.67 949.22 388.27 936.76 503.92 1035.65 517.05
00007851 00000039 901.85 86.93 337.56 539.97 939.89 303.63 1078.52 315.12 949.84 388.24 936.40 503.28 1034.31 516.13
00007852 00000040 901.02 88.22 337.77 537.48 940.56 303.07 1078.70 315.44 950.39 387.10 935.75 501.12 1033.80 514.76
00007853 00000041 901.96 87.86 338.27 538.03 939.58 305.52 1080.03 315.08 951.31 389.41 939.16 503.92 1038.53 514.98
00007854 00000042 901.13 87.37 339.98 539.55 939.34 305.56 1080.95 315.29 952.35 390.69 939.03 503.47 1041.23 514.63
00007855 00000043 902.50 88.24 338.96 540.41 939.91 306.38 1081.46 315.60 953.58 391.61 939.87 503.62 1043.34 514.46
00007856 00000044 903.82 89.36 339.15 541.45 941.26 306.72 1080.38 316.49 951.80 391.55 941.33 503.60 1042.97 514.78
00007857 00000045 904.68 89.01 338.63 542.49 941.56 307.55 1080.88 316.61 951.34 391.02 941.72 505.04 1043.23 515.66
00007858 00000046 906.45 88.59 337.14 543.74 941.62 306.52 1081.47 316.39 950.30 391.45 941.05 506.34 1042.55 517.56
00007859 00000047 907.29 90.42 336.29 541.96 942.10 307.21 1081.05 317.19 950.66 392.07 941.60 506.78 1042.15 518.09
00007860 00000048 907.11 90.89 335.75 542.74 941.79 309.78 1080.59 319.95 950.70 394.93 940.20 508.14 1040.83 519.76
00007861 00000049 908.62 90.97 332.88 543.57 943.66 316.34 1081.19 322.83 953.29 395.95 941.64 511.18 1041.63 519.97
00007862 00000050 908.00 93.16 332.57 541.26 943.86 316.90 1079.70 325.04 952.63 396.69 941.28 510.95 1038.96 521.15
00007863 00000051 907.21 93.86 331.88 540.90 943.25 317.59 1079.22 325.24 953.52 397.57 940.84 511.25 1039.52 521.16
00007864 00000052 906.07 93.44 332.63 541.63 941.83 317.88 1079.76 325.11 953.61 398.08 940.09 511.69 1039.92 521.24
00007865 00000053 906.14 93.77 333.84 542.08 941.82 320.03 1081.84 326.42 953.36 397.99 939.73 513.18 1041.85 522.03
00007866 00000054 905.48 94.10 334.97 541.84 942.14 319.31 1083.09 328.25 953.86 400.03 939.70 512.49 1041.98 523.30
00007867 00000055 905.10 94.59 338.39 541.58 943.94 321.02 1084.85 330.16 956.46 402.31 942.00 513.24 1043.91 524.24
00007868 00000056 904.15 94.60 340.78 542.13 944.82 321.65 1086.55 333.03 957.28 405.03 942.76 512.88 1045.26 525.43
00007869 00000057 904.43 98.36 341.19 538.29 946.47 324.55 1088.58 336.08 960.62 407.43 944.05 513.61 1046.99 526.35
00007870 00000058 905.06 100.93 341.38 535.98 946.55 325.84 1091.88 337.84 964.27 410.55 944.21 516.26 1050.70 529.38
00007871 DELETE   905.33 100.20 341.64 537.93 947.67 327.64 1094.04 337.98 967.00 412.01 946.68 518.63 1054.57 530.32
00007872 00000060 904.85 100.51 343.80 541.90 949.20 330.34 1098.91 337.80 971.03 412.18 948.47 523.91 1058.95 533.22
00007873 00000061 905.69 101.18 343.98 542.39 951.26 330.33 1101.02 338.76 973.21 413.73 950.40 524.51 1061.55 534.38
00007874 00000062 908.38 103.00 343.11 539.12 953.59 330.57 1103.50 339.66 975.29 414.84 951.99 524.18 1063.83 534.59
00007875 00000063 908.99 103.98 342.47 539.60 963.20 332.54 1105.09 344.79 980.05 414.42 958.64 521.99 1058.91 532.52
00007876 00000064 908.21 106.66 341.56 535.32 964.89 332.01 1104.04 345.83 978.35 414.07 957.15 518.25 1055.67 530.10
00007877 00000065 907.81 106.11 341.19 535.43 965.03 332.95 1102.86 346.96 977.25 414.45 957.62 519.66 1054.22 531.52
00007878 00000066 906.69 104.41 341.38 537.35 964.45 333.45 1104.27 347.18 978.14 415.46 957.15 520.43 1055.78 532.09
00007879 00000067 906.17 102.80 343.39 539.45 963.72 334.26 1104.02 347.20 978.22 416.52 957.96 519.81 1056.97 530.83
00007880 00000068 907.66 101.77 341.97 541.09 963.16 335.50 1105.59 348.82 981.58 419.62 957.59 523.33 1058.81 534.75
00007881 00000069 906.31 101.51 343.22 544.40 963.40 335.69 1106.43 349.53 982.61 420.38 957.80 524.03 1059.56 535.87
00007882 00000070 904.70 102.20 343.31 544.87 963.26 335.99 1105.97 350.20 983.12 421.02 958.22 525.17 1059.14 537.32
00007883 00000071 905.16 103.68 342.87 543.06 963.41 335.34 1105.17 350.70 982.20 421.24 958.00 524.13 1058.77 537.18
00007884 00000072 904.19 104.77 343.70 542.25 962.91 336.40 1104.19 351.05 981.81 421.95 958.08 525.03 1059.05 537.48
00007885 00000073 904.38 105.80 342.21 541.08 962.42 337.88 1103.24 351.45 981.71 422.35 958.77 525.96 1058.52 537.55
00007886 00000074 903.95 107.91 341.87 539.85 962.58 337.04 1102.70 351.85 981.07 421.66 957.72 525.64 1057.39 538.23
00007887 00000075 903.94 108.06 340.96 539.93 961.98 336.39 1101.39 351.53 979.19 421.73 957.01 525.68 1056.60 538.56
00007888 00000076 903.02 107.75 342.18 540.93 961.86 336.34 1101.79 351.34 978.96 421.60 956.87 526.04 1056.94 538.80
00007889 00000077 902.95 104.95 340.38 541.09 950.76 336.63 1101.27 346.35 975.78 419.49 949.26 528.68 1061.53 539.36
00007890 00000078 902.89 103.89 341.56 543.74 951.30 336.22 1102.55 344.47 976.07 418.67 950.75 530.89 1063.13 540.33
00007891 00000079 902.49 103.36 343.30 545.25 950.37 334.72 1102.56 342.59 975.95 418.72 950.74 531.82 1063.03 540.97
00007892 00000080 904.07 104.05 342.49 544.20 949.55 331.34 1101.86 340.35 973.89 418.48 950.01 529.79 1062.87 539.91
00007893 00000081 904.89 103.55 340.51 541.19 946.36 320.74 1095.44 334.35 968.34 418.31 946.68 522.81 1055.80 536.87
00007894 00000082 905.19 102.64 339.84 539.28 946.77 318.39 1093.84 332.60 966.75 414.67 947.33 518.39 1052.00 533.05
00007895 00000083 904.65 101.46 341.99 539.58 947.46 316.90 1094.85 331.59 966.58 413.23 947.26 517.17 1051.33 532.16
00007896 00000084 905.41 101.56 343.15 539.95 946.87 316.76 1096.34 330.55 966.30 412.76 947.17 518.23 1053.63 532.47
00007897 00000085 906.04 99.73 343.84 540.59 947.68 317.20 1097.91 330.29 966.31 412.45 947.19 517.77 1055.05 531.61
00007898 00000086 906.00 97.85 343.58 543.81 948.40 317.41 1098.92 330.03 967.73 412.01 948.85 518.94 1055.98 532.34
00007899 00000087 905.52 97.57 344.28 544.66 948.51 316.77 1100.05 330.11 969.68 413.29 948.64 520.35 1056.56 534.24
00007900 00000088 905.94 97.94 345.62 545.61 948.54 318.38 1101.86 330.31 969.81 412.93 949.12 521.23 1059.63 534.09
00007901 00000089 905.94 96.75 346.96 546.07 948.55 315.64 1102.80 329.46 970.15 412.39 948.07 518.83 1059.89 533.16
00007902 00000090 905.95 97.96 347.60 543.36 948.06 314.60 1101.81 329.37 968.25 411.83 947.32 517.28 1058.58 532.35
00007903 00000091 906.79 95.26 345.54 544.56 948.04 313.71 1101.98 329.42 968.35 412.53 946.89 516.08 1059.29 531.82
00007904 00000092 907.01 95.09 345.51 543.77 948.72 313.63 1101.53 329.71 968.61 412.29 946.51 514.21 1059.11 530.32
00007905 00000093 908.27 92.83 344.25 545.69 950.44 313.45 1101.38 330.11 968.73 411.31 946.67 513.75 1057.99 530.46
00007906 00000094 908.79 91.64 343.86 547.16 953.05 312.93 1103.20 330.27 969.65 409.27 947.31 512.73 1057.92 530.04
00007907 00000095 908.13 93.77 344.42 544.13 954.54 313.84 1102.57 330.90 970.47 407.61 948.15 510.74 1058.14 527.80
00007908 00000096 908.33 95.50 346.17 542.26 955.99 314.15 1104.09 331.49 971.60 407.40 949.54 509.84 1060.09 527.16
00007909 00000097 909.24 96.28 346.83 541.96 957.48 314.22 1104.81 331.80 972.76 407.83 950.56 509.28 1061.72 526.78
00007910 00000098 908.85 94.75 347.89 543.56 957.23 313.81 1105.90 331.23 973.38 408.76 950.85 510.14 1062.42 527.50
00007911 00000099 909.57 95.64 348.40 543.71 957.98 314.99 1106.83 330.92 974.48 408.27 951.51 511.15 1063.98 527.34
00007912 00000100 910.33 98.85 348.71 539.91 959.79 314.05 1107.91 331.32 976.22 408.73 953.14 509.99 1065.73 527.17
00007913 00000101 910.19 99.81 348.86 539.31 960.57 314.07 1109.04 332.07 977.69 409.23 952.71 509.97 1066.41 527.77
00007914 00000102 909.10 97.62 351.27 542.34 960.25 313.93 1110.79 330.96 980.10 409.49 953.86 511.99 1067.54 528.93
00007915 00000103 908.62 97.01 352.89 542.69 960.67 314.73 1111.89 330.96 981.95 410.97 954.77 513.03 1069.04 529.29
00007916 00000104 908.75 97.51 352.73 542.69 961.41 315.03 1112.88 331.28 982.89 411.66 955.54 513.42 1069.83 529.63
00007917 00000105 908.97 96.33 353.31 543.93 961.21 314.97 1113.46 330.99 982.73 412.70 955.49 514.28 1070.16 530.26
00007918 00000106 909.39 95.79 351.79 544.55 961.54 314.96 1114.37 330.74 983.83 412.99 957.41 514.92 1070.71 530.57
00007919 00000107 907.04 98.79 350.89 539.65 969.84 320.28 1112.42 335.00 986.33 411.27 961.94 511.73 1062.39 524.64
00007920 00000108 911.00 95.18 352.35 539.35 964.96 315.01 1116.09 329.15 986.11 410.21 962.76 510.86 1075.39 524.90
00007921 00000109 911.41 95.72 353.66 542.83 964.81 314.50 1117.35 328.71 985.75 411.00 961.14 512.74 1077.50 527.06
00007922 00000110 912.27 97.08 353.88 544.03 966.31 312.99 1119.13 328.82 986.78 410.70 961.98 514.42 1079.32 529.98
00007923 00000111 913.15 94.33 353.44 547.32 967.38 310.94 1119.87 327.56 986.83 408.41 959.82 512.53 1078.26 528.82
00007924 00000112 913.19 92.72 353.80 547.64 969.46 307.81 1119.58 325.87 986.03 405.47 960.03 509.09 1074.73 526.55
00007925 00000113 913.34 90.82 353.99 548.15 970.81 305.95 1118.94 324.34 985.75 402.42 961.09 506.81 1073.16 524.55
00007926 00000114 914.52 90.23 351.55 547.61 970.90 305.08 1118.40 322.89 986.02 400.86 961.58 506.66 1072.74 523.98
00007927 00000115 915.46 91.92 351.93 543.34 972.45 304.38 1119.07 322.87 986.79 398.77 962.53 503.48 1072.96 521.42
00007928 00000116 914.66 94.00 352.17 538.71 972.00 311.89 1115.65 326.56 988.40 398.77 965.87 502.32 1071.64 516.99
00007929 00000117 911.72 91.76 354.30 538.54 967.29 311.63 1113.45 325.71 985.42 399.12 962.04 500.45 1071.40 514.69
00007930 00000118 909.66 89.45 354.73 538.56 967.76 309.05 1112.85 324.86 983.98 397.78 961.06 498.92 1067.96 514.59
00007931 00000119 910.63 87.99 352.38 538.80 966.03 305.23 1112.01 322.55 981.34 396.69 959.11 497.34 1067.19 514.21
00007932 00000120 910.12 86.86 352.73 540.90 964.61 304.61 1110.88 322.31 979.26 396.74 957.25 498.04 1065.59 515.31
00007933 00000121 910.18 87.39 352.65 540.88 964.03 304.28 1110.70 322.17 979.36 396.73 956.35 498.40 1065.27 515.80
00007934 00000122 910.10 87.03 352.83 540.70 964.46 304.08 1110.71 322.58 979.25 396.87 956.46 497.96 1064.68 515.79
00007935 00000123 910.36 86.47 352.43 540.97 964.33 304.48 1109.21 322.72 977.15 396.48 956.29 497.73 1063.40 515.52
00007936 00000124 911.92 89.63 349.20 536.48 963.84 306.10 1107.13 323.67 975.66 396.47 955.84 497.21 1062.37 514.68
00007937 00000125 911.69 87.49 349.44 540.30 962.59 307.60 1106.64 323.65 975.33 396.82 955.99 499.18 1062.70 515.39
00007938 00000126 910.99 89.28 348.38 537.38 961.36 309.09 1104.24 325.02 973.27 397.47 954.69 499.21 1060.52 515.48
00007939 00000127 910.60 91.46 346.99 535.02 961.02 307.41 1103.17 326.06 973.00 398.78 953.47 497.25 1060.26 515.70
00007940 00000128 910.91 89.36 348.43 538.12 961.60 306.57 1104.68 326.06 973.26 399.64 954.24 497.17 1061.27 516.17
00007941 00000129 911.33 89.96 347.88 542.03 960.80 307.57 1104.83 326.31 971.94 400.90 953.18 500.85 1061.23 519.34
00007942 00000130 913.02 91.29 348.64 543.25 961.96 309.01 1108.29 327.20 974.10 402.54 954.37 503.39 1066.34 521.50
00007943 00000131 912.79 90.51 350.19 541.72 963.19 307.95 1109.15 327.13 975.55 403.44 954.43 500.58 1067.60 519.44
00007944 00000132 912.19 90.33 351.24 537.21 963.92 306.49 1109.33 326.90 976.57 402.43 954.94 498.19 1065.48 517.98
00007945 00000133 912.02 90.29 350.86 534.05 964.57 306.99 1108.21 324.97 977.06 400.75 956.95 497.74 1063.88 515.70
00007946 00000134 913.14 88.52 348.38 534.79 965.33 308.05 1106.70 330.14 978.27 394.25 953.04 496.53 1054.01 515.00
00007947 00000135 910.87 87.34 349.18 538.32 963.44 306.88 1107.08 329.03 977.10 392.34 950.86 497.69 1052.42 516.30
00007948 00000136 909.94 87.16 347.11 539.81 957.46 305.28 1102.93 320.31 969.18 395.73 953.45 501.32 1058.03 516.78
00007949 00000137 908.35 85.05 346.97 539.57 953.20 302.02 1099.06 317.80 965.32 394.12 949.67 498.53 1055.88 514.51
00007950 00000138 907.71 87.05 344.11 535.05 951.88 297.95 1092.67 317.18 960.96 392.98 946.12 493.23 1050.57 511.99
00007951 00000139 907.82 86.31 340.86 531.63 953.44 296.24 1091.72 320.04 963.95 383.65 941.98 490.26 1038.65 509.14
00007952 00000140 908.69 84.08 337.77 532.05 950.67 295.18 1087.09 318.57 959.98 381.54 940.16 490.71 1034.02 509.14
00007953 00000141 904.21 84.99 340.24 528.55 948.88 292.45 1086.15 316.33 958.16 380.45 936.94 488.52 1031.71 507.58
00007954 00000142 903.25 82.36 339.16 528.79 949.94 287.13 1082.19 315.34 953.70 377.56 934.28 482.99 1026.28 505.30
00007955 00000143 901.41 79.33 336.55 531.94 947.41 285.49 1080.31 311.68 948.11 375.95 931.29 483.55 1023.76 504.67
00007956 00000144 894.39 81.41 341.36 532.80 944.62 284.10 1078.36 310.54 941.83 374.34 924.25 482.10 1020.18 503.99
00007957 00000145 890.67 83.84 341.92 532.12 942.24 282.63 1077.64 308.03 940.41 373.99 921.76 483.26 1017.85 504.57
00007958 00000146 888.65 82.68 342.07 535.49 942.09 283.27 1075.39 308.93 937.98 374.97 921.21 483.58 1016.89 505.19
00007959 00000147 888.02 82.54 341.97 537.57 941.50 284.29 1072.55 308.47 935.27 373.99 920.56 483.51 1016.16 503.88
00007960 00000148 887.78 84.72 340.50 536.60 940.76 285.22 1070.87 308.99 933.33 375.23 920.44 485.26 1015.26 505.20
00007961 00000149 887.53 83.17 340.11 539.96 941.21 285.10 1070.97 308.54 932.89 374.88 920.14 486.32 1014.92 506.08
00007962 00000150 887.56 84.20 339.77 539.65 940.91 285.15 1069.75 309.80 932.37 375.71 919.85 486.46 1014.25 507.14
00007963 00000151 887.74 85.18 339.58 540.11 941.05 286.38 1068.97 310.32 931.93 376.52 921.17 488.42 1014.05 508.37
00007964 00000152 888.26 86.15 339.24 535.13 940.99 287.21 1067.67 310.96 930.82 375.11 920.74 486.88 1010.69 506.95
00007965 00000153 889.04 87.77 338.38 534.39 940.45 286.77 1067.60 311.84 930.24 376.14 920.83 486.41 1011.75 507.29
00007966 00000154 888.22 89.00 340.31 533.72 940.32 287.74 1069.43 312.75 931.05 376.79 920.12 488.50 1012.04 509.44
00007967 00000155 888.97 91.95 339.72 536.89 938.91 288.75 1069.63 313.67 932.71 380.99 923.08 492.28 1017.31 512.92
00007968 00000156 889.09 92.63 340.46 535.92 938.80 289.60 1071.16 314.21 934.22 382.40 923.73 493.37 1020.34 513.51
00007969 00000157 888.09 92.67 341.31 534.65 938.81 288.96 1071.33 314.38 933.52 382.12 922.71 491.80 1019.46 512.56
00007970 00000158 887.97 90.80 342.40 533.05 939.03 288.66 1070.71 314.19 932.79 381.05 922.01 490.08 1017.54 511.01
00007971 00000159 887.38 89.87 342.83 534.45 938.22 289.54 1070.75 314.34 932.33 379.88 920.48 490.92 1016.00 511.48
00007972 00000160 887.85 89.01 342.39 533.31 938.47 287.87 1070.10 314.69 931.55 380.36 921.11 487.81 1017.46 509.82
00007973 00000161 888.91 86.83 342.13 536.54 939.15 289.14 1071.39 313.87 933.63 379.67 922.95 489.48 1020.20 509.78
00007974 00000162 888.78 87.68 342.00 535.33 938.35 289.95 1072.08 313.59 933.68 379.75 922.49 491.52 1019.19 511.00
00007975 00000163 888.19 88.80 342.35 535.10 939.11 288.88 1072.30 313.05 933.35 379.54 921.98 490.51 1019.25 510.42
00007976 00000164 888.41 87.70 342.59 535.72 939.45 288.62 1072.43 312.76 933.63 379.23 921.80 489.91 1019.08 509.82
00007977 00000165 889.32 87.02 340.49 535.43 940.53 287.10 1072.27 311.09 933.59 377.77 922.24 489.04 1017.76 508.90
00007978 00000166 888.66 86.02 340.56 535.11 939.91 286.27 1071.42 310.47 932.39 376.62 920.81 487.59 1016.03 507.77
00007979 00000167 887.03 87.61 342.65 532.28 939.21 285.02 1069.85 310.28 930.55 376.15 918.86 485.70 1013.31 506.81
00007980 00000168 886.20 88.20 342.87 532.04 938.79 285.67 1069.55 308.93 930.54 375.40 918.72 486.15 1013.19 505.69
