Video ID: 	R5VjriSwpdc
H: 	1080
W: 	1920
FPS: 	23.976023976023978

FRAME INDEX X0 Y0 W H [Landmarks (5 Points)]

00001013 00000000 763.38 117.05 527.81 709.72 907.99 396.71 1133.99 355.56 1046.24 509.42 999.62 663.88 1155.49 628.87
00001014 DELETE   756.31 100.13 549.57 748.28 890.00 385.82 1123.98 352.23 1013.73 517.96 966.28 677.68 1129.95 651.18
00001015 00000002 758.02 92.40 551.31 761.93 878.98 384.05 1118.92 356.49 996.15 522.04 947.18 682.01 1117.20 660.65
00001016 00000003 761.28 90.58 553.93 752.71 877.83 385.19 1123.06 357.51 995.98 528.13 944.02 676.34 1122.96 654.69
00001017 00000004 763.69 100.86 546.94 730.40 877.85 389.09 1125.59 358.03 999.25 528.04 940.13 663.05 1140.07 637.71
00001018 00000005 765.28 102.25 543.58 726.31 874.53 395.28 1127.91 361.33 998.52 533.86 933.18 657.05 1152.50 629.18
00001019 00000006 764.28 86.44 542.60 747.14 877.05 410.66 1130.34 380.92 1002.29 551.77 933.10 664.39 1155.42 639.51
00001020 00000007 768.36 94.99 542.56 768.77 887.01 425.48 1146.81 406.51 1013.67 572.04 932.12 685.07 1168.10 666.93
00001021 00000008 776.84 90.44 538.55 781.39 901.93 434.43 1151.28 415.66 1023.59 575.00 943.47 691.66 1169.75 673.86
00001022 00000009 782.25 94.63 543.26 773.75 903.71 432.25 1151.31 411.02 1024.79 574.74 947.56 690.88 1169.46 671.50
00001023 00000010 778.58 78.08 546.47 772.07 897.42 424.17 1147.37 400.68 1019.49 573.13 945.34 682.50 1164.74 660.88
00001024 00000011 781.24 76.90 542.69 776.37 895.80 419.74 1148.14 393.13 1017.24 566.36 947.97 688.06 1163.00 664.20
00001025 00000012 779.20 80.59 546.66 785.89 901.87 419.08 1148.07 394.19 1021.14 560.09 956.20 696.62 1153.72 675.03
00001026 00000013 788.72 83.37 538.92 784.58 911.06 422.57 1152.02 399.79 1028.28 566.29 965.16 703.31 1153.23 684.10
00001027 00000014 796.09 98.55 526.47 766.22 914.58 431.97 1155.95 410.03 1037.24 581.47 974.08 717.24 1153.83 699.05
00001028 00000015 797.70 113.97 533.37 769.71 915.30 438.91 1165.03 417.47 1039.86 593.46 972.82 727.72 1162.04 709.94
00001029 00000016 799.65 106.47 535.89 780.18 915.29 438.28 1170.09 416.50 1042.09 594.26 970.34 725.16 1174.13 706.49
00001030 00000017 801.98 99.53 535.93 774.46 919.35 434.75 1171.22 412.09 1045.29 583.50 971.42 710.89 1176.87 691.36
00001031 00000018 805.78 85.71 535.70 788.41 923.88 430.85 1174.10 409.71 1047.00 578.07 971.77 702.30 1178.73 684.03
00001032 00000019 808.22 95.43 535.00 783.06 923.91 433.12 1179.18 412.36 1050.84 582.42 969.23 701.18 1192.09 682.84
00001033 00000020 807.83 97.58 534.47 790.63 924.23 440.60 1183.50 417.01 1056.58 589.70 966.33 702.73 1203.84 681.51
00001034 00000021 810.29 100.52 535.56 788.61 928.67 444.00 1191.63 420.39 1065.95 595.73 968.24 699.42 1215.98 677.75
00001035 00000022 811.04 111.14 539.91 776.79 933.98 447.94 1197.34 424.74 1072.68 599.76 973.39 700.36 1220.03 679.08
00001036 00000023 811.82 107.63 540.46 781.82 939.69 450.16 1203.68 428.16 1080.10 601.63 975.69 697.86 1225.52 677.44
00001037 00000024 814.47 106.58 543.56 787.30 946.71 452.95 1210.33 431.25 1088.90 603.92 982.36 698.00 1232.73 678.35
00001038 00000025 824.64 118.64 533.18 771.77 955.92 455.25 1217.12 433.85 1097.39 604.42 991.02 699.82 1236.39 681.02
00001039 00000026 832.70 118.86 533.10 770.59 968.45 454.62 1228.85 433.69 1110.57 603.09 1003.89 704.94 1243.96 686.95
00001040 00000027 833.79 121.37 535.88 757.78 978.00 454.16 1238.79 435.64 1122.75 600.93 1011.19 702.69 1245.34 687.26
00001041 00000028 835.61 121.89 538.88 758.40 986.93 449.61 1243.00 434.26 1131.25 600.37 1021.46 701.82 1246.13 689.15
00001042 00000029 840.89 116.87 534.09 763.55 992.97 448.14 1250.25 432.24 1140.36 598.03 1030.21 706.06 1251.21 693.22
00001043 00000030 846.27 122.63 531.96 754.34 999.04 448.72 1255.99 431.04 1147.98 597.83 1035.64 705.88 1255.76 691.73
00001044 00000031 848.73 116.27 530.53 755.95 1004.66 446.61 1260.93 426.91 1156.15 594.24 1044.46 706.22 1260.95 690.36
00001045 00000032 853.49 115.38 528.01 759.28 1012.94 444.66 1264.16 425.26 1163.32 588.69 1056.72 708.50 1262.60 692.56
00001046 00000033 857.31 102.54 527.56 779.67 1018.26 440.49 1266.54 417.38 1170.06 582.16 1071.66 717.58 1259.92 698.32
00001047 00000034 856.11 106.28 527.48 765.85 1022.93 432.22 1260.26 411.55 1170.22 571.75 1080.13 710.03 1251.87 692.37
00001048 00000035 852.17 91.28 529.86 775.16 1015.26 424.33 1260.00 404.11 1166.38 565.69 1070.81 701.07 1255.82 683.58
00001049 00000036 846.66 92.79 540.19 766.47 1003.49 414.07 1254.65 393.48 1156.26 554.88 1065.45 692.31 1257.55 671.77
00001050 00000037 847.44 95.55 532.98 760.29 1005.74 416.88 1252.32 393.75 1156.00 551.08 1061.39 687.48 1253.76 667.35
00001051 00000038 843.12 89.38 535.83 765.46 1001.68 413.35 1247.08 390.48 1149.99 547.88 1059.29 686.49 1249.79 666.76
00001052 00000039 841.54 80.05 535.96 775.54 997.53 406.05 1241.01 382.09 1142.48 543.35 1054.91 681.41 1243.80 662.03
00001053 00000040 836.58 77.51 536.96 770.17 992.16 404.17 1235.55 378.35 1137.68 540.80 1051.60 678.07 1241.21 656.79
00001054 00000041 834.40 83.28 534.67 765.35 986.68 400.99 1229.90 372.69 1133.63 537.65 1049.00 676.51 1239.54 653.53
00001055 00000042 830.11 85.40 535.32 766.77 981.51 398.74 1223.33 371.10 1125.85 536.12 1046.28 678.27 1233.70 655.90
00001056 DELETE   826.03 82.38 526.63 784.10 967.58 393.00 1202.99 367.08 1102.70 528.96 1033.05 684.38 1209.21 663.75
00001057 DELETE   808.97 104.29 533.41 754.13 935.89 388.84 1181.50 367.74 1062.25 529.05 990.57 679.55 1168.64 662.67
00001058 00000045 806.51 86.24 529.58 773.50 923.59 386.25 1164.82 365.35 1040.85 529.83 976.66 683.10 1149.92 666.50
00001059 00000046 804.55 79.12 536.91 774.27 917.51 385.20 1163.55 360.84 1036.40 528.70 976.75 683.49 1156.05 664.26
00001060 00000047 797.84 88.27 537.19 759.83 913.93 388.12 1162.65 359.82 1039.23 529.49 977.15 681.49 1160.93 658.72
00001061 00000048 787.15 81.38 543.29 763.13 906.98 394.30 1157.89 362.85 1034.75 534.30 971.89 680.03 1164.12 653.89
00001062 00000049 779.07 67.68 545.24 773.46 900.93 401.40 1152.21 368.26 1031.54 541.06 968.34 680.44 1165.55 652.01
00001063 00000050 773.94 75.44 543.71 767.60 896.38 407.22 1147.51 374.16 1027.68 548.95 962.17 682.47 1162.42 653.69
00001064 00000051 772.73 75.68 545.05 769.03 895.87 399.79 1139.05 370.26 1020.46 548.04 961.39 673.24 1159.09 649.21
00001065 00000052 770.58 73.07 548.66 770.67 893.65 396.41 1137.39 366.27 1018.02 545.52 960.04 672.17 1157.87 647.85
00001066 00000053 770.53 77.63 548.26 761.26 891.22 395.33 1136.27 364.31 1015.08 545.25 958.83 671.69 1157.27 646.58
00001067 00000054 773.05 70.98 543.38 767.70 891.03 398.33 1135.53 367.83 1015.23 549.14 957.76 673.96 1156.67 649.25
00001068 00000055 771.95 81.91 545.05 759.10 891.45 401.63 1136.96 370.68 1016.55 552.11 958.31 677.36 1156.25 652.00
00001069 00000056 772.62 78.31 544.40 767.16 891.88 402.62 1138.90 372.55 1016.42 552.95 956.14 677.50 1158.02 652.86
00001070 00000057 773.23 75.20 541.94 769.91 895.52 410.08 1147.33 378.00 1026.65 555.56 959.35 685.70 1161.30 657.75
00001071 00000058 774.68 73.22 544.57 770.14 895.90 409.01 1150.95 376.77 1028.86 555.66 960.07 685.71 1166.42 657.50
00001072 00000059 772.43 67.09 546.81 783.34 897.20 413.39 1154.95 378.92 1033.94 556.25 961.50 688.95 1173.28 658.62
00001073 00000060 771.82 74.20 546.80 786.33 899.33 407.28 1149.24 378.12 1029.79 556.05 960.53 682.30 1167.31 658.09
00001074 00000061 775.59 79.29 543.08 786.03 901.91 415.76 1157.64 386.50 1036.05 555.66 957.65 690.41 1179.32 664.21
00001075 00000062 772.49 81.77 544.90 782.86 899.51 415.30 1156.27 386.24 1033.96 555.51 954.62 686.83 1179.24 660.68
00001076 00000063 769.44 89.71 545.88 775.60 895.95 413.83 1153.22 385.51 1030.35 556.05 951.31 684.21 1177.38 658.46
00001077 00000064 767.79 80.87 546.04 782.10 895.56 413.49 1151.88 383.93 1029.07 553.93 950.56 683.37 1174.89 656.49
00001078 00000065 768.38 78.13 547.23 777.33 890.79 409.00 1139.94 377.72 1018.71 554.80 953.79 676.90 1165.81 650.76
00001079 00000066 770.22 89.89 549.59 768.39 892.03 411.09 1144.45 382.86 1021.40 551.32 952.52 677.46 1167.81 653.96
00001080 00000067 774.98 81.19 541.75 767.14 896.15 407.84 1146.41 377.28 1026.58 552.44 955.77 678.48 1163.35 651.74
00001081 00000068 778.01 76.95 543.20 772.20 902.06 404.84 1151.17 374.45 1033.14 548.93 961.86 678.30 1166.54 651.97
00001082 00000069 783.47 65.33 540.87 780.76 906.48 403.69 1157.59 374.05 1037.30 549.02 966.14 678.17 1169.51 652.77
00001083 00000070 785.14 72.25 542.19 773.58 909.95 404.73 1161.98 374.46 1041.70 548.83 970.35 679.66 1172.50 654.05
00001084 00000071 787.76 68.18 542.52 779.01 912.40 405.63 1163.75 375.12 1044.31 552.08 974.85 681.46 1175.52 655.57
00001085 00000072 791.27 72.79 541.57 774.86 914.67 406.95 1164.98 376.35 1044.77 552.03 975.22 682.78 1176.34 656.80
00001086 00000073 793.60 74.83 539.76 771.90 917.37 407.42 1166.28 377.34 1046.66 552.78 976.15 681.55 1177.56 656.12
00001087 00000074 795.09 71.99 538.61 772.09 917.40 407.41 1166.84 377.00 1046.58 551.78 976.46 681.56 1177.70 655.86
00001088 00000075 797.46 64.05 536.22 780.07 918.48 408.14 1168.26 377.36 1046.51 550.49 976.09 681.96 1178.93 656.17
00001089 00000076 796.40 58.16 537.21 790.34 920.49 412.55 1167.57 379.06 1049.25 550.49 980.10 683.79 1182.86 655.52
00001090 00000077 796.05 64.20 536.48 784.35 920.15 413.76 1167.82 380.62 1049.45 551.72 979.40 684.58 1182.46 656.58
00001091 00000078 794.69 65.33 534.07 778.14 918.01 414.08 1166.51 381.67 1048.13 553.36 977.38 684.60 1179.53 657.21
00001092 00000079 792.60 61.14 535.68 781.65 916.29 413.41 1165.93 380.89 1046.75 552.49 976.27 683.63 1179.45 656.05
00001093 00000080 791.79 64.04 537.71 778.26 916.14 412.21 1165.98 379.28 1047.45 552.60 977.66 683.61 1180.01 655.68
00001094 00000081 793.62 65.21 535.81 774.63 917.46 412.14 1166.74 378.47 1049.03 550.34 977.77 681.78 1181.51 653.34
00001095 00000082 793.43 75.42 537.17 765.91 920.07 412.34 1167.76 378.81 1053.28 549.66 979.63 681.19 1182.54 652.87
00001096 00000083 795.17 65.35 535.38 773.61 921.03 412.84 1167.98 379.93 1053.57 549.76 979.63 679.88 1182.84 651.98
00001097 00000084 797.64 68.68 534.70 770.90 923.01 413.32 1171.34 381.32 1055.23 549.85 979.86 679.59 1185.57 652.37
00001098 00000085 796.60 60.40 536.50 780.38 923.60 413.09 1170.87 380.62 1056.29 548.82 981.54 679.53 1186.09 651.78
00001099 00000086 797.98 80.57 535.32 759.84 925.47 414.55 1173.05 381.96 1059.32 550.20 982.94 679.09 1188.41 651.27
00001100 00000087 798.43 71.44 535.80 768.25 925.33 415.75 1173.77 383.26 1058.88 549.68 982.40 679.01 1188.69 651.22
00001101 00000088 797.45 73.44 537.06 766.65 925.61 415.31 1174.65 383.10 1059.74 549.68 981.88 678.35 1189.04 650.78
00001102 00000089 797.02 72.02 537.42 768.84 925.33 416.43 1174.98 383.29 1059.54 549.63 982.01 679.11 1190.46 650.73
00001103 00000090 795.61 60.76 538.25 781.31 924.15 416.30 1172.96 383.25 1057.89 548.61 981.67 679.30 1189.64 650.86
00001104 00000091 795.73 61.50 537.40 781.28 923.28 416.51 1172.94 383.46 1057.09 547.73 980.24 679.26 1189.57 650.90
00001105 00000092 795.97 69.98 534.15 773.44 923.80 416.66 1173.94 380.75 1060.69 548.29 980.84 674.92 1197.07 643.84
00001106 00000093 795.94 73.49 539.02 777.71 925.96 416.98 1177.49 379.52 1065.77 546.97 982.29 672.01 1207.02 639.29
00001107 00000094 793.36 82.55 541.57 775.54 925.76 425.92 1179.44 384.99 1069.52 549.32 983.27 674.34 1213.39 638.37
00001108 00000095 794.65 88.23 536.97 770.43 927.01 425.92 1176.82 387.14 1068.23 553.27 983.01 672.38 1210.31 637.93
00001109 00000096 790.70 86.79 537.55 762.67 919.87 427.10 1173.24 388.64 1061.17 557.69 980.89 680.01 1200.57 646.34
00001110 00000097 785.37 89.11 543.09 758.64 911.28 418.82 1168.22 382.25 1050.43 558.76 970.77 677.84 1195.27 645.97
00001111 00000098 782.74 84.79 546.25 768.06 905.59 413.35 1163.47 381.17 1042.52 555.27 963.43 677.00 1191.45 648.22
00001112 00000099 773.98 80.89 548.47 765.52 898.38 416.32 1157.90 377.89 1040.08 560.28 962.43 683.14 1185.43 649.29
00001113 00000100 772.73 93.94 552.33 763.40 895.76 413.15 1152.46 381.34 1031.78 555.43 968.95 690.71 1174.57 663.95
00001114 00000101 766.77 95.34 553.37 763.39 892.08 413.70 1143.70 380.65 1025.03 554.17 969.99 690.78 1165.92 663.00
00001115 00000102 765.31 78.92 549.14 778.57 890.77 408.18 1132.23 371.01 1017.61 549.26 964.61 685.85 1156.47 655.31
00001116 00000103 764.28 102.32 549.29 754.12 883.77 412.89 1133.76 379.44 1012.07 553.78 957.38 686.79 1156.31 658.97
CROP_BBOX: 486 0 1656 1061
