Video ID: 	Vl_2Xvs5b18
H: 	1080
W: 	1920
FPS: 	25.0

FRAME INDEX X0 Y0 W H [Landmarks (5 Points)]

00003119 00000000 758.08 156.01 410.16 582.94 865.62 438.53 1057.67 433.36 962.97 527.92 881.82 609.09 1045.21 605.39
00003120 DELETE   767.49 152.48 410.70 579.37 877.30 432.81 1069.19 435.07 974.03 525.63 891.51 606.79 1053.21 608.59
00003121 00000002 769.30 147.46 414.79 581.86 882.39 426.68 1074.92 433.28 977.53 522.69 897.57 605.13 1056.13 610.22
00003122 00000003 771.71 147.08 411.20 589.14 883.35 418.15 1072.42 427.98 982.58 518.06 902.66 610.75 1055.67 616.60
00003123 00000004 768.78 148.49 409.21 587.03 880.76 417.04 1066.17 427.32 977.38 516.80 897.49 609.49 1046.65 616.05
00003124 00000005 760.74 147.66 413.54 582.74 870.86 422.19 1057.95 429.53 960.66 519.70 882.15 599.53 1035.25 606.00
00003125 00000006 753.49 149.46 412.72 585.65 862.06 425.62 1050.46 429.67 952.52 519.05 874.16 603.11 1027.24 607.21
00003126 00000007 748.34 150.72 409.53 585.81 853.36 426.91 1041.25 429.02 944.26 521.37 867.95 605.46 1016.54 608.31
00003127 00000008 735.58 148.42 404.20 583.83 838.19 428.58 1026.46 428.72 934.47 527.12 863.14 619.74 1015.27 618.49
00003128 00000009 728.32 152.21 406.18 582.56 832.37 429.98 1021.93 430.55 928.63 526.55 858.32 619.61 1010.96 618.54
00003129 00000010 724.59 152.73 406.54 584.31 826.48 431.00 1014.69 431.26 923.21 525.10 855.11 620.10 1007.10 618.57
00003130 00000011 718.56 154.80 408.87 584.18 822.21 431.93 1010.71 432.06 920.04 524.49 852.84 620.60 1004.89 618.71
00003131 00000012 714.97 158.05 409.29 582.04 819.47 433.84 1006.73 433.40 917.75 525.20 852.98 621.50 1002.92 619.10
00003132 00000013 713.42 159.08 408.33 583.99 818.19 438.00 1005.71 435.93 916.75 527.86 851.71 624.31 1002.83 620.54
00003133 00000014 712.47 162.00 408.66 582.53 818.10 440.35 1005.51 436.93 917.13 530.44 853.85 627.96 1003.40 623.17
00003134 00000015 713.17 163.22 408.09 582.84 818.91 441.95 1005.74 437.70 917.95 530.75 855.71 629.71 1004.10 624.33
00003135 00000016 714.08 163.25 407.35 581.77 819.32 441.90 1006.31 437.85 918.38 530.83 855.77 629.42 1004.30 624.24
00003136 00000017 715.21 163.94 406.48 580.98 820.13 440.54 1006.77 437.84 918.11 530.33 854.79 627.86 1003.76 623.79
00003137 00000018 716.55 162.83 406.73 580.95 821.34 439.97 1007.94 439.45 918.32 531.49 854.56 627.22 1002.97 624.88
00003138 00000019 718.62 162.05 404.91 580.47 822.49 440.51 1009.06 441.60 917.62 532.13 853.05 626.16 1002.68 625.06
00003139 00000020 719.55 161.73 405.37 579.70 822.62 440.56 1009.34 442.22 916.85 533.62 851.13 625.79 1001.18 625.18
00003140 00000021 717.74 160.46 407.33 582.14 821.85 439.67 1009.75 443.12 915.79 534.25 848.58 625.70 999.35 626.61
00003141 00000022 716.33 160.73 408.95 581.73 820.79 439.93 1009.40 444.51 914.25 534.94 847.54 626.22 997.98 627.88
00003142 00000023 716.11 161.54 409.60 583.19 819.66 441.29 1010.60 446.49 912.51 537.10 845.54 627.42 998.98 629.47
00003143 00000024 714.80 162.16 410.47 583.00 818.64 441.76 1010.05 446.69 911.96 537.98 845.29 627.33 999.21 629.11
00003144 00000025 711.98 162.77 413.48 586.00 817.39 442.98 1008.90 447.30 911.39 540.75 843.77 629.04 997.78 630.32
00003145 00000026 711.22 164.56 414.74 584.48 816.57 446.86 1008.24 450.23 910.74 544.19 844.18 632.23 997.46 632.64
00003146 00000027 713.74 166.85 413.63 585.96 817.63 451.42 1008.94 453.67 912.00 550.48 845.31 637.85 997.72 637.42
00003147 00000028 713.36 175.02 412.90 590.03 818.69 456.36 1009.67 458.28 913.63 557.54 843.97 644.87 997.45 644.93
00003148 00000029 712.63 176.49 412.74 601.64 820.28 461.81 1007.88 465.71 913.11 563.89 842.97 650.74 993.87 652.69
00003149 00000030 715.19 182.74 409.84 596.84 823.15 469.32 1010.39 473.28 917.50 572.18 846.33 658.62 994.84 661.04
00003150 00000031 716.73 191.61 409.08 593.01 825.14 475.69 1012.63 478.22 918.69 579.49 847.45 665.37 996.25 667.02
00003151 DELETE   718.37 195.57 407.71 594.01 824.52 480.74 1012.45 483.67 916.39 586.50 845.88 670.36 995.89 672.27
00003152 00000033 717.21 198.21 408.45 593.35 822.87 483.29 1009.77 486.08 913.64 587.88 844.26 671.42 993.76 673.10
00003153 00000034 716.69 202.10 409.61 589.66 821.85 485.96 1009.47 489.16 911.52 590.93 843.48 673.32 992.83 675.29
00003154 00000035 717.83 207.14 410.34 584.59 822.94 489.82 1010.45 493.40 911.77 594.82 843.64 674.63 993.31 676.64
00003155 00000036 719.43 209.45 408.98 582.15 824.03 492.02 1012.46 497.24 911.84 596.75 842.57 674.39 994.42 677.54
00003156 00000037 719.73 211.80 407.70 577.77 824.51 491.12 1011.65 497.04 911.89 595.69 843.43 672.94 992.90 676.72
00003157 00000038 719.42 210.06 406.83 578.61 824.21 487.91 1009.76 493.96 911.20 592.27 843.60 671.59 991.26 675.81
00003158 00000039 719.61 206.73 406.28 576.46 823.02 484.44 1008.92 492.33 908.86 588.89 841.27 668.25 987.86 674.38
00003159 00000040 720.49 203.32 404.24 578.85 823.23 480.33 1006.65 488.30 907.41 585.19 841.44 666.72 984.33 673.10
00003160 00000041 719.02 201.14 405.83 581.52 822.58 474.79 1006.38 483.78 905.92 579.56 840.82 664.39 983.37 671.74
00003161 00000042 716.91 194.79 407.19 586.72 821.55 470.25 1006.35 479.37 906.85 574.05 839.43 659.30 984.35 666.73
00003162 00000043 715.06 188.51 407.42 590.17 821.18 467.75 1005.10 475.80 908.40 571.25 842.33 658.51 984.72 665.09
00003163 00000044 712.13 187.00 409.11 587.46 818.72 465.29 1003.11 473.27 906.24 570.06 840.08 655.47 982.30 661.89
00003164 00000045 707.75 183.35 412.11 587.77 815.06 463.46 998.54 470.00 902.93 567.31 839.29 652.15 980.94 656.99
00003165 00000046 704.59 185.44 411.93 582.23 810.73 462.81 993.39 468.66 898.16 566.70 836.31 650.40 976.94 654.80
00003166 00000047 702.15 189.21 410.55 578.51 805.93 462.79 987.38 467.24 892.03 566.92 831.79 651.82 970.97 655.34
00003167 00000048 700.20 187.60 410.12 579.49 800.46 463.13 982.41 465.79 886.36 565.92 826.45 651.94 966.05 654.03
00003168 00000049 699.03 183.44 408.32 582.08 796.88 461.38 977.79 461.56 882.66 561.32 824.12 649.46 964.35 649.61
00003169 00000050 698.65 181.08 406.66 581.53 793.86 458.63 976.13 457.21 880.20 556.05 820.53 645.39 964.35 644.12
00003170 00000051 696.98 177.93 408.17 581.22 791.88 455.76 974.70 454.17 879.44 550.82 818.55 640.64 964.26 639.07
00003171 00000052 696.73 177.89 408.26 579.44 792.96 454.11 973.77 452.73 880.36 548.81 820.07 638.19 963.59 636.73
00003172 00000053 697.60 176.54 407.28 579.99 793.96 452.26 975.06 452.23 880.82 548.13 820.10 637.25 963.13 636.85
00003173 00000054 699.23 174.83 406.17 583.34 795.32 451.09 975.95 452.33 881.43 548.62 821.82 637.79 964.44 638.27
00003174 00000055 700.26 175.72 406.85 584.67 797.91 449.48 978.71 452.43 883.07 549.22 822.65 637.60 964.70 639.69
00003175 00000056 700.33 175.83 409.93 585.20 801.43 448.36 982.58 452.14 886.40 549.93 825.94 638.11 966.78 640.96
00003176 00000057 701.56 176.03 412.53 585.29 803.37 449.48 984.43 453.11 887.69 552.22 828.96 639.98 969.06 642.59
00003177 00000058 702.85 177.40 414.48 584.97 805.20 449.94 985.77 453.68 888.85 552.56 831.20 640.88 970.54 643.49
00003178 00000059 705.06 177.10 414.14 587.18 808.58 450.91 990.57 455.89 892.98 554.69 832.99 642.67 973.87 646.21
00003179 00000060 709.71 177.73 410.65 584.87 810.05 455.44 995.13 461.15 895.11 561.04 833.68 644.10 978.68 647.85
00003180 00000061 711.73 179.55 408.81 585.32 813.78 457.28 997.31 463.95 898.23 562.54 836.53 644.42 980.50 649.22
00003181 00000062 713.59 182.41 407.80 583.36 816.25 457.35 999.86 465.88 900.45 563.17 835.91 644.49 979.76 651.10
00003182 00000063 715.30 182.41 406.48 582.65 817.89 457.59 1001.85 467.18 902.45 563.96 836.35 644.29 980.61 651.82
00003183 00000064 718.47 179.45 403.84 578.89 818.69 454.95 1003.73 466.79 903.22 564.06 836.57 645.16 978.66 654.24
00003184 00000065 721.27 178.77 401.83 578.46 820.71 454.35 1004.18 467.56 903.86 564.39 838.04 644.32 978.43 654.42
00003185 00000066 721.10 180.96 402.00 576.82 821.96 452.87 1004.87 467.19 904.49 562.84 837.95 643.23 977.73 654.42
00003186 00000067 720.90 177.59 402.87 583.60 821.66 451.23 1005.85 464.62 905.05 559.39 837.66 641.23 981.28 651.38
00003187 00000068 720.67 174.26 402.86 585.96 821.27 447.94 1003.38 462.08 903.79 556.24 837.50 638.88 978.32 649.41
00003188 00000069 720.03 170.73 403.88 582.91 819.91 445.69 1002.94 459.51 902.33 552.36 837.86 636.27 978.84 646.15
00003189 00000070 719.55 164.93 405.51 584.33 819.33 443.82 1003.68 456.79 902.81 549.81 839.03 634.10 980.97 642.98
00003190 00000071 717.72 163.53 407.34 583.14 818.10 441.78 1002.94 454.99 901.88 547.10 837.98 631.97 980.26 640.99
00003191 00000072 716.60 162.11 407.67 583.41 817.12 439.63 1001.70 452.36 900.79 545.63 836.95 630.90 979.33 639.66
00003192 00000073 714.26 162.42 410.67 580.88 816.51 436.84 1002.31 450.44 899.84 543.51 834.66 629.35 977.70 638.98
00003193 00000074 713.20 161.16 410.94 581.06 814.72 434.96 1000.96 448.98 897.41 541.66 832.28 627.31 976.51 637.37
00003194 00000075 712.11 160.99 411.18 580.61 812.78 433.64 998.73 447.04 895.66 539.60 830.43 625.80 975.27 635.43
00003195 00000076 711.92 158.55 410.41 581.94 811.96 432.74 997.90 446.36 895.22 538.57 829.85 625.93 974.45 635.62
00003196 00000077 711.66 158.57 410.21 581.26 811.77 432.33 997.14 446.17 894.67 538.00 829.65 625.53 973.59 635.38
00003197 00000078 710.71 159.37 409.91 581.26 810.89 432.80 996.36 446.22 894.10 537.74 828.90 625.90 973.03 635.48
00003198 00000079 709.26 158.01 410.94 583.88 809.54 432.26 995.28 445.07 893.80 536.62 829.00 625.66 973.52 634.60
00003199 00000080 709.58 158.22 409.37 582.74 809.14 432.49 994.98 445.00 893.97 536.06 828.48 625.07 973.38 633.80
00003200 00000081 709.95 158.22 409.60 583.44 810.51 431.14 996.13 444.12 894.89 535.25 829.40 623.65 974.73 632.76
00003201 00000082 711.38 155.69 408.35 585.10 811.59 430.15 997.77 442.87 896.12 534.23 830.11 622.98 976.40 631.83
00003202 00000083 712.86 155.24 409.22 585.38 813.58 429.45 999.51 441.69 898.00 534.20 832.18 622.51 978.05 631.09
00003203 00000084 714.92 153.81 409.30 584.17 815.38 427.67 1001.40 439.08 899.77 532.43 834.18 621.36 980.32 629.18
00003204 00000085 718.64 151.74 406.31 581.96 818.37 424.34 1004.51 437.48 902.80 529.83 835.92 619.84 982.88 628.97
00003205 00000086 723.81 151.32 403.90 579.30 820.78 424.38 1007.29 437.09 904.11 527.18 838.43 618.37 985.76 627.06
00003206 00000087 729.23 150.73 399.72 576.50 824.26 425.27 1009.42 437.08 906.87 527.77 840.71 617.76 987.92 625.79
00003207 00000088 732.94 151.48 399.36 572.53 828.31 422.52 1013.16 434.49 909.11 527.13 842.64 614.96 990.30 623.31
00003208 00000089 734.98 148.00 402.08 575.05 833.40 419.51 1018.60 431.06 915.72 525.19 847.78 613.24 994.99 621.20
00003209 00000090 748.84 148.66 402.20 576.95 850.11 412.61 1033.71 435.00 928.74 517.41 849.88 595.91 988.99 615.51
00003210 00000091 752.11 145.74 403.68 573.05 855.07 410.50 1035.71 432.68 933.12 510.81 851.57 588.87 991.37 608.20
00003211 00000092 754.94 144.33 403.12 565.14 859.36 407.32 1037.05 430.39 936.01 503.25 854.86 580.76 994.80 600.89
00003212 00000093 761.22 135.86 406.35 573.49 864.72 403.23 1037.69 426.47 934.12 502.31 851.54 577.69 993.83 597.39
00003213 00000094 762.88 135.20 407.20 571.30 869.19 400.30 1040.43 426.17 936.97 498.05 852.87 570.61 996.55 592.40
00003214 00000095 758.73 141.54 405.02 561.16 869.99 400.12 1043.41 426.01 944.43 496.65 863.16 570.70 1003.03 593.32
00003215 00000096 758.41 137.03 406.45 560.33 870.09 394.80 1044.58 420.60 944.97 493.45 862.79 565.53 1004.76 588.15
00003216 00000097 758.78 132.89 406.68 562.80 870.31 391.85 1045.16 417.05 946.00 490.83 863.32 563.73 1005.93 585.84
00003217 00000098 758.46 130.63 406.72 564.34 869.66 390.20 1044.39 415.50 945.31 489.57 862.11 562.37 1005.28 584.59
00003218 00000099 758.41 131.09 405.74 564.64 868.85 389.04 1042.91 414.16 944.61 488.73 861.56 561.94 1003.89 584.20
00003219 00000100 758.18 129.72 407.31 565.81 867.91 389.36 1042.82 412.96 944.46 489.19 862.25 562.19 1006.58 583.02
00003220 00000101 757.74 129.29 406.10 566.03 866.78 389.03 1041.98 412.09 943.77 488.99 862.74 564.07 1005.05 584.46
00003221 00000102 757.54 127.01 405.12 567.08 865.17 386.50 1041.41 409.32 943.00 487.18 861.88 564.57 1003.32 584.80
00003222 00000103 756.46 125.05 404.09 568.17 863.61 385.41 1040.13 407.76 942.73 485.76 861.87 564.45 1003.07 584.07
00003223 00000104 755.64 124.54 403.05 567.69 862.85 384.94 1038.85 407.09 941.58 484.62 861.85 564.45 1001.75 583.85
00003224 00000105 755.73 122.43 402.25 571.32 862.73 384.21 1038.98 405.76 942.71 483.48 863.45 565.13 1003.42 583.96
00003225 00000106 755.15 118.58 401.91 578.04 861.06 383.28 1039.26 404.44 942.59 482.33 862.50 566.14 1004.72 584.70
00003226 00000107 754.77 116.43 400.88 585.29 859.39 383.07 1036.73 405.53 939.84 481.40 860.22 567.62 1000.30 587.39
00003227 00000108 753.69 116.05 401.33 584.79 857.71 382.69 1034.50 404.60 937.24 481.04 859.04 567.34 998.69 586.49
00003228 00000109 752.72 114.42 400.47 583.85 856.13 381.80 1032.82 404.09 935.05 478.91 856.66 563.78 998.40 582.89
00003229 00000110 751.98 112.51 400.57 582.28 855.93 380.50 1032.71 401.92 935.53 477.15 857.26 561.69 999.33 579.98
00003230 00000111 752.39 109.36 400.36 585.67 857.52 377.86 1032.98 399.10 936.75 472.72 859.67 558.33 1000.95 576.40
00003231 00000112 752.31 103.71 400.26 588.71 856.82 374.79 1032.81 395.96 936.35 468.02 859.03 554.68 1001.78 572.28
00003232 00000113 750.80 99.72 400.75 589.26 854.14 372.72 1033.21 392.61 934.92 465.35 856.39 554.26 1001.53 570.61
00003233 00000114 749.66 97.33 402.28 590.35 852.31 370.65 1033.51 388.74 934.31 462.87 854.54 553.92 1001.17 568.74
00003234 00000115 748.59 96.24 402.22 588.91 851.33 369.08 1032.40 386.64 933.31 461.44 853.12 552.19 998.89 566.59
00003235 00000116 748.56 94.83 402.19 588.86 851.34 366.92 1032.35 384.80 933.51 459.37 853.71 551.56 998.92 566.22
00003236 00000117 740.57 93.29 401.85 585.97 842.36 371.47 1026.45 384.45 926.19 467.32 855.58 557.24 1002.78 566.69
00003237 00000118 739.57 93.99 401.84 584.65 841.62 371.50 1026.08 384.27 925.70 467.50 854.95 557.15 1002.93 566.31
00003238 00000119 738.38 94.00 401.91 582.89 839.84 371.13 1023.84 383.68 923.05 466.45 853.37 555.82 1001.28 564.63
00003239 00000120 737.32 92.31 401.74 583.07 839.45 370.64 1021.57 383.09 922.27 465.93 854.11 554.99 999.02 563.64
00003240 00000121 736.04 93.60 403.02 583.73 838.94 371.09 1021.10 382.54 921.39 466.18 853.87 555.82 998.79 563.68
00003241 00000122 736.79 93.55 402.76 586.87 838.99 371.53 1021.81 382.34 921.52 466.24 853.59 557.47 999.32 564.96
00003242 00000123 736.40 93.01 403.49 586.62 838.13 370.48 1022.40 380.64 921.21 465.40 854.09 557.94 1000.51 564.79
00003243 00000124 735.71 93.55 403.23 584.66 837.68 370.03 1021.45 379.82 921.40 465.44 854.70 557.84 999.94 564.41
00003244 00000125 734.76 92.65 403.40 584.04 837.03 368.52 1020.37 377.59 921.53 464.20 855.14 556.76 1000.16 562.72
00003245 00000126 732.74 92.35 404.30 584.64 835.82 366.89 1019.18 376.86 920.05 462.18 853.12 554.86 999.06 561.49
00003246 00000127 730.20 93.11 405.23 583.81 833.85 365.96 1018.39 377.15 917.61 461.98 848.61 553.87 996.80 561.53
00003247 00000128 724.76 97.76 406.85 578.68 829.98 365.71 1015.03 380.01 912.28 460.58 843.87 553.76 991.38 564.21
00003248 00000129 716.76 98.69 408.54 580.27 824.79 367.13 1009.94 382.91 907.50 459.97 837.65 554.25 984.27 566.02
00003249 00000130 712.11 100.27 407.85 579.51 819.98 365.14 1004.29 380.97 903.77 459.09 833.21 553.61 978.83 565.76
00003250 00000131 708.80 97.41 409.74 582.26 816.03 362.79 1003.78 378.99 902.10 459.29 829.18 553.29 978.19 565.51
00003251 00000132 705.24 97.62 409.59 581.31 813.60 362.17 1002.28 378.69 901.46 459.24 824.98 550.39 977.15 562.64
00003252 00000133 703.79 98.68 409.16 580.83 813.78 362.44 1000.43 379.06 902.08 459.25 825.51 550.19 974.66 562.72
00003253 00000134 704.77 98.03 404.09 582.41 819.08 361.09 998.35 379.10 906.30 458.21 830.38 549.47 971.80 563.40
00003254 00000135 706.15 98.05 404.23 581.08 823.02 364.51 1005.03 379.13 913.63 457.99 835.45 549.94 981.57 560.71
00003255 00000136 708.56 97.29 407.67 583.20 830.30 363.78 1012.47 375.49 923.45 455.91 844.53 548.28 992.12 556.49
00003256 00000137 711.45 99.03 406.79 578.09 838.82 363.57 1019.41 372.49 935.73 456.67 855.40 548.77 998.41 554.80
00003257 00000138 718.18 99.40 402.72 582.58 849.42 364.47 1029.35 375.62 951.81 458.62 867.45 553.91 1009.33 562.05
00003258 00000139 721.16 94.87 405.61 588.25 856.40 364.19 1036.54 373.51 963.23 460.87 876.96 555.36 1019.57 562.02
00003259 00000140 723.37 94.99 405.93 585.42 863.80 363.46 1041.26 368.95 973.07 461.47 886.60 557.28 1025.79 561.01
00003260 00000141 728.17 95.12 402.57 585.04 871.47 362.80 1049.33 368.11 984.13 462.06 894.11 558.11 1033.83 562.22
00003261 00000142 731.63 98.64 399.58 582.44 876.99 364.39 1054.76 369.16 991.32 462.77 900.15 559.55 1040.32 563.56
00003262 00000143 733.61 100.32 397.83 580.98 880.38 364.76 1058.67 369.54 996.79 463.19 904.27 559.06 1046.26 563.05
00003263 00000144 733.46 102.49 398.39 580.85 884.08 366.56 1062.22 371.24 1001.59 462.68 910.36 562.80 1049.78 566.66
00003264 00000145 738.51 105.31 400.64 583.22 888.03 362.26 1066.45 371.32 1003.15 453.03 914.25 554.98 1051.91 563.44
00003265 00000146 738.63 107.60 401.40 584.93 889.31 365.17 1069.55 373.73 1006.83 455.13 915.88 558.24 1054.97 566.34
00003266 00000147 738.27 109.83 402.05 583.79 890.38 367.31 1071.05 373.61 1009.71 458.75 918.59 561.81 1057.36 568.10
00003267 00000148 738.46 113.04 401.16 585.39 889.81 370.72 1069.78 375.21 1009.35 462.62 918.12 565.01 1057.28 570.07
00003268 00000149 736.22 111.75 399.38 593.10 883.35 374.76 1062.78 378.54 999.78 468.58 910.55 567.30 1050.58 572.01
00003269 00000150 730.39 114.38 396.62 590.89 872.78 381.43 1051.49 381.83 995.41 478.09 901.39 581.79 1043.90 581.20
00003270 00000151 725.20 114.50 399.59 597.06 867.92 382.71 1045.10 382.26 989.52 479.17 896.56 581.65 1040.30 580.08
00003271 00000152 723.00 113.23 398.86 598.46 863.82 382.68 1043.60 382.11 987.01 479.51 893.82 582.90 1039.89 581.00
00003272 00000153 716.88 110.58 402.70 604.37 860.43 383.98 1039.55 383.68 983.54 481.32 891.93 584.10 1036.99 582.02
00003273 00000154 706.02 111.06 408.34 603.24 856.27 393.34 1037.85 386.92 974.71 490.92 882.25 585.60 1031.75 579.57
00003274 00000155 700.07 110.84 410.91 599.99 850.64 393.19 1034.69 386.58 969.38 491.61 878.01 584.79 1028.67 578.49
00003275 00000156 697.90 111.38 409.17 598.90 849.47 393.03 1033.70 385.80 969.62 491.57 876.81 583.83 1027.18 577.29
00003276 00000157 697.73 114.03 406.70 597.42 851.15 393.50 1034.86 386.84 972.51 491.67 879.66 585.40 1027.85 579.48
00003277 00000158 698.81 115.58 404.34 597.29 854.71 395.11 1035.19 386.18 976.41 492.28 884.07 586.66 1030.31 578.66
00003278 00000159 698.90 116.23 405.22 599.48 855.49 395.82 1035.52 386.42 977.76 492.66 884.17 587.57 1031.60 579.14
00003279 00000160 697.68 115.75 405.62 600.25 853.40 395.37 1035.25 386.70 975.89 492.50 882.94 588.05 1030.36 580.41
00003280 00000161 697.50 117.42 405.98 599.84 854.29 395.87 1036.26 388.95 976.73 494.27 880.74 588.08 1029.18 582.00
00003281 00000162 697.83 117.43 404.84 595.15 855.43 395.69 1036.96 389.62 976.78 494.57 883.38 588.48 1028.70 583.26
00003282 00000163 697.51 118.09 405.19 595.03 855.37 395.92 1037.33 389.90 976.96 494.70 883.37 589.16 1028.44 584.11
00003283 00000164 696.54 117.89 406.22 598.29 855.03 395.97 1036.67 390.95 976.04 494.84 881.46 590.50 1025.67 586.52
00003284 00000165 696.10 119.14 404.83 595.72 853.47 397.01 1036.16 392.26 974.92 495.47 879.85 591.25 1023.83 587.57
00003285 00000166 695.87 118.83 403.80 594.57 851.74 396.56 1035.73 393.32 972.61 494.67 877.45 590.22 1022.07 587.88
00003286 00000167 694.64 118.08 405.58 599.01 848.69 397.16 1033.24 393.41 969.62 495.01 873.44 590.20 1020.22 587.48
00003287 00000168 693.72 119.12 406.27 597.87 846.53 397.45 1032.91 394.70 966.98 496.53 871.06 590.86 1018.29 589.06
