Video ID: 	3Cpv_vAvIFM
H: 	1080
W: 	1920
FPS: 	25.0

FRAME INDEX X0 Y0 W H [Landmarks (5 Points)]

00001682 00000000 387.50 103.86 512.40 742.64 589.85 360.49 815.38 378.41 753.79 484.97 619.63 640.30 808.19 652.61
00001683 DELETE   392.53 105.34 515.97 736.52 608.35 356.69 834.05 369.81 783.91 478.79 647.50 641.86 833.95 650.11
00001684 DELETE   400.61 105.34 514.26 733.79 626.31 361.07 849.82 369.98 808.75 478.63 671.60 642.52 853.08 647.56
00001685 00000003 409.75 115.23 504.88 728.18 636.89 362.75 857.52 370.05 817.59 478.65 685.33 646.86 857.92 650.22
00001686 00000004 409.20 116.14 505.71 728.57 637.11 361.95 858.32 370.31 817.77 479.58 684.40 647.76 857.50 652.03
00001687 00000005 408.14 116.59 505.59 730.86 634.61 361.99 856.40 371.62 815.52 480.31 679.04 648.42 853.71 653.83
00001688 00000006 408.64 116.07 506.40 731.55 634.96 362.06 857.74 370.77 815.65 481.09 679.44 648.21 854.76 652.76
00001689 00000007 410.33 119.58 508.74 727.16 639.08 362.31 863.40 370.30 821.06 482.90 686.89 648.29 861.38 652.18
00001690 00000008 413.16 121.37 510.02 725.36 645.48 365.45 868.62 370.92 831.66 481.02 695.63 647.59 870.85 649.29
00001691 00000009 417.05 122.47 507.32 719.74 652.37 364.65 872.62 371.25 838.23 479.91 701.95 646.40 874.70 649.25
00001692 00000010 415.89 123.04 510.06 725.68 651.34 364.50 873.40 373.18 834.78 483.55 695.74 647.81 871.27 652.55
00001693 00000011 415.43 121.52 514.03 738.46 648.07 363.14 870.09 375.05 826.68 485.81 689.70 653.24 864.13 660.91
00001694 00000012 414.47 123.44 515.68 747.23 646.17 363.66 871.08 375.67 826.13 489.91 683.50 659.11 864.41 667.29
00001695 00000013 419.88 124.06 512.43 746.37 648.06 368.37 877.59 375.39 830.74 493.03 683.80 658.65 873.52 662.73
00001696 00000014 423.15 124.54 512.70 738.22 653.74 371.25 878.82 378.20 834.66 489.98 687.74 656.08 873.43 660.49
00001697 00000015 420.18 111.85 520.03 744.14 655.79 373.37 872.24 390.05 840.73 485.46 686.24 646.09 876.29 657.39
00001698 00000016 420.41 113.31 518.58 733.45 647.35 376.33 866.35 386.96 828.08 491.15 676.87 643.76 872.25 650.21
00001699 00000017 420.52 123.54 515.86 728.24 643.06 380.62 867.30 381.35 820.95 491.76 678.39 652.31 867.23 651.10
00001700 00000018 417.62 121.68 515.82 739.38 639.22 381.80 862.39 384.15 815.19 494.96 669.68 656.38 859.46 656.63
00001701 00000019 414.93 121.58 519.51 750.36 633.86 382.59 858.30 385.84 808.52 495.96 665.64 662.02 855.95 662.77
00001702 00000020 413.98 122.88 517.02 752.49 628.20 384.72 854.33 385.38 803.87 498.22 664.25 666.29 853.73 664.58
00001703 00000021 411.26 122.82 516.13 754.25 622.31 386.27 849.00 384.90 798.11 499.11 662.20 668.70 850.56 664.82
00001704 00000022 410.05 120.12 515.22 755.93 617.62 388.18 844.60 385.00 792.40 499.90 660.90 670.30 848.04 664.55
00001705 00000023 410.06 119.94 513.11 755.67 611.71 388.66 841.13 383.28 785.74 501.23 656.98 671.16 845.01 663.26
00001706 00000024 408.27 116.98 511.52 757.11 608.19 387.45 839.10 382.65 780.69 503.88 653.31 669.82 840.94 661.89
00001707 00000025 405.15 115.53 510.65 757.58 604.28 384.55 834.71 380.87 775.11 503.68 648.04 668.53 834.44 661.53
00001708 00000026 401.21 114.32 509.64 758.21 600.29 381.62 829.48 378.47 769.74 503.91 641.95 666.43 827.40 659.69
00001709 00000027 397.60 113.85 508.41 760.48 596.75 381.11 824.36 378.90 763.86 507.78 635.45 665.50 820.49 659.42
00001710 00000028 396.55 114.93 506.75 758.75 593.12 381.64 821.76 378.72 760.32 509.37 632.60 665.21 818.32 658.27
00001711 00000029 395.50 115.03 507.39 758.07 591.58 381.71 820.17 377.54 759.17 509.75 631.05 665.54 817.49 657.59
00001712 00000030 390.82 112.93 513.87 758.86 591.58 377.06 816.33 378.42 758.79 512.09 628.95 663.32 819.36 661.67
00001713 00000031 391.39 112.52 513.82 760.32 593.23 376.35 817.64 378.30 760.23 512.85 629.27 663.54 820.21 662.35
00001714 00000032 396.57 114.64 508.31 760.22 594.49 379.92 823.69 376.68 762.51 510.09 632.01 665.61 820.31 658.62
00001715 00000033 397.38 115.95 509.43 759.73 597.10 378.59 825.36 375.46 765.66 507.39 632.48 664.61 822.52 657.93
00001716 00000034 400.18 116.52 509.85 759.59 600.17 376.94 829.42 374.50 768.89 505.53 633.73 663.46 825.21 657.63
00001717 00000035 403.85 117.12 509.67 757.91 602.70 375.18 833.41 372.87 772.72 501.94 636.61 662.72 829.22 657.38
00001718 00000036 408.86 117.99 507.14 754.30 605.63 373.52 837.07 370.86 775.74 498.84 641.07 660.93 833.52 655.50
00001719 00000037 409.42 116.48 509.23 753.01 607.80 370.32 839.74 368.35 778.33 493.05 643.71 658.11 836.39 653.46
00001720 00000038 410.59 113.04 510.92 754.74 610.05 368.80 842.91 367.15 780.46 490.51 644.74 656.16 838.68 651.96
00001721 00000039 411.89 112.46 510.85 753.04 611.71 367.36 844.64 366.12 781.82 488.05 647.27 654.71 840.03 650.88
00001722 00000040 412.45 112.63 512.04 752.37 612.63 367.25 846.36 365.01 783.19 488.61 648.28 655.36 841.15 650.88
00001723 00000041 413.83 113.77 512.90 751.70 614.21 368.27 848.05 365.52 784.64 490.13 650.51 656.12 842.79 651.28
00001724 00000042 415.01 113.90 513.02 751.69 616.62 368.11 850.12 366.05 787.63 489.49 652.97 656.45 844.74 652.32
00001725 00000043 417.30 114.73 512.07 750.27 619.65 368.30 852.05 365.87 791.52 488.40 655.95 656.76 846.97 652.47
00001726 00000044 419.29 114.47 511.86 749.89 622.54 369.21 853.42 366.10 793.30 488.70 658.56 656.88 848.61 652.11
00001727 00000045 421.51 114.99 511.92 748.73 623.88 369.91 855.10 367.09 794.24 489.29 660.67 657.64 849.86 653.23
00001728 00000046 423.46 115.72 512.80 748.23 624.75 371.46 856.24 368.84 794.83 491.00 661.85 658.29 851.22 654.08
00001729 00000047 424.93 116.02 513.82 748.16 626.16 373.33 857.94 370.97 796.22 493.17 663.19 659.26 852.28 655.31
00001730 00000048 427.10 116.08 513.45 748.37 628.38 373.03 859.91 371.93 798.47 494.04 668.17 661.57 853.83 658.76
00001731 00000049 428.71 115.58 514.38 749.89 629.41 374.39 862.70 372.18 799.68 497.01 672.16 663.89 856.40 660.23
00001732 00000050 431.18 115.98 512.95 749.92 631.23 375.31 864.63 372.26 801.96 498.06 674.62 664.76 859.16 660.41
00001733 00000051 434.66 108.72 510.72 755.66 634.55 371.54 865.64 380.96 801.77 504.12 668.52 657.66 863.24 663.16
00001734 00000052 436.76 109.55 509.94 754.87 637.01 372.11 867.42 382.62 804.22 502.73 670.30 658.28 864.02 664.76
00001735 00000053 437.35 109.69 510.46 755.18 638.15 372.56 867.71 383.03 804.55 503.11 671.49 658.01 864.05 664.50
00001736 00000054 437.95 111.81 510.62 753.42 639.07 372.28 867.21 383.27 805.14 502.23 672.82 657.72 863.32 664.69
00001737 00000055 438.36 113.48 511.68 751.21 639.53 373.78 867.73 384.84 806.04 502.02 674.88 658.41 864.26 665.36
00001738 00000056 438.02 114.57 512.56 749.95 640.37 374.11 868.61 385.65 807.60 502.23 675.83 658.74 865.00 666.05
00001739 00000057 437.66 114.66 513.45 749.58 641.02 373.95 869.73 386.26 808.60 502.33 675.61 657.83 865.80 665.67
00001740 00000058 437.58 114.41 513.02 749.57 641.89 373.68 870.30 387.10 809.61 502.77 674.05 657.03 865.57 665.79
00001741 00000059 437.98 115.44 512.56 748.68 641.83 374.27 870.59 387.91 809.53 503.68 673.65 657.23 865.95 666.16
00001742 00000060 436.88 116.06 513.06 748.61 641.06 375.60 870.16 389.25 809.16 504.69 671.61 657.82 866.24 666.75
00001743 00000061 436.58 115.29 512.44 749.48 640.60 376.74 869.85 390.51 808.69 506.19 670.84 658.61 865.96 667.64
00001744 00000062 435.93 115.06 511.70 749.51 639.48 378.24 868.86 391.56 807.70 506.37 670.14 659.20 865.75 667.85
00001745 00000063 435.11 115.22 512.06 750.10 638.73 378.78 867.48 391.64 806.53 507.41 669.68 659.90 864.76 668.18
00001746 00000064 434.76 117.08 511.88 748.93 638.32 379.64 867.06 391.76 806.64 508.76 669.87 661.17 865.01 668.86
00001747 00000065 434.77 117.74 511.60 749.05 637.96 380.45 866.37 392.47 806.30 509.12 669.89 661.61 865.20 669.20
00001748 00000066 434.54 118.52 511.35 747.82 637.96 380.76 866.08 392.65 806.24 509.44 669.82 661.35 865.18 668.84
00001749 00000067 435.14 118.93 511.04 747.75 638.59 381.10 866.29 393.03 806.67 510.08 669.32 660.56 866.02 668.07
00001750 00000068 436.26 118.99 510.51 747.62 639.34 381.18 866.93 393.01 806.96 511.54 669.24 659.86 867.03 667.29
00001751 00000069 436.05 119.39 511.04 747.07 639.56 381.59 867.66 393.49 808.08 510.86 668.60 658.78 868.96 666.22
00001752 00000070 435.70 118.16 511.75 748.88 639.74 382.33 868.61 394.93 808.16 512.41 666.10 657.88 869.65 665.86
00001753 00000071 435.66 118.66 512.18 748.83 639.57 382.87 868.75 394.68 808.56 512.96 665.97 657.80 870.82 665.14
00001754 00000072 436.04 118.30 511.45 748.46 639.85 382.71 868.82 394.81 808.57 512.58 665.43 656.73 870.76 664.29
00001755 00000073 436.42 118.69 510.98 747.79 640.27 382.50 868.86 394.86 808.51 512.41 665.13 655.72 870.78 663.51
00001756 00000074 436.43 118.76 510.97 747.61 640.69 382.36 868.97 394.71 808.85 512.43 665.22 655.46 870.60 663.27
00001757 00000075 436.25 118.76 511.03 746.83 640.95 382.67 869.29 395.49 809.09 511.69 666.72 656.18 869.90 664.35
00001758 00000076 436.47 118.69 510.17 745.64 641.75 383.61 869.18 395.10 810.57 512.40 673.42 660.51 869.30 667.61
00001759 00000077 436.44 118.55 509.07 747.18 640.13 384.52 868.42 393.67 810.51 513.96 676.30 664.26 871.42 669.36
00001760 00000078 437.22 120.54 508.32 749.19 640.19 384.93 867.89 393.55 811.06 513.98 678.58 668.01 869.81 672.76
00001761 00000079 437.49 121.45 507.91 750.50 641.25 384.91 866.88 393.54 812.32 511.59 680.71 669.72 867.94 674.61
00001762 00000080 440.39 121.84 504.66 748.31 648.09 381.72 865.82 393.98 814.98 501.36 684.38 661.77 867.97 669.92
00001763 00000081 438.46 113.32 507.26 746.65 659.09 373.37 871.30 393.16 828.15 484.82 691.27 648.66 869.92 662.66
00001764 00000082 436.61 105.03 509.16 739.45 663.10 353.12 874.35 369.31 840.53 464.52 701.52 630.47 882.05 640.97
00001765 00000083 441.42 95.48 500.70 729.71 667.51 338.62 879.08 357.45 847.83 445.40 708.48 610.30 890.19 622.14
00001766 00000084 442.98 89.63 497.22 721.32 670.13 332.29 882.34 357.62 853.22 433.91 711.42 597.58 892.81 614.32
00001767 00000085 440.70 81.92 500.80 721.62 669.71 329.60 882.61 353.94 853.44 421.53 713.87 589.15 894.97 604.78
00001768 00000086 444.31 83.83 500.42 709.97 665.83 333.78 884.10 344.71 846.81 426.27 707.96 594.19 892.63 601.83
00001769 00000087 443.68 83.83 500.21 714.21 665.49 332.82 884.72 345.19 847.53 425.32 699.54 590.64 891.95 600.25
00001770 00000088 443.34 84.78 500.39 714.19 664.72 332.86 885.15 344.92 848.66 423.30 692.79 587.87 892.05 598.08
00001771 00000089 441.50 85.39 501.67 714.01 664.27 333.24 883.73 344.21 848.04 423.09 688.30 585.75 890.24 595.39
00001772 00000090 440.79 84.65 502.25 714.33 663.95 333.30 883.28 343.94 847.72 423.35 688.18 586.00 889.60 595.34
00001773 00000091 440.00 86.09 502.76 714.28 663.86 333.29 883.11 344.30 847.51 424.46 687.35 586.28 889.15 595.91
00001774 00000092 440.19 86.70 503.20 714.45 664.42 333.34 883.55 344.50 847.51 426.29 688.75 587.12 889.28 596.66
00001775 00000093 436.04 88.83 503.78 717.94 664.85 327.49 883.50 350.89 858.12 420.86 685.87 582.61 889.81 598.64
00001776 00000094 435.94 90.71 504.04 717.63 665.07 328.47 883.14 349.63 856.87 425.40 690.58 586.38 890.60 600.25
00001777 00000095 436.56 92.04 504.05 715.33 668.36 341.11 885.14 365.77 858.59 431.32 690.86 591.29 891.03 608.60
00001778 00000096 434.36 96.50 509.79 716.18 667.14 345.29 883.98 367.56 858.29 436.67 687.02 595.77 889.02 611.55
00001779 00000097 434.99 95.65 506.02 719.90 667.22 340.40 883.50 363.38 856.50 439.86 686.61 597.47 887.18 613.48
00001780 00000098 435.73 96.11 502.79 723.32 665.67 336.66 880.91 358.48 855.19 440.92 688.44 599.43 887.29 614.17
00001781 00000099 435.16 94.49 502.47 727.76 668.67 335.15 880.67 357.56 856.48 443.09 695.41 601.63 887.39 616.53
00001782 00000100 435.30 92.87 502.46 730.51 670.36 334.91 880.66 357.70 855.99 444.01 702.10 603.76 888.47 618.78
00001783 00000101 435.54 93.11 502.03 729.32 670.33 335.26 881.04 359.28 853.68 445.69 706.05 605.73 888.52 621.66
00001784 00000102 437.03 92.49 501.11 728.85 672.49 335.78 882.89 359.21 854.24 449.46 707.27 606.92 888.81 622.47
00001785 00000103 437.74 96.97 501.22 721.16 672.73 336.93 886.75 360.03 856.28 454.26 705.43 608.09 890.14 623.40
00001786 00000104 437.83 96.30 504.57 724.80 676.19 339.81 892.31 363.56 861.50 458.72 707.71 609.99 894.99 625.84
00001787 00000105 437.86 102.88 509.57 725.09 686.96 345.77 899.38 372.89 871.16 472.64 709.05 615.74 895.87 634.84
00001788 00000106 444.22 107.27 509.12 734.01 698.43 352.10 906.58 386.13 882.78 479.12 716.83 624.79 899.70 650.18
00001789 00000107 448.92 109.55 509.53 737.97 707.98 357.22 913.82 392.61 892.54 484.47 721.50 629.09 903.83 656.22
00001790 00000108 448.59 116.22 511.82 736.75 711.43 361.04 917.59 399.24 896.72 490.02 718.07 631.82 903.98 661.62
00001791 00000109 446.38 117.16 516.13 736.11 714.07 364.52 918.94 404.80 897.68 494.54 717.34 632.80 902.01 664.44
00001792 00000110 445.90 118.27 516.29 734.43 714.13 365.76 918.01 409.21 895.67 495.28 714.56 631.56 897.99 665.82
00001793 00000111 444.13 119.66 516.61 733.89 710.81 365.49 915.58 407.43 891.92 496.40 710.51 632.74 894.57 665.99
00001794 00000112 441.40 119.43 516.74 737.07 704.85 363.88 912.62 407.13 885.81 496.01 706.06 633.87 892.57 667.81
00001795 00000113 438.41 117.48 516.54 743.98 697.99 362.37 906.13 404.00 878.53 496.70 698.23 635.73 886.49 668.33
00001796 00000114 434.67 116.96 520.50 747.23 693.22 362.90 903.12 404.13 873.40 496.75 694.38 636.87 884.07 669.02
00001797 00000115 433.32 116.83 521.73 749.26 690.62 362.20 902.09 403.46 871.71 495.60 690.98 636.96 883.54 669.09
00001798 00000116 433.12 116.41 521.89 750.99 689.25 362.23 900.14 402.92 871.16 494.67 688.11 636.24 882.39 668.03
00001799 00000117 433.05 115.44 522.90 751.89 689.37 361.04 901.77 401.76 871.92 493.85 691.09 637.81 884.20 669.48
00001800 00000118 435.21 115.41 521.38 752.41 691.38 359.72 902.44 400.77 872.71 493.37 693.60 638.10 884.36 670.10
00001801 00000119 434.21 113.84 523.14 753.08 692.15 359.16 904.35 399.40 872.99 494.76 701.39 642.41 886.83 673.36
00001802 00000120 436.07 112.34 521.43 752.52 693.40 358.62 904.10 398.60 871.93 492.81 712.02 644.42 889.50 674.74
00001803 00000121 439.66 109.24 518.62 756.04 695.27 357.38 904.43 394.38 872.54 490.78 723.04 647.49 892.66 675.26
00001804 00000122 440.84 106.84 518.51 761.46 695.39 356.37 905.36 392.80 873.74 490.02 724.93 650.43 893.48 677.81
00001805 00000123 440.56 105.44 519.75 763.41 696.27 356.59 906.09 393.17 874.15 490.76 726.87 651.96 893.31 679.46
00001806 00000124 439.33 104.39 519.92 764.08 692.89 355.38 903.24 389.15 871.66 488.24 727.04 651.70 893.64 676.72
00001807 00000125 437.95 101.45 520.29 766.30 688.22 352.20 900.27 385.33 866.91 484.58 722.67 650.24 891.71 674.55
00001808 00000126 433.87 101.31 523.67 767.09 684.66 351.50 897.35 384.03 863.89 482.06 719.73 648.85 890.77 672.51
00001809 00000127 433.26 99.87 521.08 767.71 679.92 352.58 893.32 381.76 857.34 483.44 713.19 648.74 886.07 669.85
00001810 00000128 430.31 102.85 522.99 766.76 675.46 353.55 889.37 383.48 852.35 486.13 706.29 649.97 880.23 671.67
00001811 00000129 423.51 108.10 525.48 771.55 667.50 352.91 886.23 385.12 852.06 487.11 685.84 652.38 872.24 676.60
00001812 00000130 417.72 111.74 527.03 768.74 659.63 359.34 883.13 384.92 845.16 494.17 685.42 658.46 874.57 676.80
00001813 00000131 415.62 112.62 526.51 763.81 651.98 362.80 881.08 383.78 838.93 498.36 680.83 658.70 876.23 673.21
00001814 00000132 412.69 112.50 526.11 761.83 646.09 367.68 876.94 384.11 832.11 505.10 678.58 662.77 873.47 673.47
00001815 00000133 411.98 113.56 524.89 761.19 650.55 366.87 875.46 380.46 835.26 510.22 684.23 665.97 871.26 674.48
00001816 00000134 411.55 115.69 524.71 758.34 653.58 366.78 876.46 377.47 839.26 509.60 689.60 664.06 875.66 669.92
00001817 00000135 413.46 111.58 522.14 759.27 659.83 362.10 877.32 372.02 845.95 500.23 695.27 657.23 879.52 662.56
00001818 00000136 413.27 107.29 521.41 760.89 661.28 352.77 876.08 362.92 852.71 483.82 693.31 645.73 882.80 651.24
00001819 00000137 414.19 101.91 519.27 761.73 658.58 341.47 874.59 350.68 852.98 469.65 682.48 631.75 880.77 636.57
00001820 00000138 411.78 99.97 519.39 757.23 659.00 352.89 868.91 351.46 846.81 459.98 682.95 625.08 873.52 622.75
00001821 00000139 414.00 88.91 516.12 762.54 653.59 347.61 867.06 343.05 842.75 451.77 682.89 622.56 875.40 617.67
00001822 00000140 413.88 85.71 514.86 759.66 649.62 345.31 864.46 339.86 841.46 444.46 681.49 617.40 875.50 611.94
00001823 00000141 412.71 83.19 513.44 758.55 645.08 344.00 861.55 337.09 836.55 442.54 681.76 617.50 874.80 610.53
00001824 00000142 411.81 82.85 511.57 755.70 643.13 344.89 859.88 337.79 834.07 443.03 683.29 618.83 874.06 611.66
00001825 00000143 409.55 84.40 512.27 751.67 641.27 346.47 857.51 339.16 831.95 444.40 681.61 618.66 871.56 611.39
00001826 00000144 407.45 85.57 513.18 750.28 641.41 350.15 855.96 344.59 830.93 447.28 679.23 619.55 867.91 613.95
00001827 00000145 402.06 95.63 515.89 743.89 640.42 359.96 850.59 357.43 830.78 451.11 673.55 621.34 861.94 618.09
00001828 00000146 401.12 98.15 513.41 743.29 633.88 357.43 848.77 354.46 824.22 452.79 666.67 623.18 858.84 619.23
00001829 00000147 402.54 101.68 512.74 743.26 630.36 356.29 846.96 348.59 819.25 454.14 664.93 624.91 859.09 616.72
00001830 00000148 402.24 105.92 512.74 740.77 628.56 356.56 846.46 349.12 817.99 455.10 662.99 625.50 858.63 617.35
00001831 00000149 403.54 108.43 511.62 739.07 629.01 357.81 846.81 349.40 818.40 455.72 663.32 625.91 859.89 616.95
00001832 00000150 404.43 110.96 511.89 736.96 630.49 359.30 847.67 350.26 819.85 456.45 664.10 625.59 861.24 616.09
00001833 00000151 405.24 111.53 512.29 737.99 631.74 360.09 848.37 350.40 820.66 456.89 664.84 625.58 862.47 615.51
00001834 00000152 406.52 111.12 511.62 738.40 632.49 359.97 849.82 350.40 820.53 457.45 664.92 626.01 863.38 616.16
00001835 00000153 409.22 111.18 510.59 737.03 632.94 359.41 852.01 349.13 819.95 458.04 665.16 625.49 865.02 615.10
00001836 00000154 410.16 110.76 510.61 737.58 634.03 358.59 852.53 348.61 820.15 458.24 666.07 625.28 864.81 615.13
00001837 00000155 410.61 110.07 510.98 738.92 634.85 356.79 854.11 348.44 820.72 458.77 668.33 626.21 865.74 617.28
00001838 00000156 410.00 108.53 509.28 746.80 637.33 357.28 853.59 354.53 821.50 462.36 676.48 633.49 864.20 628.66
00001839 00000157 409.30 111.28 509.65 745.96 636.81 359.29 854.61 356.81 820.75 467.14 680.37 639.98 865.60 634.90
00001840 00000158 407.82 113.70 510.61 743.56 634.50 359.55 853.32 356.12 817.89 469.77 678.69 641.97 863.47 636.15
00001841 00000159 405.15 115.90 514.89 741.77 632.06 362.37 850.26 356.88 815.06 470.56 674.08 641.61 860.58 634.27
00001842 00000160 400.61 114.94 517.78 746.39 625.72 365.82 846.37 356.55 810.82 473.33 657.26 641.27 854.34 631.08
00001843 00000161 398.27 116.46 515.66 750.45 615.68 364.82 837.04 352.40 801.27 472.33 643.26 643.09 845.49 630.11
00001844 00000162 397.23 112.27 513.79 755.55 606.26 365.85 829.06 351.86 785.32 471.47 634.02 642.39 839.14 627.80
00001845 00000163 394.86 108.34 514.11 761.00 596.07 368.15 822.57 352.32 773.00 472.12 625.61 642.68 834.17 626.12
00001846 00000164 394.89 108.21 513.25 760.87 592.93 368.76 820.11 352.44 768.03 472.96 621.93 641.24 831.82 624.23
00001847 00000165 394.97 110.52 513.70 756.92 593.77 368.88 821.68 353.22 770.82 473.18 623.43 641.72 833.16 625.28
00001848 00000166 396.35 108.81 515.10 754.94 600.67 367.53 826.22 353.61 776.92 472.66 637.74 643.66 838.86 628.47
00001849 00000167 398.11 111.91 518.67 753.17 613.28 363.03 834.96 351.41 792.33 472.63 663.38 652.23 847.69 638.94
00001850 00000168 403.60 111.87 518.60 755.13 627.40 365.68 847.88 356.42 808.86 478.27 680.56 655.61 861.16 644.45
00001851 00000169 409.32 113.35 517.90 759.45 636.99 371.33 858.98 361.80 822.76 487.66 691.73 665.33 871.85 654.59
00001852 00000170 414.05 118.73 515.19 764.65 639.50 377.73 869.41 371.53 825.15 502.57 689.48 675.83 875.54 668.21
