Video ID: 	lGd7if2PUDo
H: 	1080
W: 	1920
FPS: 	25.0

FRAME INDEX X0 Y0 W H [Landmarks (5 Points)]

00005955 00000000 890.53 171.12 342.02 502.12 956.90 354.71 1110.31 318.22 1024.62 418.03 995.52 541.62 1114.48 515.93
00005956 00000001 893.89 170.58 344.50 501.06 960.42 353.63 1114.15 317.70 1027.39 416.47 998.30 540.28 1119.06 514.69
00005957 00000002 896.43 167.41 345.21 502.98 962.87 353.57 1117.54 317.29 1028.09 416.50 998.39 539.25 1124.06 512.46
00005958 00000003 895.90 154.77 346.75 498.27 957.50 354.46 1115.25 316.99 1027.99 416.06 1002.10 533.03 1133.54 502.92
00005959 00000004 904.79 155.18 338.50 490.41 964.21 347.02 1122.55 313.41 1034.21 413.14 1005.73 530.25 1132.36 504.08
00005960 00000005 908.21 154.26 337.80 490.67 968.30 340.51 1127.71 312.70 1038.68 412.24 1008.79 524.77 1139.13 501.83
00005961 00000006 911.34 149.96 339.41 494.39 974.43 337.29 1135.56 312.26 1045.45 412.47 1013.16 523.42 1145.08 502.97
00005962 00000007 918.00 150.69 339.30 500.21 981.71 341.12 1143.36 313.02 1056.34 416.48 1019.96 532.65 1148.84 511.45
00005963 DELETE   924.18 161.68 334.54 511.40 1000.30 348.53 1154.91 325.44 1076.89 423.77 1036.90 546.43 1153.57 529.04
00005964 DELETE   932.19 165.41 334.96 522.89 1008.23 352.93 1167.19 332.80 1089.03 434.01 1042.80 557.91 1166.12 542.05
00005965 00000010 931.60 153.83 335.19 535.31 1012.28 357.99 1165.63 342.99 1097.85 438.67 1052.38 555.84 1171.23 545.13
00005966 00000011 935.13 151.86 335.92 534.76 1016.84 358.52 1173.55 341.87 1106.06 440.05 1057.18 556.39 1179.32 544.10
00005967 00000012 936.91 153.48 339.92 530.71 1018.67 357.07 1179.65 342.36 1107.11 438.84 1055.76 552.15 1182.58 541.50
00005968 00000013 939.78 151.64 341.45 527.53 1021.26 355.39 1182.75 343.35 1108.48 438.14 1056.49 547.23 1183.82 538.91
00005969 00000014 941.68 152.12 341.45 521.34 1022.50 355.14 1184.04 343.66 1107.48 437.23 1056.13 540.16 1186.78 532.20
00005970 00000015 941.60 149.21 341.80 522.31 1021.68 354.24 1182.90 341.98 1105.80 434.35 1055.60 538.39 1186.87 529.74
00005971 00000016 940.05 150.53 344.10 523.01 1021.40 353.34 1180.97 341.37 1104.62 434.02 1054.85 537.14 1186.46 528.55
00005972 00000017 939.50 151.58 344.44 523.11 1020.68 353.06 1178.79 340.57 1102.37 432.64 1053.74 536.75 1184.62 527.67
00005973 00000018 937.65 151.12 345.81 522.37 1019.13 352.76 1176.42 340.79 1100.18 433.83 1052.53 535.86 1182.28 527.14
00005974 00000019 936.30 151.25 346.18 519.81 1017.46 351.74 1175.12 341.19 1098.62 435.76 1050.86 534.22 1181.25 526.55
00005975 00000020 936.22 150.20 345.14 522.71 1016.03 351.80 1171.69 341.43 1094.01 434.74 1048.76 535.37 1176.34 527.91
00005976 00000021 935.07 150.32 346.84 523.98 1013.76 354.47 1168.71 342.82 1090.78 435.75 1047.49 536.83 1174.37 528.39
00005977 00000022 934.82 150.58 347.11 524.83 1012.05 358.55 1166.12 345.21 1089.23 437.24 1046.99 539.34 1172.90 529.38
00005978 00000023 935.16 152.59 346.05 524.25 1011.11 358.73 1163.11 344.48 1087.86 437.15 1047.25 542.15 1169.86 531.60
00005979 00000024 936.18 151.71 344.50 526.35 1010.72 358.76 1162.34 343.10 1087.23 437.70 1048.42 546.19 1167.90 534.66
00005980 00000025 944.43 167.22 341.84 517.37 1011.69 353.90 1164.34 337.11 1091.85 438.74 1049.40 548.88 1165.11 538.69
00005981 00000026 946.90 169.22 340.81 515.12 1013.08 355.45 1165.83 338.27 1092.96 439.54 1050.12 549.52 1166.33 539.39
00005982 00000027 948.38 168.96 341.04 515.96 1015.98 358.78 1168.50 342.81 1094.91 440.40 1048.87 547.03 1169.97 538.39
00005983 00000028 950.56 169.04 340.03 516.20 1018.22 361.27 1170.44 344.74 1095.77 441.71 1050.68 548.20 1171.27 539.11
00005984 00000029 952.57 169.93 340.45 514.53 1020.07 360.41 1172.35 344.42 1096.02 440.88 1050.88 547.35 1171.53 538.87
00005985 00000030 953.80 168.72 340.94 516.27 1021.89 358.52 1175.53 341.29 1097.12 437.65 1052.10 547.70 1172.95 538.16
00005986 00000031 956.01 168.58 339.76 514.70 1023.95 356.47 1177.94 338.56 1098.97 437.82 1053.35 548.48 1172.10 539.08
00005987 00000032 957.39 166.38 343.30 524.31 1025.67 354.45 1179.98 335.90 1097.75 434.43 1057.51 550.34 1175.55 540.19
00005988 00000033 963.51 168.06 340.66 534.99 1026.03 354.69 1182.00 332.00 1092.55 431.11 1059.33 555.68 1183.84 541.82
00005989 00000034 967.24 167.11 339.44 548.53 1026.98 355.83 1183.98 333.22 1090.86 438.58 1059.99 559.46 1193.32 544.98
00005990 00000035 969.69 166.29 341.03 551.18 1029.22 360.65 1185.38 340.10 1093.00 446.80 1060.45 562.16 1195.02 548.80
00005991 00000036 968.72 164.98 342.19 547.29 1030.26 366.63 1188.71 347.13 1095.94 454.47 1059.85 562.85 1194.47 550.32
00005992 00000037 967.29 166.33 342.87 542.01 1029.39 368.63 1188.53 349.23 1096.09 456.47 1059.54 562.81 1193.30 550.30
00005993 00000038 964.79 166.51 343.14 533.98 1028.15 365.18 1187.37 346.36 1096.60 449.61 1057.69 558.66 1187.04 547.74
00005994 00000039 965.00 165.53 344.04 528.82 1028.54 359.05 1187.16 336.76 1096.19 437.89 1058.72 551.75 1189.24 537.77
00005995 00000040 968.48 159.02 347.62 528.31 1031.12 356.60 1190.42 330.06 1099.65 432.56 1064.69 549.58 1194.59 531.73
00005996 00000041 974.13 154.94 348.52 528.12 1037.48 352.07 1195.87 327.05 1107.02 433.15 1072.80 549.76 1199.05 532.28
00005997 00000042 984.62 148.51 343.45 535.27 1045.09 349.22 1203.52 325.46 1114.61 431.90 1079.18 549.42 1206.58 532.50
00005998 00000043 989.55 150.43 340.63 533.09 1050.62 348.01 1210.08 326.41 1122.40 434.92 1084.94 551.02 1212.68 535.46
00005999 00000044 991.58 151.90 340.82 532.72 1055.60 348.38 1216.21 328.32 1129.21 433.27 1087.58 551.57 1216.11 537.08
00006000 00000045 992.46 151.15 339.41 530.49 1057.60 349.36 1217.99 330.57 1131.51 433.57 1089.24 549.50 1217.45 536.09
00006001 00000046 991.73 150.53 338.91 523.14 1057.78 350.67 1221.31 332.44 1132.82 431.11 1086.52 544.71 1219.84 531.85
00006002 00000047 985.40 153.66 345.78 514.10 1055.83 350.74 1221.77 332.50 1132.58 431.56 1088.19 538.58 1224.26 525.58
00006003 00000048 984.27 152.27 345.15 510.79 1054.91 348.73 1221.13 328.85 1131.04 427.30 1088.56 535.82 1224.51 521.15
00006004 00000049 983.36 150.79 345.87 506.52 1055.54 344.01 1220.75 325.12 1131.67 423.99 1089.86 531.00 1223.82 516.80
00006005 00000050 983.81 148.29 345.53 505.66 1057.17 340.72 1221.50 321.90 1133.60 420.85 1091.55 528.12 1224.58 513.85
00006006 00000051 987.59 143.60 337.29 509.16 1060.89 332.30 1217.81 322.80 1132.05 414.19 1088.64 525.36 1210.44 517.17
00006007 00000052 986.44 144.35 334.89 511.62 1059.49 331.60 1215.55 323.43 1128.74 414.08 1086.95 526.66 1205.24 519.47
00006008 00000053 981.92 146.44 338.45 505.38 1056.56 331.24 1212.68 324.74 1127.24 416.07 1083.12 522.69 1202.91 516.74
00006009 00000054 978.65 150.63 336.88 498.15 1051.97 333.81 1205.57 324.50 1121.94 414.56 1077.12 518.31 1199.87 509.57
00006010 00000055 973.31 150.61 338.45 498.66 1047.59 334.77 1199.40 325.20 1116.55 416.16 1072.28 517.37 1194.66 508.36
00006011 00000056 965.35 154.26 337.57 494.82 1035.70 341.45 1191.61 329.43 1105.82 420.39 1059.84 512.60 1192.95 504.65
00006012 00000057 963.54 158.27 335.98 486.77 1032.91 341.12 1184.24 327.07 1100.46 415.05 1061.31 516.85 1180.72 504.08
00006013 00000058 954.65 153.28 337.49 490.10 1019.91 338.60 1176.60 319.10 1089.64 412.11 1051.34 518.63 1178.72 504.50
00006014 00000059 950.56 151.39 340.27 492.80 1016.52 340.92 1172.46 321.31 1084.35 412.82 1048.61 519.41 1174.48 505.51
00006015 00000060 951.91 150.71 339.25 496.99 1016.28 342.06 1171.31 323.85 1081.48 415.94 1047.60 521.53 1171.96 508.83
00006016 00000061 958.92 156.51 337.89 493.98 1024.98 346.19 1174.21 332.19 1084.58 419.79 1054.81 525.18 1165.19 513.00
00006017 00000062 960.38 155.49 335.75 507.32 1024.97 350.80 1179.41 335.89 1086.54 430.03 1050.07 531.35 1173.09 522.01
00006018 00000063 964.10 153.30 335.51 510.26 1026.63 353.38 1183.18 339.05 1087.74 432.02 1051.43 532.43 1177.48 523.70
00006019 00000064 968.51 155.48 334.37 507.48 1029.35 354.35 1185.42 340.69 1089.09 434.78 1053.20 533.10 1178.94 524.98
00006020 00000065 970.92 157.19 334.98 505.09 1031.76 354.77 1186.07 341.33 1091.54 435.07 1056.44 533.62 1179.72 525.59
00006021 00000066 971.43 157.05 336.34 504.65 1031.86 356.24 1186.30 342.17 1091.62 434.38 1056.73 534.04 1179.86 525.51
00006022 00000067 971.22 156.69 336.12 503.28 1031.31 356.11 1185.99 341.12 1091.19 433.35 1057.23 534.42 1179.42 525.26
00006023 00000068 968.60 151.92 337.82 508.01 1029.45 356.43 1185.18 339.82 1090.20 432.75 1057.18 537.72 1177.32 527.50
00006024 00000069 968.29 149.79 336.88 514.65 1028.09 355.23 1184.45 337.29 1089.19 431.59 1056.62 541.55 1175.67 530.30
00006025 00000070 970.02 159.92 336.55 536.34 1030.81 351.53 1189.74 326.27 1090.34 424.80 1056.61 553.18 1181.46 538.47
00006026 00000071 971.04 164.34 334.14 541.29 1029.48 353.34 1186.58 328.59 1086.79 427.69 1057.39 555.82 1186.53 541.02
00006027 00000072 970.54 166.38 335.96 541.05 1030.54 352.28 1187.91 328.33 1090.25 428.32 1060.11 554.67 1189.18 540.07
00006028 00000073 964.90 164.54 340.20 527.71 1031.64 354.13 1191.07 333.82 1098.23 431.09 1057.24 546.48 1189.06 534.17
00006029 00000074 959.79 155.57 337.85 525.94 1024.16 361.19 1191.19 342.38 1099.23 438.87 1057.13 546.21 1198.44 532.28
00006030 00000075 956.29 153.69 340.30 527.90 1022.18 361.98 1188.69 342.09 1099.35 437.85 1057.14 547.46 1196.56 532.48
00006031 DELETE   950.59 153.73 341.51 528.03 1014.88 364.75 1180.71 343.43 1091.54 437.97 1051.26 547.53 1191.30 531.01
00006032 DELETE   941.76 153.24 346.68 531.98 1005.23 366.46 1164.47 343.87 1077.34 443.68 1044.51 549.78 1180.81 531.50
00006033 DELETE   927.50 157.96 355.03 510.99 991.47 365.50 1154.55 343.77 1058.15 444.02 1032.36 547.50 1164.55 530.08
00006034 00000079 926.00 155.67 348.95 527.24 982.77 362.65 1136.64 338.23 1041.55 444.59 1025.13 561.12 1144.49 541.58
00006035 00000080 920.52 168.16 349.81 530.21 980.90 357.27 1129.00 328.54 1040.92 444.35 1029.05 569.86 1140.30 547.24
00006036 00000081 918.99 160.28 351.70 541.11 975.72 360.31 1123.74 332.90 1031.69 433.26 1028.77 572.64 1132.64 550.09
00006037 00000082 919.54 171.15 347.78 535.04 981.55 356.13 1127.22 324.89 1042.59 437.27 1030.63 573.83 1136.45 550.08
00006038 00000083 919.91 171.94 347.50 520.72 987.08 356.62 1134.17 326.68 1055.01 440.02 1036.08 566.81 1144.57 543.62
00006039 00000084 922.82 169.78 345.49 516.81 992.14 358.38 1139.51 327.98 1063.49 438.09 1042.14 562.73 1153.54 538.42
00006040 00000085 925.03 169.23 347.93 511.30 996.16 360.16 1149.13 331.53 1072.25 437.96 1043.78 556.44 1163.91 533.07
00006041 00000086 920.25 157.23 351.11 516.34 996.92 361.64 1147.74 336.22 1076.39 433.45 1046.97 547.92 1163.12 527.74
00006042 00000087 922.53 150.69 354.81 520.71 999.96 362.40 1154.19 334.62 1081.48 430.67 1050.47 545.39 1171.17 523.51
00006043 00000088 928.65 149.07 353.52 519.90 1003.40 362.92 1159.08 334.91 1082.85 433.67 1052.89 541.94 1180.21 519.44
00006044 00000089 930.59 151.98 353.61 516.61 1005.89 362.58 1160.42 338.22 1084.50 437.24 1053.35 540.16 1180.41 520.41
00006045 00000090 931.51 153.70 354.79 518.85 1004.91 363.04 1158.40 340.78 1080.18 439.47 1049.58 541.75 1175.74 523.85
00006046 00000091 930.20 152.32 353.77 520.94 1003.16 361.49 1156.56 339.32 1076.03 439.38 1047.67 547.83 1167.34 530.63
00006047 00000092 935.21 164.74 353.28 515.24 1001.28 355.41 1152.74 336.69 1073.12 440.75 1044.69 547.92 1155.97 535.17
00006048 00000093 933.10 163.65 355.12 519.30 999.09 355.35 1151.18 337.78 1069.79 440.96 1043.11 548.29 1154.72 536.44
00006049 00000094 932.95 161.54 352.56 519.90 997.96 354.30 1150.99 335.86 1067.52 438.55 1040.93 549.46 1151.51 537.63
00006050 00000095 932.10 147.59 349.46 531.89 1002.84 359.00 1151.42 338.59 1068.92 435.93 1040.86 553.36 1151.20 538.65
00006051 00000096 936.62 159.65 349.20 523.26 1002.28 350.36 1152.86 331.04 1071.04 433.71 1044.23 550.03 1148.90 537.57
00006052 00000097 938.04 146.47 343.52 531.76 1009.17 354.67 1158.11 335.57 1076.50 432.89 1044.66 551.60 1154.55 538.32
00006053 00000098 940.50 145.13 340.43 531.13 1014.41 356.84 1166.41 336.52 1088.56 434.00 1053.60 553.19 1164.63 538.86
00006054 00000099 941.49 148.83 338.69 535.33 1019.21 357.72 1169.77 334.30 1100.24 430.37 1062.59 556.52 1173.51 539.51
00006055 00000100 942.27 148.38 338.21 536.63 1020.74 357.90 1170.99 333.62 1102.01 428.88 1065.03 556.11 1176.48 538.32
00006056 00000101 940.31 146.02 342.29 540.29 1018.11 359.82 1168.69 333.98 1100.43 433.76 1065.25 557.82 1177.60 538.46
00006057 00000102 937.71 148.02 344.60 535.97 1011.91 361.34 1162.33 335.48 1090.23 438.09 1058.68 558.88 1169.96 539.59
00006058 00000103 938.42 162.20 349.79 522.03 1004.93 354.74 1155.78 335.12 1076.51 438.78 1047.75 551.23 1157.48 538.49
00006059 00000104 934.77 163.09 354.15 521.09 999.98 354.94 1154.66 338.74 1070.24 441.66 1041.02 547.44 1156.83 536.90
CROP_BBOX: 709 0 1513 832
