Video ID: 	MIsEyULumEA
H: 	1080
W: 	1920
FPS: 	25.0

FRAME INDEX X0 Y0 W H [Landmarks (5 Points)]

00108705 00000000 662.24 144.31 404.85 547.33 765.96 384.51 934.04 380.42 856.63 480.80 792.60 566.94 930.21 562.55
00108706 00000001 672.05 146.31 397.15 543.97 781.46 383.29 952.10 388.38 862.13 478.16 799.23 556.27 934.16 561.86
00108707 00000002 672.66 147.23 399.16 538.15 783.22 382.88 956.38 385.63 865.21 478.58 802.35 556.40 936.25 560.23
00108708 00000003 674.76 148.39 398.73 536.28 783.51 381.61 956.48 385.24 864.39 479.75 802.23 556.73 936.80 561.20
00108709 00000004 676.03 146.58 399.37 536.01 785.97 380.13 957.93 383.59 866.88 478.48 804.51 555.20 939.12 559.42
00108710 00000005 677.87 143.52 400.47 539.07 788.63 377.59 958.78 380.42 870.12 478.11 809.56 554.56 942.26 558.40
00108711 00000006 678.61 144.00 403.23 539.99 790.43 375.65 961.02 378.52 871.98 479.01 812.17 553.69 944.86 557.60
00108712 00000007 678.65 144.39 404.50 539.82 789.94 374.38 963.14 377.19 872.57 480.08 811.23 555.92 945.97 559.53
00108713 00000008 680.99 144.83 401.15 532.37 791.31 376.22 961.38 378.95 871.65 477.38 813.21 554.39 942.02 557.68
00108714 DELETE   678.19 132.93 408.74 553.90 788.99 372.88 955.20 381.07 862.87 466.55 806.33 548.05 935.95 556.15
00108715 DELETE   679.43 131.38 400.73 546.23 767.15 361.83 932.87 371.95 831.96 449.11 778.08 538.21 902.69 547.14
00108716 DELETE   672.28 123.80 389.32 544.19 747.50 348.22 904.63 370.55 783.97 435.28 740.73 520.50 862.10 538.28
00108717 00000012 665.64 120.85 380.79 536.63 744.03 338.26 889.52 365.26 761.93 425.48 721.53 512.20 834.94 534.65
00108718 00000013 666.02 124.66 375.37 519.88 741.28 330.60 877.33 362.64 746.89 424.30 714.95 502.68 822.46 529.22
00108719 00000014 664.81 127.52 381.32 538.31 741.54 336.74 884.23 373.08 751.56 433.75 715.03 514.32 826.48 544.11
00108720 00000015 669.88 130.98 385.63 546.87 742.71 350.14 896.57 378.93 771.25 447.86 726.49 529.60 845.14 553.34
00108721 00000016 676.00 139.39 382.50 543.30 747.37 362.93 900.48 384.33 782.86 457.77 745.19 544.47 850.94 562.20
00108722 00000017 676.14 137.23 380.38 543.68 746.89 364.98 897.85 387.08 780.98 461.34 741.55 546.30 846.34 564.52
00108723 00000018 674.76 137.37 380.16 542.03 744.68 362.68 895.73 383.89 776.95 458.17 738.50 545.78 842.22 563.52
00108724 00000019 674.90 134.86 381.47 550.01 744.60 362.66 896.28 381.06 778.54 456.91 742.65 546.78 848.52 561.88
00108725 00000020 676.14 134.46 382.21 545.50 745.67 362.74 897.79 380.20 782.99 458.65 746.56 544.75 853.40 559.11
00108726 00000021 676.30 133.81 382.85 541.11 747.30 361.60 901.75 380.79 786.97 459.98 745.30 542.43 856.95 558.34
00108727 00000022 677.58 133.30 381.42 539.28 747.92 361.14 902.98 380.46 788.00 460.30 746.00 541.75 859.12 557.62
00108728 00000023 676.79 132.82 380.64 544.22 749.26 361.59 904.22 381.29 789.07 460.06 747.89 543.27 859.33 559.41
00108729 00000024 676.46 131.79 381.51 544.00 748.49 359.83 910.13 379.72 794.12 463.31 745.46 546.13 867.42 562.62
00108730 00000025 677.41 134.82 381.44 538.27 750.26 357.83 913.46 378.33 796.38 462.86 746.74 544.85 870.68 561.81
00108731 00000026 677.95 130.57 387.73 544.32 754.11 358.42 917.53 375.82 806.41 458.14 754.77 544.82 882.66 560.85
00108732 00000027 679.93 133.49 387.27 542.05 756.46 360.30 920.43 377.10 810.41 460.56 758.72 547.46 886.81 562.91
00108733 00000028 679.67 136.03 390.54 548.28 757.55 358.92 920.77 375.65 811.59 459.77 760.22 543.08 893.83 557.25
00108734 00000029 678.21 137.70 386.49 547.73 754.36 356.32 920.76 378.21 805.45 465.44 756.65 539.36 893.46 557.27
00108735 00000030 674.51 141.05 394.78 552.69 752.33 366.42 922.76 380.40 810.75 465.72 759.48 542.73 910.82 553.56
00108736 00000031 675.77 142.87 398.23 556.91 756.25 366.97 926.06 380.24 814.97 465.09 763.17 544.35 915.53 554.44
00108737 00000032 683.68 145.58 394.84 554.38 764.98 363.10 928.62 380.90 820.98 468.60 765.96 539.65 913.54 552.95
00108738 00000033 685.37 145.52 395.39 546.42 764.78 364.66 928.12 380.40 821.31 470.25 769.13 538.21 915.93 549.42
00108739 00000034 687.46 149.25 397.93 546.15 768.14 366.57 930.21 379.49 824.50 470.65 774.58 537.85 922.31 546.13
00108740 00000035 690.80 146.51 397.52 554.52 773.89 365.84 933.19 380.74 826.79 469.28 776.30 540.51 915.45 551.30
00108741 00000036 694.23 147.76 397.35 548.77 777.25 371.59 939.16 390.58 826.43 474.62 775.30 543.20 920.26 558.69
00108742 00000037 698.93 151.48 396.11 549.25 782.27 372.50 943.71 386.13 834.62 471.21 780.78 543.41 924.73 552.59
00108743 00000038 702.86 148.19 393.67 543.36 786.10 373.53 945.20 386.54 839.26 470.96 790.11 547.84 921.72 557.06
00108744 00000039 705.82 148.52 393.81 545.42 790.62 376.37 951.73 386.17 848.75 473.95 804.98 559.92 925.77 567.26
00108745 00000040 709.25 157.00 392.70 535.16 792.69 377.82 955.01 384.89 852.68 469.92 809.75 559.75 930.12 564.77
00108746 00000041 712.00 155.48 389.82 531.92 794.64 366.83 958.23 372.21 854.92 449.85 812.28 547.77 930.96 551.17
00108747 00000042 710.11 141.09 399.95 524.42 799.06 353.44 956.84 353.44 859.96 432.22 821.24 528.70 936.53 527.30
00108748 00000043 709.10 126.16 399.08 525.59 804.14 336.87 969.17 341.73 870.13 418.83 817.08 513.67 951.32 518.88
00108749 00000044 711.47 117.52 397.57 540.33 804.18 323.93 966.10 330.58 867.54 408.65 815.14 504.68 953.32 511.49
00108750 00000045 710.27 118.87 396.82 535.90 803.26 322.91 964.88 331.04 866.93 408.08 815.22 502.00 951.87 509.79
00108751 00000046 707.35 122.25 397.05 529.49 800.96 327.98 963.94 334.04 866.84 411.63 815.65 506.59 947.33 512.94
00108752 00000047 709.13 115.84 394.79 533.33 799.19 323.27 960.56 328.73 863.86 406.08 812.27 507.15 939.89 513.19
00108753 00000048 709.60 112.32 393.44 521.25 799.91 318.01 958.53 321.78 866.16 392.17 814.65 495.30 937.49 499.64
00108754 00000049 709.18 105.18 395.34 521.85 799.30 308.91 960.71 313.57 865.14 381.70 813.04 483.00 938.44 488.15
00108755 00000050 708.99 102.25 396.00 523.28 799.18 309.19 962.40 314.40 865.79 382.20 811.77 482.51 940.96 488.14
00108756 00000051 709.18 110.08 392.45 526.85 798.23 315.65 960.08 323.00 862.27 393.07 808.50 491.12 940.28 498.50
00108757 00000052 707.40 115.59 392.01 532.47 795.01 321.24 958.59 329.64 858.67 403.08 806.87 499.27 941.74 507.41
00108758 00000053 707.87 117.59 390.30 518.42 800.18 321.85 960.04 332.44 864.95 399.81 809.03 490.03 941.01 499.46
00108759 00000054 708.03 118.91 390.34 504.05 801.72 319.84 961.67 329.55 868.48 396.61 809.35 483.09 940.88 491.41
00108760 00000055 708.32 112.93 393.67 510.32 798.36 324.43 961.24 329.28 865.45 398.92 809.50 488.60 937.64 492.11
00108761 00000056 698.93 129.57 397.61 501.95 798.43 338.97 959.83 348.16 862.50 420.95 807.39 499.74 934.73 507.26
00108762 00000057 698.25 130.92 401.69 510.08 800.18 341.97 963.24 350.78 866.22 429.33 811.35 508.31 939.40 515.58
00108763 00000058 704.01 127.22 397.32 508.27 802.28 340.29 966.32 346.37 870.82 419.39 813.94 507.80 945.64 513.25
00108764 00000059 705.18 123.06 399.13 520.90 802.50 334.63 967.96 339.83 873.48 416.69 817.40 509.11 949.29 514.36
00108765 00000060 698.92 126.12 408.25 527.83 799.79 337.75 966.78 344.62 869.95 422.55 815.22 509.72 951.31 515.44
00108766 00000061 696.90 127.96 408.25 525.06 799.58 340.88 965.65 348.86 868.36 427.78 814.33 513.13 947.95 519.93
00108767 00000062 698.74 127.52 405.96 525.88 801.15 339.10 966.65 348.03 869.98 425.17 814.17 509.62 950.36 517.22
00108768 00000063 699.14 126.57 408.79 527.60 801.74 338.34 968.56 346.91 871.49 423.21 814.78 508.98 953.15 516.05
00108769 00000064 697.30 128.24 408.33 524.05 801.41 342.27 967.40 351.24 870.53 433.10 814.34 513.94 948.05 521.46
00108770 00000065 704.02 137.52 402.52 524.17 802.60 357.90 958.63 357.16 871.43 435.01 824.21 525.99 937.12 524.22
00108771 00000066 705.70 139.84 401.35 527.09 804.03 358.03 961.85 359.51 874.02 437.92 824.43 528.15 939.62 528.36
00108772 00000067 706.21 144.63 398.33 528.74 803.32 358.56 962.75 362.83 874.35 442.94 822.53 533.05 938.72 535.87
00108773 00000068 702.09 151.73 402.80 533.40 800.16 364.98 963.68 369.06 875.24 449.73 820.29 541.63 942.14 544.47
00108774 00000069 699.57 154.48 405.20 536.04 798.38 376.04 962.13 380.25 873.69 458.37 816.69 547.02 944.25 549.92
00108775 00000070 699.46 157.29 405.34 536.62 796.84 381.35 962.44 385.10 873.07 466.39 811.78 548.04 948.70 550.39
00108776 00000071 701.54 160.76 402.63 533.44 794.75 386.82 961.07 389.26 872.29 478.21 810.88 556.23 950.49 557.68
00108777 00000072 694.04 175.42 405.87 536.42 794.51 391.04 959.10 398.54 870.13 486.97 808.62 568.10 945.53 574.79
00108778 00000073 693.10 179.63 406.72 540.61 792.93 390.94 958.18 400.08 867.34 488.51 805.25 571.82 945.82 579.93
00108779 00000074 690.54 179.03 406.79 532.52 791.71 394.07 958.18 403.34 866.63 491.21 800.86 569.32 942.78 577.40
00108780 00000075 695.97 169.06 402.80 530.93 789.78 392.29 954.39 398.53 861.16 493.46 802.96 569.96 937.22 574.55
00108781 00000076 694.20 170.32 401.78 535.49 789.98 390.89 952.00 398.58 860.38 492.53 802.91 565.38 936.70 570.40
00108782 00000077 688.20 179.54 406.66 531.31 787.44 393.40 951.95 401.17 860.09 492.56 800.68 568.01 935.02 574.71
00108783 00000078 688.33 176.94 404.12 536.53 786.09 394.89 948.38 401.14 858.75 495.10 806.38 576.00 929.30 581.57
00108784 00000079 688.40 174.40 402.85 541.35 784.81 394.42 945.61 400.05 858.93 491.22 809.19 581.79 924.85 587.01
00108785 00000080 689.02 170.83 402.25 544.32 785.20 391.47 944.46 397.35 858.68 488.06 808.96 579.48 922.85 585.04
00108786 00000081 687.41 165.64 402.84 546.27 785.00 389.38 943.05 394.47 857.24 481.89 805.53 571.69 922.07 576.51
00108787 00000082 690.21 153.72 403.07 542.99 787.38 382.79 945.96 384.79 857.21 467.55 810.67 562.98 925.64 564.38
00108788 00000083 692.45 150.39 405.17 534.52 786.40 371.32 952.72 370.61 862.80 457.61 811.83 551.51 937.95 550.12
00108789 00000084 685.08 139.65 415.37 530.99 786.00 358.41 959.99 356.69 860.95 449.63 811.16 538.67 948.39 536.94
00108790 00000085 685.31 131.66 414.51 525.55 790.94 351.68 960.46 349.13 868.06 436.77 819.09 526.90 951.45 525.19
00108791 00000086 686.13 127.34 411.09 528.70 792.75 343.56 962.11 344.99 870.19 426.44 815.92 516.14 953.76 517.61
00108792 00000087 687.18 125.93 408.68 528.45 793.90 341.14 961.83 345.07 869.99 424.97 813.98 512.52 952.45 516.19
00108793 00000088 684.22 127.47 412.33 531.15 791.77 342.49 959.25 344.89 867.08 427.51 812.50 513.29 952.72 515.46
00108794 00000089 685.63 131.03 411.88 536.16 783.97 349.35 954.04 344.92 866.10 431.99 807.44 522.27 947.93 516.95
00108795 00000090 683.24 136.19 413.73 538.92 779.33 353.88 952.94 346.89 865.22 440.34 801.35 523.43 954.83 515.73
00108796 00000091 683.83 141.12 413.47 552.82 781.83 356.59 956.69 351.49 867.75 447.78 801.77 532.09 956.91 525.78
00108797 00000092 686.42 154.01 407.77 530.86 782.27 368.82 959.09 363.41 874.39 467.33 801.98 533.76 961.04 527.83
00108798 00000093 681.82 181.57 408.10 517.68 785.38 383.69 962.12 378.00 876.22 482.72 799.90 551.14 961.73 546.45
00108799 00000094 680.19 191.93 412.47 517.99 786.08 396.72 960.34 389.14 875.44 492.50 803.62 566.06 966.19 559.96
00108800 00000095 682.00 195.10 413.28 518.61 787.76 397.37 962.60 387.63 879.15 489.73 812.61 573.80 968.84 565.66
00108801 00000096 689.09 180.64 408.38 532.73 793.55 382.31 965.71 376.61 884.47 479.23 813.85 560.00 974.04 554.91
00108802 00000097 690.87 168.58 403.90 524.83 795.14 365.37 971.07 357.95 889.60 457.51 818.74 543.78 972.18 536.91
00108803 00000098 690.66 158.53 410.71 536.54 795.65 358.94 971.91 354.28 886.89 451.85 816.41 536.32 971.32 531.32
00108804 00000099 687.80 147.28 412.93 536.57 793.21 363.36 973.49 359.29 879.64 460.64 813.33 536.92 973.01 533.46
00108805 00000100 682.79 157.02 414.21 534.84 789.99 370.44 971.68 364.12 879.42 473.35 808.40 543.13 971.52 538.30
00108806 00000101 678.26 168.29 413.54 527.75 783.61 385.72 965.02 378.61 872.14 482.10 801.43 550.38 966.13 544.80
00108807 00000102 683.79 162.53 409.64 538.59 783.88 388.95 950.78 387.24 869.32 485.53 799.89 550.62 957.41 547.33
00108808 00000103 683.10 159.39 410.16 539.39 782.92 386.42 952.03 385.55 868.80 481.07 796.04 547.15 955.75 544.72
00108809 00000104 685.83 157.39 408.58 546.23 784.73 384.60 953.31 384.72 871.29 479.93 797.47 547.96 956.94 546.25
00108810 00000105 683.99 170.46 405.61 542.78 790.35 388.27 954.84 391.02 872.21 479.76 803.26 558.96 950.87 561.76
00108811 00000106 685.08 172.48 402.93 536.20 790.92 391.29 953.37 391.27 872.43 484.19 808.58 564.99 944.57 565.81
00108812 00000107 690.03 159.14 407.00 538.15 789.01 387.30 951.56 384.50 871.82 481.17 816.07 560.13 950.06 556.64
00108813 00000108 689.10 157.45 407.52 536.42 788.96 385.83 951.79 382.99 872.22 478.68 816.87 559.46 948.61 556.17
00108814 00000109 687.55 156.91 407.12 542.18 789.82 385.31 950.49 383.88 871.94 477.00 818.43 561.26 946.47 558.93
00108815 00000110 683.31 168.25 404.68 538.08 789.26 389.16 951.41 387.95 870.48 478.69 811.06 564.16 940.13 564.03
00108816 00000111 686.71 156.06 408.72 545.10 787.61 385.87 950.46 382.76 869.95 476.49 816.30 565.15 945.90 561.43
00108817 00000112 687.56 156.36 409.64 530.90 785.90 387.80 951.37 382.34 868.46 481.30 814.64 570.94 943.14 566.12
00108818 00000113 688.44 153.51 410.15 533.73 787.25 386.94 951.16 381.01 868.73 480.57 816.88 571.57 943.61 566.27
00108819 00000114 685.74 166.25 404.82 537.61 790.57 388.44 954.60 387.22 872.84 483.10 810.39 570.81 941.20 570.53
00108820 00000115 685.40 166.80 404.54 540.16 791.49 387.49 955.00 386.07 874.43 481.02 811.86 567.98 943.77 567.69
00108821 00000116 684.11 160.50 413.05 532.17 788.28 385.33 957.16 382.47 865.61 482.97 814.05 555.26 954.62 553.09
00108822 00000117 684.19 156.74 410.62 535.50 789.89 384.77 957.94 381.49 868.57 480.35 815.02 551.72 956.67 549.29
00108823 00000118 685.04 155.82 409.41 533.62 790.77 386.16 957.95 382.77 869.41 478.98 816.16 551.14 956.75 548.54
00108824 00000119 684.84 155.36 411.24 532.66 792.52 387.05 963.83 383.80 871.93 476.15 815.95 551.04 960.09 548.39
00108825 00000120 684.06 156.05 411.81 535.45 791.86 385.11 965.23 382.52 872.26 477.22 815.67 552.87 960.68 550.88
00108826 00000121 683.19 157.27 412.49 531.13 788.48 386.04 962.02 380.21 870.37 478.51 816.89 556.45 958.77 551.67
00108827 00000122 683.36 156.75 411.18 528.31 788.09 383.04 958.55 377.82 867.90 479.01 817.30 556.62 953.93 552.43
00108828 00000123 683.63 157.60 411.74 527.14 789.23 379.43 958.05 374.48 867.71 478.46 818.88 555.92 951.93 552.13
00108829 00000124 683.89 158.97 412.98 527.74 789.44 378.98 958.17 374.96 867.21 479.27 818.58 556.49 951.69 553.48
00108830 00000125 685.93 159.47 412.39 531.32 790.18 378.41 958.10 375.24 867.42 479.44 819.29 558.47 951.63 556.17
00108831 00000126 691.43 164.86 406.02 540.06 794.58 378.07 957.03 375.06 877.26 470.82 822.38 563.42 948.80 561.30
00108832 00000127 691.80 167.58 404.74 538.08 799.70 382.52 961.97 381.62 881.27 469.31 824.26 561.56 952.49 561.18
00108833 00000128 691.82 165.74 404.83 530.06 797.74 384.50 961.82 383.10 879.64 472.84 820.15 561.55 950.75 560.67
00108834 00000129 687.75 159.06 411.79 533.45 793.18 382.88 964.36 383.19 870.67 475.96 815.08 554.98 955.83 555.53
00108835 00000130 688.73 156.84 411.91 536.66 793.48 382.47 964.01 381.61 871.17 475.75 816.35 555.86 956.22 555.53
00108836 00000131 692.37 161.38 406.37 533.52 795.99 381.35 961.45 379.94 879.38 470.82 818.48 560.05 950.70 559.09
00108837 00000132 693.69 162.32 405.63 534.68 797.24 378.72 961.84 378.49 880.13 468.80 819.95 558.92 951.23 558.89
00108838 00000133 694.09 161.27 404.34 536.18 797.51 376.61 962.82 376.15 880.81 466.68 820.27 557.38 952.08 557.15
00108839 00000134 695.04 159.05 404.40 536.77 797.46 375.15 963.76 374.41 881.39 464.18 819.60 555.78 953.66 555.34
00108840 00000135 692.93 148.76 410.25 542.49 796.94 374.68 966.12 372.23 875.33 461.75 820.24 549.30 960.79 547.85
00108841 00000136 693.24 147.51 410.68 541.73 797.75 373.95 968.74 370.91 877.74 461.05 821.55 548.15 963.26 546.06
00108842 00000137 694.25 145.83 411.80 540.34 798.96 373.32 970.22 370.66 878.75 461.35 822.45 546.51 964.01 544.67
00108843 00000138 694.47 144.82 410.82 539.02 799.80 372.60 971.18 370.06 880.01 460.37 823.37 545.60 963.98 543.83
00108844 00000139 695.98 145.42 409.78 537.25 800.54 372.73 972.12 369.91 880.33 459.86 823.73 545.07 964.58 543.11
00108845 00000140 697.06 144.69 409.82 536.39 800.98 372.25 972.89 369.65 880.87 459.32 824.15 544.12 965.14 542.25
00108846 00000141 697.52 143.03 410.11 536.71 800.97 371.46 974.09 368.30 881.43 458.47 824.95 543.60 966.25 541.26
00108847 00000142 697.82 141.15 410.56 537.64 801.39 370.11 973.73 367.92 881.00 457.08 824.85 541.20 965.87 539.62
00108848 00000143 699.38 140.83 409.37 538.73 801.73 369.69 973.83 367.83 881.65 457.36 825.54 540.17 967.85 538.67
00108849 00000144 700.20 141.44 409.72 538.59 802.58 370.43 974.16 367.84 882.45 458.46 826.70 540.57 968.59 538.46
00108850 00000145 698.27 144.28 411.76 532.30 802.66 374.73 972.38 368.36 883.84 459.35 829.88 540.43 971.12 534.79
00108851 00000146 699.46 145.94 410.85 524.67 797.57 372.55 964.94 356.21 887.96 446.63 835.40 541.03 965.97 526.25
00108852 00000147 685.42 140.66 418.17 515.01 788.32 364.20 958.21 346.30 871.73 443.32 829.96 533.34 965.41 518.16
00108853 00000148 682.74 134.59 411.21 511.84 783.64 354.17 950.36 339.32 862.85 435.18 819.21 520.53 955.49 508.31
00108854 DELETE   678.87 129.85 411.30 520.18 773.12 349.25 941.19 332.06 851.84 435.29 812.52 521.78 945.51 507.81
00108855 DELETE   662.85 128.09 408.12 527.35 758.11 345.43 916.90 329.86 832.72 435.57 795.77 520.79 927.15 508.32
00108856 00000151 657.24 118.77 403.93 517.21 747.72 337.77 905.55 322.51 822.65 423.04 784.13 506.32 917.89 493.40
00108857 00000152 652.90 110.75 405.08 522.25 743.54 330.30 902.88 315.41 822.26 420.41 779.22 502.14 916.89 489.34
00108858 00000153 648.91 121.50 406.14 525.86 738.85 339.46 902.33 326.45 817.68 433.88 776.61 514.87 915.73 503.57
00108859 DELETE   648.52 137.89 411.20 530.53 740.59 364.03 909.61 353.02 819.31 457.27 778.54 540.98 913.48 531.72
00108860 00000155 657.98 156.27 409.00 538.29 747.50 383.72 909.41 367.07 825.64 470.54 787.63 563.01 922.23 547.52
00108861 00000156 663.80 166.10 407.37 532.76 753.94 389.61 916.11 372.38 834.84 483.82 791.92 567.25 929.72 551.77
00108862 00000157 678.48 149.43 404.32 542.76 768.36 377.46 934.42 370.87 851.03 479.44 798.95 555.30 939.91 548.41
00108863 00000158 684.06 143.29 407.52 538.88 776.26 374.15 946.30 368.68 850.06 472.20 805.32 551.97 942.85 547.71
00108864 00000159 686.55 138.16 412.73 539.64 784.55 365.56 955.17 364.41 857.47 461.53 808.67 543.89 945.92 542.92
CROP_BBOX: 446 0 1312 843
