Video ID: 	CTlkXhkP6bo
H: 	1080
W: 	1920
FPS: 	29.97002997002997

FRAME INDEX X0 Y0 W H [Landmarks (5 Points)]

00058576 00000000 578.09 80.08 503.16 639.28 724.11 316.02 942.60 371.13 799.05 396.72 689.61 527.93 866.53 572.71
00058577 DELETE   579.02 80.81 501.13 640.00 727.20 315.41 946.49 369.77 808.24 396.55 695.46 528.33 874.13 572.53
00058578 00000002 586.00 82.08 492.47 639.44 729.22 317.50 948.94 366.73 813.03 397.68 699.99 531.29 881.35 571.51
00058579 00000003 583.78 81.85 491.34 641.56 728.37 318.89 947.30 366.87 815.41 398.95 701.06 532.90 881.80 572.11
00058580 00000004 583.68 82.39 488.20 643.31 725.98 321.61 944.57 365.82 813.49 401.82 698.35 535.13 880.85 571.25
00058581 00000005 577.99 83.40 489.19 643.02 722.56 322.61 938.44 366.52 808.62 400.29 693.91 535.70 872.27 571.70
00058582 00000006 572.18 82.62 489.41 646.84 715.08 322.54 929.22 363.66 798.93 402.06 686.17 537.65 862.72 571.52
00058583 00000007 559.17 81.21 495.17 652.27 704.38 324.35 916.85 360.59 788.02 407.11 679.45 543.15 848.41 573.28
00058584 DELETE   547.40 78.07 502.27 672.58 694.94 325.75 902.57 356.85 772.19 406.84 671.37 549.46 833.67 575.56
00058585 DELETE   544.97 94.23 493.35 669.34 687.34 323.81 910.03 358.57 761.85 403.57 650.90 557.69 826.26 586.40
00058586 00000010 538.52 95.49 497.83 684.40 680.68 320.49 904.76 356.72 748.69 404.40 638.95 567.74 809.52 598.24
00058587 00000011 533.05 93.59 502.42 694.44 673.23 318.28 899.62 356.73 740.07 406.58 628.11 569.19 800.96 602.01
00058588 00000012 532.23 93.96 502.18 696.23 670.01 319.92 897.70 357.38 737.19 408.30 625.35 571.34 798.43 603.57
00058589 00000013 533.74 92.47 501.76 694.63 668.63 322.27 899.01 360.38 739.25 411.82 629.63 571.34 807.37 603.61
00058590 00000014 537.73 88.12 501.09 689.72 669.70 323.16 902.86 365.05 744.75 418.35 637.99 568.59 819.13 602.90
00058591 00000015 540.20 86.68 500.41 687.24 667.74 325.73 903.93 370.41 746.29 427.59 640.65 570.53 823.76 606.69
00058592 DELETE   539.51 95.84 509.54 685.01 672.19 332.81 898.69 373.13 747.86 428.83 647.84 568.49 825.21 603.61
00058593 00000017 539.89 80.88 497.69 700.72 664.65 336.91 901.93 374.52 743.20 448.12 638.63 586.49 834.18 616.96
00058594 00000018 542.03 84.13 497.95 704.72 664.59 341.42 903.55 378.83 745.25 458.42 641.47 594.56 839.60 624.65
00058595 00000019 546.22 96.35 494.42 694.06 664.62 344.54 906.65 389.94 747.44 461.66 641.32 595.70 843.19 632.03
00058596 00000020 546.02 91.60 492.31 703.70 666.97 348.71 903.98 388.85 747.75 479.19 646.41 603.93 844.72 635.94
00058597 00000021 547.12 95.42 489.44 698.70 667.34 352.65 905.08 393.32 748.54 483.86 647.05 606.87 844.95 639.21
00058598 00000022 547.26 99.49 488.71 692.86 667.09 355.10 906.41 396.33 749.48 487.00 647.30 609.69 845.29 642.42
00058599 00000023 548.20 100.81 486.69 688.55 666.77 356.24 906.10 397.09 748.96 487.88 647.28 609.67 844.79 642.10
00058600 00000024 548.20 100.99 486.33 685.67 666.28 357.85 905.48 398.38 747.84 488.36 647.46 609.63 843.33 641.79
00058601 00000025 546.92 102.34 485.44 683.33 665.20 361.82 902.29 401.96 746.12 490.34 647.59 609.87 841.15 641.67
00058602 00000026 543.00 103.93 487.13 683.45 663.09 365.25 900.27 405.04 745.44 493.08 646.20 612.52 839.51 643.84
00058603 00000027 541.57 104.87 488.19 686.02 660.72 367.13 898.96 407.72 743.32 497.04 643.74 615.10 838.64 646.94
00058604 00000028 538.47 106.92 488.91 687.58 657.85 370.60 897.06 412.88 740.84 503.49 639.70 619.04 836.69 652.36
00058605 00000029 537.96 118.85 487.95 675.49 659.81 373.15 893.42 422.61 738.70 503.07 632.18 611.81 832.89 651.94
00058606 00000030 537.07 126.03 484.89 672.49 656.12 376.07 890.11 423.13 734.52 509.17 630.72 616.36 829.17 654.87
00058607 00000031 532.86 130.27 485.06 671.79 652.88 378.30 886.57 424.34 732.03 510.52 628.27 620.55 822.56 658.28
00058608 00000032 531.64 132.94 481.59 671.08 650.26 380.59 882.08 423.06 730.26 512.24 627.88 625.83 815.58 660.96
00058609 00000033 529.31 130.08 481.51 673.06 647.82 382.74 879.04 422.93 731.09 505.97 625.64 625.05 814.54 657.93
00058610 00000034 526.66 126.45 482.74 673.61 644.44 380.67 875.36 419.94 728.73 498.62 623.77 621.37 812.60 653.42
00058611 00000035 524.79 124.88 480.52 671.70 642.50 382.04 873.08 420.39 728.53 492.74 621.31 619.72 810.73 650.96
00058612 00000036 526.38 124.32 476.66 672.30 640.63 391.13 870.11 423.02 726.29 491.61 620.66 622.11 812.64 647.99
00058613 00000037 520.79 118.99 482.32 678.85 639.16 399.20 867.88 423.52 721.19 492.10 618.58 626.85 809.22 645.97
00058614 00000038 520.90 126.45 480.08 676.51 638.14 391.97 866.22 424.55 721.49 495.42 615.40 621.58 808.62 647.97
00058615 00000039 518.19 127.45 479.33 685.51 636.80 389.46 863.10 422.17 718.57 497.59 613.84 625.28 804.34 652.15
00058616 00000040 516.13 134.17 479.85 685.98 638.91 390.69 857.68 422.08 717.92 501.68 619.79 632.20 791.09 658.96
00058617 00000041 514.56 135.42 480.40 691.18 638.58 390.26 857.75 423.16 718.67 505.07 617.53 636.01 788.45 664.04
00058618 00000042 514.30 136.37 479.66 686.99 636.43 390.51 855.68 423.04 717.42 508.72 617.50 636.08 787.68 663.78
00058619 00000043 513.21 136.87 478.97 684.11 634.80 390.24 854.32 423.28 716.47 511.81 616.84 635.92 787.49 663.83
00058620 00000044 513.15 137.85 478.22 680.73 632.51 391.42 854.17 425.04 715.30 516.62 615.46 637.08 788.41 665.37
00058621 00000045 512.77 141.11 477.39 677.73 632.27 392.72 854.02 426.37 715.18 519.55 615.14 638.50 787.25 667.01
00058622 00000046 512.40 143.65 477.27 676.31 632.28 394.28 853.88 427.89 716.17 522.39 615.21 640.20 786.71 668.74
00058623 00000047 514.42 146.41 475.83 675.73 632.76 395.96 854.48 428.87 716.70 524.79 616.50 642.96 786.73 671.09
00058624 00000048 513.32 147.20 478.23 687.96 634.77 396.84 856.67 430.68 718.40 527.68 616.55 647.90 787.83 676.92
00058625 00000049 513.87 155.69 482.98 692.95 639.87 399.02 857.32 434.28 720.95 525.59 624.90 647.36 787.11 676.63
00058626 00000050 511.15 144.57 481.43 696.96 637.12 394.87 858.83 429.59 721.72 524.31 617.02 647.44 790.57 677.17
00058627 00000051 511.38 142.07 482.40 692.42 637.07 392.80 859.81 427.08 721.98 521.94 618.34 642.72 795.29 671.74
00058628 00000052 511.72 139.82 483.75 688.88 635.91 391.58 861.73 425.16 722.36 520.95 618.43 640.14 800.70 668.30
00058629 00000053 513.88 139.97 482.04 687.22 635.42 391.67 862.65 424.28 722.62 520.48 617.72 639.16 805.29 666.34
00058630 00000054 513.80 141.33 481.68 685.42 635.45 391.71 862.90 424.78 722.58 521.29 616.36 638.43 806.84 665.95
00058631 00000055 514.29 142.56 481.14 680.18 635.38 391.48 863.10 425.79 722.09 522.30 615.74 637.31 806.43 665.78
00058632 00000056 513.90 142.74 481.55 678.20 634.49 391.44 862.44 426.12 721.02 522.72 615.63 637.01 806.31 665.70
00058633 00000057 513.04 142.73 482.32 677.09 634.20 391.83 862.16 427.64 720.26 524.29 614.28 636.40 806.09 665.85
00058634 00000058 514.21 144.78 480.68 673.49 633.36 392.48 861.93 428.23 718.82 524.79 613.81 636.70 805.39 666.15
00058635 00000059 513.99 146.30 480.72 671.17 632.85 393.30 861.19 429.68 717.45 526.40 612.70 636.48 803.76 666.42
00058636 00000060 512.98 146.82 481.32 671.21 632.68 394.68 860.73 431.33 717.35 527.83 612.62 637.30 803.24 667.46
00058637 00000061 513.68 148.52 480.80 669.26 631.98 395.10 860.14 431.83 715.93 528.75 611.94 637.59 802.46 667.80
00058638 00000062 512.92 148.99 481.27 669.42 632.67 395.35 860.84 432.43 717.01 528.57 612.52 637.83 803.07 668.36
00058639 00000063 514.70 149.27 480.04 667.93 632.97 394.58 861.11 432.06 716.69 528.77 612.89 637.26 802.75 668.10
00058640 00000064 515.84 148.47 478.83 668.86 633.81 394.61 862.16 432.18 717.72 528.51 613.42 637.16 803.74 668.12
00058641 00000065 516.60 148.36 478.36 668.36 634.44 394.69 862.98 432.71 718.42 528.50 613.62 636.77 804.44 668.08
00058642 00000066 516.77 148.30 478.11 669.27 634.59 394.99 863.45 433.38 718.47 529.32 613.95 637.42 804.58 669.06
00058643 00000067 517.46 149.25 477.64 668.56 634.76 395.01 863.88 433.37 718.48 529.81 613.90 637.63 804.94 669.26
00058644 00000068 516.98 149.37 478.43 668.51 634.60 395.28 864.11 433.56 718.92 529.30 614.28 638.12 805.55 669.67
00058645 00000069 517.77 149.96 478.53 668.23 636.02 395.16 864.80 433.94 719.38 528.90 614.74 637.66 805.65 669.62
00058646 00000070 517.79 149.63 479.31 670.11 635.92 394.93 864.91 433.63 719.09 528.79 615.11 638.66 806.19 670.63
00058647 00000071 518.16 149.11 478.51 671.13 636.66 395.04 864.95 433.79 719.85 528.43 615.72 638.81 806.11 670.81
00058648 00000072 518.19 149.18 478.75 671.06 637.08 394.73 865.50 433.91 720.16 528.45 615.96 638.58 806.57 670.91
00058649 00000073 518.59 148.79 478.69 671.37 637.35 394.54 865.89 433.73 720.66 528.46 616.17 638.44 806.83 670.81
00058650 00000074 518.54 148.18 478.78 672.55 638.14 394.37 866.21 433.58 721.63 527.93 616.95 638.31 807.88 670.68
00058651 00000075 519.12 149.43 476.85 672.87 639.14 398.63 863.60 435.23 722.29 526.96 618.37 639.61 808.43 669.68
00058652 00000076 521.77 152.60 473.58 671.19 638.21 412.44 862.37 442.61 721.63 529.30 619.59 644.94 812.35 669.44
00058653 00000077 521.75 152.09 472.74 672.99 638.49 414.22 862.03 443.30 721.94 529.14 619.83 645.29 812.83 668.87
00058654 00000078 521.53 150.65 473.78 675.79 639.13 410.20 862.40 441.66 721.86 528.57 619.08 644.32 811.03 669.91
00058655 00000079 519.84 149.05 475.63 679.53 638.40 406.26 863.30 440.26 721.16 528.67 617.78 644.46 810.11 672.32
00058656 00000080 519.06 150.29 476.98 680.02 638.80 404.37 863.83 439.73 721.21 528.58 617.92 643.83 810.48 672.78
00058657 00000081 519.50 150.61 476.92 680.40 639.67 402.86 864.97 439.23 721.84 528.92 617.63 643.60 809.60 673.49
00058658 00000082 518.99 149.00 477.96 683.48 640.10 402.12 865.98 438.30 723.55 529.40 618.13 644.20 810.59 674.02
00058659 00000083 519.57 149.38 478.03 684.60 641.03 401.76 867.07 437.16 724.91 529.43 619.09 644.89 811.33 674.20
00058660 00000084 520.14 149.04 478.03 685.80 642.09 401.27 868.10 436.85 726.31 529.28 620.09 645.02 812.15 674.50
00058661 00000085 520.40 148.27 478.34 688.00 643.19 401.41 869.67 437.12 728.27 529.35 621.10 645.58 814.27 675.15
00058662 00000086 520.79 149.05 478.89 687.82 644.76 401.97 871.58 438.02 730.34 529.71 622.26 646.18 815.87 676.02
00058663 00000087 522.81 158.02 482.92 684.50 647.02 404.25 875.05 444.56 732.94 530.89 629.07 645.57 817.64 677.75
00058664 00000088 522.80 158.15 483.80 685.41 647.95 403.80 876.51 444.39 734.63 530.57 629.97 646.33 818.11 678.71
00058665 00000089 523.74 158.68 483.14 685.86 648.90 403.86 877.61 444.35 735.96 531.07 630.90 646.73 818.66 678.99
00058666 00000090 523.60 158.36 483.09 686.55 649.22 404.27 878.05 444.62 736.93 531.48 631.29 646.98 819.27 679.07
00058667 00000091 523.49 158.28 482.55 686.48 649.23 403.63 878.25 444.24 737.32 531.28 631.03 646.65 819.35 679.00
00058668 00000092 522.99 158.62 483.62 686.30 648.85 403.16 877.90 443.93 736.72 530.59 630.51 646.17 819.39 678.61
00058669 00000093 522.30 158.49 483.68 685.54 648.18 402.46 877.40 443.69 735.72 530.21 629.91 645.39 819.32 678.22
00058670 00000094 521.79 158.22 485.29 685.95 647.99 402.07 876.76 443.66 734.87 529.53 629.00 644.74 818.68 677.87
00058671 00000095 520.76 158.01 485.10 686.74 647.56 402.22 875.66 443.80 734.34 529.70 628.13 643.96 817.72 677.11
00058672 00000096 520.74 158.13 484.56 686.39 647.17 402.22 874.99 443.65 733.63 529.46 627.79 643.64 817.56 676.70
00058673 00000097 520.71 158.15 485.17 685.71 646.87 402.43 874.55 443.80 733.07 529.36 627.56 643.71 817.12 676.73
00058674 00000098 520.91 157.71 484.82 686.18 646.84 402.53 874.72 444.00 732.84 529.59 627.48 643.74 817.28 676.85
00058675 00000099 520.75 158.01 485.09 686.04 647.07 402.48 874.59 444.19 732.72 529.47 627.57 643.61 817.08 676.97
00058676 00000100 520.98 158.16 484.65 685.50 647.08 402.08 874.70 444.12 732.80 529.33 627.45 643.32 817.26 676.94
00058677 00000101 521.03 158.52 484.40 685.08 647.39 401.83 874.92 444.03 733.16 529.05 627.50 643.20 817.29 676.93
00058678 00000102 520.73 157.60 485.17 686.46 647.48 401.84 874.88 444.07 733.14 529.18 627.53 643.06 817.24 676.81
00058679 00000103 520.95 157.68 484.71 686.57 647.46 401.65 874.95 443.73 733.30 529.12 627.50 642.99 817.41 676.64
00058680 00000104 520.84 157.33 484.93 687.56 647.55 401.79 874.76 443.61 733.02 529.30 627.46 643.08 817.35 676.48
00058681 00000105 520.95 157.14 485.16 687.87 647.33 402.23 874.84 443.90 732.76 529.71 627.47 643.42 817.72 676.67
00058682 00000106 520.99 157.61 483.77 688.29 646.71 404.59 872.95 444.31 732.11 530.52 627.47 644.53 817.39 676.14
00058683 00000107 521.00 158.58 483.62 688.88 646.79 405.02 872.71 444.26 732.20 530.42 627.06 645.05 816.98 676.30
00058684 00000108 521.16 158.51 483.39 689.20 646.80 405.18 872.60 444.29 732.08 530.63 627.04 645.40 817.03 676.54
00058685 00000109 520.86 158.73 483.72 689.62 647.08 405.05 872.58 444.40 732.17 530.45 626.91 645.24 816.73 676.61
00058686 00000110 520.86 158.76 483.38 690.01 647.24 405.01 872.60 444.43 732.29 530.40 626.92 645.31 816.65 676.71
00058687 00000111 520.86 158.54 483.34 690.67 647.14 405.15 872.43 444.34 732.20 530.87 626.96 645.56 816.67 676.75
00058688 00000112 521.24 158.86 482.66 690.63 647.22 405.29 872.61 444.38 732.41 531.10 626.80 645.55 816.91 676.67
00058689 00000113 521.21 158.91 482.72 690.49 647.17 405.37 872.44 444.37 732.32 530.94 626.90 645.60 816.63 676.66
00058690 00000114 521.04 158.78 482.74 690.40 646.92 405.43 872.47 444.51 732.30 530.94 626.68 645.68 816.60 676.81
00058691 00000115 520.92 159.01 482.95 690.20 647.08 405.33 872.59 444.60 732.48 530.83 626.60 645.56 816.43 676.89
00058692 00000116 520.92 158.78 482.98 690.37 646.97 405.26 872.63 444.56 732.58 530.77 626.62 645.63 816.56 676.95
00058693 00000117 521.13 158.92 482.80 690.46 647.06 405.35 872.85 444.58 732.72 530.51 626.61 645.81 816.60 677.08
00058694 00000118 521.07 159.14 482.71 690.02 647.02 405.11 872.82 444.33 732.59 530.26 626.61 645.64 816.54 676.90
00058695 00000119 521.19 159.40 482.11 689.59 647.02 405.03 872.74 444.21 732.75 530.21 626.60 645.40 816.50 676.62
00058696 00000120 521.10 159.17 482.22 689.85 647.09 404.96 872.75 444.08 732.67 529.77 626.48 645.18 816.59 676.34
00058697 00000121 521.20 159.42 482.05 689.54 647.10 404.84 873.02 444.08 732.84 529.79 626.27 645.08 816.65 676.37
00058698 00000122 520.51 159.90 483.22 689.23 646.64 405.14 872.67 444.52 732.41 529.53 626.03 645.26 816.65 676.65
00058699 00000123 522.42 161.86 479.78 686.43 647.40 413.17 871.58 449.30 731.59 530.31 627.44 646.48 820.04 674.87
00058700 00000124 522.23 161.99 479.72 685.81 646.04 418.97 871.39 451.70 732.10 531.03 627.90 648.85 822.07 674.49
00058701 00000125 522.84 161.72 479.84 685.70 646.20 418.65 871.72 451.59 731.75 531.74 627.51 648.14 822.77 673.89
00058702 00000126 523.23 161.66 480.16 685.46 645.58 416.34 871.34 449.24 730.36 530.41 627.45 647.20 823.38 672.86
00058703 00000127 522.72 158.83 482.01 690.06 646.58 410.73 872.96 445.63 731.97 528.41 627.29 645.83 822.66 673.14
00058704 00000128 522.12 156.81 483.34 692.71 645.94 407.82 873.02 442.37 732.33 526.53 627.97 644.70 823.45 671.73
00058705 00000129 521.69 154.63 485.76 695.97 647.66 405.07 875.22 440.11 735.63 524.03 630.13 644.12 824.36 671.51
00058706 00000130 522.85 154.25 486.22 698.12 648.62 403.80 875.87 437.38 738.04 523.80 632.72 644.68 826.94 670.86
00058707 00000131 524.62 153.59 484.88 699.75 648.49 403.68 877.06 436.22 740.48 523.81 633.82 645.64 829.71 670.96
00058708 00000132 525.23 152.98 484.42 701.35 649.02 403.78 877.76 435.77 742.20 525.11 635.45 646.70 831.07 671.53
00058709 00000133 525.81 153.16 484.24 701.75 649.44 404.56 878.87 436.54 743.35 526.45 635.68 647.31 832.83 672.11
00058710 00000134 526.16 153.21 484.23 703.42 649.82 405.00 879.63 436.32 744.68 527.67 636.04 648.30 834.20 672.55
00058711 00000135 526.26 153.80 484.22 703.68 650.20 406.20 881.05 437.33 746.22 528.35 636.60 649.82 835.54 673.93
00058712 00000136 525.56 154.67 482.91 704.70 650.40 406.60 880.44 437.15 747.11 530.89 636.77 651.23 835.74 674.88
00058713 00000137 524.76 156.67 481.47 704.17 649.84 408.26 879.76 438.82 746.77 533.18 636.04 653.18 835.63 676.91
00058714 00000138 523.93 157.55 482.14 702.69 648.15 409.51 878.73 441.04 743.79 536.14 634.24 653.49 834.37 678.02
00058715 00000139 523.63 159.09 481.03 694.34 645.45 411.62 877.94 444.37 740.56 539.28 632.71 653.63 832.72 678.97
00058716 00000140 519.57 149.40 480.28 699.34 642.54 411.06 877.31 440.39 737.12 539.67 623.91 655.68 828.39 679.76
00058717 00000141 520.00 149.49 478.37 693.75 642.13 410.04 874.72 440.63 735.16 537.19 623.78 654.05 822.80 679.21
00058718 00000142 520.09 149.27 476.76 688.93 641.37 408.50 872.53 438.79 734.09 534.15 623.88 652.34 819.39 677.33
00058719 00000143 519.75 147.12 477.76 690.05 642.40 405.95 872.36 437.19 734.45 531.26 624.55 650.54 816.72 676.47
00058720 00000144 520.57 147.64 477.74 691.93 644.36 413.54 870.20 441.13 733.76 529.59 626.87 652.13 817.23 674.96
00058721 00000145 523.77 147.32 474.96 699.51 646.11 420.73 871.89 444.90 735.59 530.79 629.31 659.10 817.53 679.39
00058722 00000146 524.33 157.07 480.24 695.99 649.42 419.68 873.88 448.86 741.50 532.26 639.69 659.27 812.45 682.31
00058723 00000147 524.93 158.97 479.30 694.38 648.36 418.06 875.21 447.52 742.81 533.39 640.76 660.85 813.99 684.08
00058724 00000148 526.30 159.74 477.75 694.69 648.45 417.30 876.72 447.35 744.47 538.25 642.61 663.16 818.43 686.87
00058725 00000149 528.03 161.24 478.46 693.45 648.06 418.22 878.62 447.17 744.67 544.08 643.88 666.39 824.11 689.10
00058726 00000150 528.12 162.58 478.80 690.77 649.39 418.43 880.30 447.95 746.43 549.93 645.09 666.88 827.07 689.82
00058727 00000151 528.51 161.08 480.46 689.38 649.38 418.54 881.21 448.89 746.37 551.59 643.27 664.16 830.53 687.41
00058728 00000152 528.35 162.35 481.19 687.45 649.69 417.63 881.90 448.34 746.65 551.72 643.75 663.46 830.90 687.00
00058729 00000153 530.14 162.79 479.83 687.40 650.95 416.45 882.07 448.17 746.37 552.70 644.23 664.45 827.61 689.07
00058730 00000154 529.36 162.69 480.49 688.86 652.18 414.40 882.37 446.28 747.03 550.58 647.33 667.40 818.75 692.71
00058731 00000155 528.80 160.94 480.02 691.86 649.27 414.08 882.09 444.85 744.88 550.04 644.51 669.67 819.43 694.00
00058732 00000156 529.85 158.58 479.21 693.17 648.03 414.46 881.25 445.53 742.73 549.82 642.79 670.04 818.86 694.65
00058733 00000157 529.37 159.33 478.60 692.78 646.98 414.96 880.31 446.04 741.50 549.07 641.35 669.86 818.73 694.50
00058734 00000158 529.26 160.62 478.88 691.46 646.81 416.01 879.98 447.18 740.68 548.49 639.49 670.47 818.49 695.22
00058735 00000159 528.40 160.52 479.80 697.83 647.53 416.52 879.54 447.03 741.09 551.25 640.76 674.32 815.33 698.90
00058736 00000160 526.75 161.97 480.59 695.29 645.74 418.37 880.16 448.46 741.10 553.18 637.48 676.42 816.23 700.49
00058737 00000161 526.84 162.55 479.42 692.53 645.57 418.04 879.77 447.25 742.33 554.01 640.20 673.76 817.45 696.93
00058738 00000162 524.69 152.58 479.01 700.15 644.84 417.42 878.92 444.48 742.14 550.57 635.20 674.50 819.48 697.14
00058739 00000163 527.27 159.15 482.67 691.67 645.16 415.20 883.94 444.54 747.23 549.42 642.45 674.94 822.79 697.95
00058740 00000164 528.97 159.26 483.59 692.87 651.08 412.65 888.98 442.64 753.82 547.59 648.75 675.92 822.05 699.55
00058741 00000165 530.97 160.43 483.18 689.76 653.91 413.79 892.15 441.76 759.01 549.57 655.04 679.11 827.02 700.96
00058742 00000166 533.23 155.81 479.58 695.01 655.06 420.77 889.41 446.04 757.73 557.24 654.16 680.66 834.64 701.61
00058743 00000167 533.44 156.89 478.76 694.14 653.62 423.31 890.64 448.98 757.10 563.89 652.22 680.77 839.31 701.74
00058744 00000168 531.79 158.91 479.63 694.41 652.70 424.42 891.07 450.34 756.98 566.71 650.11 681.68 840.54 702.80
00058745 00000169 529.74 159.91 480.57 693.74 651.84 424.39 890.89 450.63 756.66 567.44 648.15 680.47 840.85 701.78
00058746 00000170 527.91 160.34 481.73 693.61 650.46 424.02 890.01 450.55 754.78 567.66 644.97 678.72 840.24 700.29
