Video ID: 	IH3-cxsxOI8
H: 	1080
W: 	1920
FPS: 	25.0

FRAME INDEX X0 Y0 W H [Landmarks (5 Points)]

00011535 00000000 882.08 166.90 389.55 500.04 1013.63 347.03 1183.67 403.13 1089.01 450.64 981.54 515.94 1130.36 563.97
00011536 00000001 893.78 172.77 378.50 492.91 1024.36 348.44 1192.07 401.97 1101.14 447.50 993.78 513.57 1139.06 560.26
00011537 DELETE   896.79 171.90 375.08 496.09 1035.99 359.37 1196.88 403.01 1115.87 458.20 999.43 516.70 1148.63 554.35
00011538 DELETE   902.59 166.29 371.08 500.78 1045.43 361.80 1204.77 400.62 1127.99 458.29 1009.79 518.80 1158.70 552.58
00011539 00000004 907.70 169.17 366.81 496.99 1050.58 361.17 1210.04 397.28 1136.20 457.27 1016.33 520.88 1166.05 552.77
00011540 00000005 907.99 169.55 364.83 495.73 1054.79 360.20 1212.23 396.06 1141.93 458.05 1022.90 523.29 1167.71 554.86
00011541 00000006 907.67 168.24 364.03 499.10 1055.52 359.41 1212.35 393.74 1144.12 459.46 1027.88 527.73 1166.30 557.82
00011542 00000007 905.46 169.36 367.43 499.41 1038.96 355.72 1208.13 394.35 1135.14 454.02 1022.47 532.49 1161.12 567.19
00011543 00000008 896.47 170.46 373.77 500.71 1029.76 356.16 1196.86 395.55 1123.67 456.28 1013.84 531.75 1151.71 566.12
00011544 00000009 887.48 168.59 376.54 505.03 1018.42 354.57 1187.84 395.71 1109.35 455.37 1000.18 531.21 1139.97 566.60
00011545 00000010 881.03 168.85 376.90 509.03 1011.01 352.89 1179.80 394.65 1099.53 455.57 988.40 532.97 1128.00 568.84
00011546 00000011 876.95 172.46 375.81 514.46 1006.71 353.85 1176.23 398.40 1091.53 454.64 978.65 532.86 1125.26 571.05
00011547 00000012 875.58 175.18 375.22 514.16 1003.69 361.48 1171.01 403.11 1084.36 454.64 976.15 536.45 1121.90 572.26
00011548 00000013 872.24 172.03 377.97 514.52 1000.95 362.34 1168.23 404.69 1082.73 455.88 978.08 538.36 1116.20 573.97
00011549 00000014 869.95 169.67 378.04 510.55 997.80 360.80 1166.46 402.97 1079.94 454.12 979.32 534.66 1116.88 569.29
00011550 00000015 868.56 167.39 376.96 510.30 997.02 355.06 1165.98 394.94 1081.16 452.91 979.59 532.68 1114.53 565.58
00011551 00000016 867.13 160.62 374.09 510.11 993.45 346.33 1161.69 382.73 1080.23 450.10 979.00 530.57 1109.77 560.76
00011552 00000017 865.71 159.75 371.88 508.75 990.68 343.28 1158.68 381.25 1076.59 448.61 972.91 527.00 1108.93 558.80
00011553 00000018 863.81 160.00 372.32 509.34 987.72 341.53 1156.14 378.86 1072.37 444.65 968.99 524.07 1107.39 555.66
00011554 00000019 860.35 160.19 373.01 506.75 983.57 340.65 1151.35 375.65 1068.76 443.37 966.32 523.02 1103.13 552.67
00011555 00000020 855.55 157.13 376.02 507.15 978.72 340.49 1146.93 374.50 1064.90 441.26 964.05 519.71 1103.74 548.52
00011556 00000021 850.07 141.09 375.81 522.06 976.17 335.27 1150.74 373.21 1061.86 432.28 960.46 514.19 1104.58 546.37
00011557 00000022 848.08 134.13 375.80 531.93 975.82 330.17 1148.37 369.99 1060.91 428.01 959.05 515.26 1100.01 548.94
00011558 00000023 846.47 135.58 377.10 531.40 973.54 329.78 1147.07 369.82 1059.24 426.85 957.39 515.18 1100.03 549.01
00011559 00000024 847.55 132.98 376.02 530.49 974.00 329.74 1146.62 370.22 1057.97 426.18 957.78 514.24 1098.06 548.45
00011560 00000025 848.87 131.32 374.80 526.92 974.73 327.95 1147.35 368.31 1057.76 423.33 957.83 511.13 1097.66 545.19
00011561 00000026 849.51 130.26 373.48 523.62 975.21 326.37 1146.75 366.94 1056.40 418.84 956.90 507.53 1096.37 541.76
00011562 00000027 846.93 129.16 375.10 520.83 972.35 320.51 1145.24 360.48 1053.39 413.48 954.14 503.33 1095.38 536.83
00011563 00000028 847.38 129.92 374.80 520.81 970.19 315.50 1144.55 354.07 1051.11 408.95 951.77 501.57 1095.01 533.99
00011564 00000029 848.32 127.96 375.79 530.07 970.53 314.10 1143.84 354.27 1050.49 408.46 951.06 503.86 1092.05 537.40
00011565 00000030 846.03 130.11 378.08 531.86 968.43 315.84 1141.73 355.19 1049.11 410.85 949.91 506.42 1090.62 539.16
00011566 00000031 845.97 133.72 375.55 532.10 968.50 320.76 1139.07 361.34 1047.59 418.70 948.94 510.86 1087.69 544.88
00011567 00000032 845.13 145.04 376.42 524.26 966.69 326.23 1138.28 366.02 1045.64 426.98 947.66 517.20 1087.35 550.75
00011568 00000033 850.80 159.38 374.06 510.04 967.58 338.62 1136.90 374.45 1043.29 444.99 943.76 524.12 1086.08 554.10
00011569 00000034 851.82 167.13 374.36 505.26 968.63 343.10 1137.64 380.96 1042.34 451.68 942.64 527.63 1086.28 559.20
00011570 00000035 850.16 169.55 377.21 503.99 967.99 347.80 1137.91 386.23 1043.04 455.41 943.90 529.54 1087.78 561.28
00011571 00000036 851.82 168.92 377.09 504.98 969.34 349.52 1139.88 388.12 1045.15 456.46 946.02 530.38 1089.93 562.34
00011572 00000037 854.20 167.82 376.59 503.55 971.00 347.46 1140.38 387.61 1044.70 455.54 946.88 527.89 1090.55 561.15
00011573 00000038 853.64 166.54 379.90 502.69 972.33 344.87 1142.66 383.98 1048.09 451.36 949.12 525.44 1093.33 558.16
00011574 00000039 854.23 159.22 379.69 503.27 972.42 339.88 1142.35 380.66 1046.97 445.02 948.23 518.45 1093.96 552.86
00011575 00000040 847.74 141.51 378.59 518.80 971.86 335.52 1142.61 380.46 1047.31 432.18 950.85 512.35 1091.88 550.03
00011576 00000041 846.76 134.43 379.66 521.70 971.34 330.59 1141.84 373.40 1045.91 423.08 951.75 509.72 1089.17 545.31
00011577 00000042 846.51 128.66 378.69 526.93 972.69 326.42 1142.79 369.63 1048.78 414.51 952.03 506.85 1089.65 542.70
00011578 00000043 847.12 127.38 376.09 521.00 972.61 325.27 1141.62 368.48 1046.12 409.51 950.91 500.53 1088.33 536.26
00011579 00000044 848.84 129.73 372.86 508.14 967.18 327.22 1137.77 363.61 1039.34 402.30 949.43 494.59 1089.76 524.79
00011580 00000045 848.29 129.53 371.04 504.00 967.51 323.71 1135.16 361.67 1039.21 397.20 947.41 488.28 1087.16 519.85
00011581 00000046 845.78 127.93 372.33 500.58 967.44 320.72 1132.95 360.01 1039.66 393.18 947.04 484.71 1084.78 517.10
00011582 00000047 844.50 126.67 372.36 500.60 965.92 316.44 1128.65 353.91 1038.83 391.76 946.18 482.62 1083.26 513.58
00011583 00000048 844.07 126.40 372.55 503.07 965.29 316.78 1130.08 353.65 1039.42 393.43 946.15 484.73 1084.58 515.24
00011584 00000049 843.23 128.06 372.68 504.53 964.27 319.48 1130.65 357.23 1037.88 399.13 945.47 489.24 1082.63 520.42
00011585 00000050 843.81 127.97 373.79 510.39 966.49 321.77 1134.12 363.70 1039.21 407.25 946.34 494.36 1082.96 528.89
00011586 00000051 840.01 130.67 378.89 521.62 969.56 330.91 1135.08 366.63 1042.11 420.09 942.93 505.94 1082.71 535.66
00011587 00000052 841.65 137.43 378.12 522.46 969.85 338.74 1134.74 374.69 1041.06 431.46 943.27 513.04 1081.23 543.50
00011588 00000053 843.19 155.69 378.15 512.95 970.65 349.43 1136.41 387.88 1043.76 442.28 941.48 519.46 1081.33 551.82
00011589 00000054 852.08 163.77 377.60 509.93 968.95 352.25 1133.35 397.11 1036.05 456.91 939.72 527.58 1079.15 564.63
00011590 00000055 851.19 168.96 383.05 515.82 971.65 364.35 1136.46 409.45 1039.77 466.37 941.59 539.61 1082.61 576.56
00011591 00000056 848.74 182.35 383.44 511.24 971.65 375.90 1138.56 419.71 1041.99 476.00 943.16 550.30 1084.87 586.13
00011592 00000057 848.35 192.33 381.42 510.15 973.66 388.19 1139.72 431.52 1042.70 488.35 945.54 563.04 1085.18 598.93
00011593 00000058 847.24 196.31 383.80 517.00 972.87 394.61 1141.04 436.68 1043.41 500.69 946.99 575.93 1082.55 611.07
00011594 00000059 845.60 205.35 385.36 519.44 968.88 404.01 1137.90 445.18 1036.97 515.47 942.61 582.57 1080.35 617.37
00011595 00000060 854.89 225.78 381.40 508.64 969.22 408.05 1134.85 455.16 1032.22 531.26 936.79 590.52 1071.52 628.72
00011596 00000061 854.75 235.33 380.11 510.56 969.87 418.62 1133.35 464.93 1029.58 538.43 933.09 599.88 1067.24 637.17
00011597 00000062 852.32 243.66 381.05 511.40 969.47 425.39 1133.27 471.56 1028.27 547.79 929.92 606.52 1067.06 644.19
00011598 00000063 846.99 252.84 385.83 507.12 967.98 430.60 1131.51 476.92 1027.65 554.30 930.48 611.93 1063.99 649.80
00011599 00000064 842.55 256.86 388.70 501.55 966.09 435.21 1129.85 482.38 1029.22 558.32 932.08 612.20 1066.72 650.64
00011600 00000065 840.32 259.54 391.82 494.49 966.91 430.61 1132.37 477.94 1031.01 559.68 933.54 609.53 1068.86 647.82
00011601 00000066 845.31 253.88 387.25 493.00 969.52 423.11 1132.63 472.33 1029.03 552.11 933.58 600.42 1067.73 640.20
00011602 00000067 842.60 239.16 390.92 492.57 970.72 400.51 1134.41 458.84 1027.57 535.16 928.45 580.59 1061.76 627.37
00011603 DELETE   832.04 212.84 396.45 499.69 962.12 389.03 1130.91 441.94 1020.12 520.27 923.46 567.27 1057.64 611.00
00011604 00000069 828.62 196.88 393.79 498.57 951.09 372.85 1117.58 424.01 1007.09 494.41 911.76 548.79 1050.96 590.64
00011605 00000070 817.97 185.51 391.56 495.34 930.13 351.44 1108.82 417.68 990.64 481.13 888.66 526.88 1038.50 582.36
00011606 00000071 813.61 169.38 386.09 499.80 913.05 345.47 1079.82 409.73 949.19 463.23 871.25 517.11 1015.30 570.48
00011607 00000072 807.59 161.89 383.75 500.77 901.38 340.11 1062.04 402.49 928.64 456.87 857.25 508.32 998.89 559.96
00011608 00000073 799.08 160.72 386.48 495.73 895.55 334.56 1052.06 395.92 918.45 449.92 849.58 502.64 989.79 553.11
00011609 00000074 795.66 161.81 386.40 495.07 892.46 331.08 1047.10 393.42 913.95 446.71 845.42 501.06 982.13 552.26
00011610 00000075 799.94 160.02 384.68 501.51 895.07 329.84 1050.04 396.54 913.69 448.53 841.93 504.80 973.96 559.24
00011611 00000076 804.77 163.58 385.63 501.50 901.63 333.58 1054.23 401.91 919.44 453.10 847.65 508.41 970.71 564.01
00011612 00000077 804.55 165.93 390.11 505.14 904.85 333.22 1057.59 403.66 923.23 454.47 851.51 509.48 972.89 567.25
00011613 00000078 810.47 167.29 385.51 503.66 907.31 336.88 1060.80 405.96 924.55 455.44 855.22 511.90 977.75 568.71
00011614 00000079 814.41 170.11 384.09 498.49 907.64 340.20 1064.75 408.58 926.56 456.27 856.72 514.12 985.16 570.28
00011615 00000080 815.94 174.90 384.89 497.42 911.50 344.70 1070.13 412.30 932.78 459.24 861.13 516.74 994.60 572.73
00011616 00000081 817.91 179.15 385.75 500.93 916.04 346.80 1076.60 415.68 938.57 462.47 864.95 519.73 1005.22 577.74
00011617 00000082 818.73 182.62 386.36 503.05 918.48 349.48 1081.27 420.94 943.58 467.10 867.56 521.11 1013.99 581.98
00011618 00000083 818.71 184.65 387.20 500.35 921.18 351.55 1083.64 425.49 947.82 470.54 869.25 520.06 1017.67 582.93
00011619 00000084 818.13 184.97 387.53 497.73 919.50 351.69 1082.92 424.66 947.67 470.93 869.26 521.77 1015.99 583.55
00011620 00000085 817.56 183.46 387.38 497.91 918.79 350.34 1083.48 418.30 951.61 468.13 873.16 524.07 1015.08 581.54
00011621 00000086 815.74 174.67 389.54 500.78 917.34 344.08 1085.15 411.82 954.87 462.68 873.51 518.90 1015.77 575.66
00011622 00000087 814.90 170.17 390.89 498.70 916.33 338.59 1085.81 402.75 957.09 456.67 875.99 513.55 1017.77 566.96
00011623 00000088 817.51 162.30 387.63 495.31 917.04 329.27 1087.34 390.23 960.57 446.21 879.65 504.29 1022.84 555.93
00011624 00000089 816.11 151.71 388.58 501.45 924.01 322.30 1094.35 378.94 969.84 433.38 890.21 498.35 1035.47 546.47
00011625 00000090 816.50 142.53 388.22 502.16 928.92 324.04 1100.57 377.51 981.36 426.52 901.02 496.05 1048.72 541.41
00011626 00000091 821.22 136.55 385.50 504.79 937.06 330.34 1110.70 380.03 1000.38 425.62 913.32 494.17 1069.19 536.80
00011627 DELETE   829.64 141.78 374.28 503.07 948.47 336.28 1116.89 375.41 1019.74 433.12 910.12 496.20 1074.11 530.24
00011628 00000093 833.86 145.04 369.35 503.25 953.40 338.76 1122.80 373.91 1029.88 441.25 915.52 500.52 1084.18 531.49
00011629 00000094 836.44 153.60 369.04 501.83 956.00 345.07 1125.23 374.98 1036.76 448.75 921.60 507.21 1090.58 533.78
00011630 00000095 837.53 158.61 368.54 507.48 960.32 353.18 1129.79 381.45 1045.17 457.52 928.21 513.20 1099.67 537.93
00011631 00000096 838.82 166.51 368.27 504.49 963.69 358.52 1134.92 384.39 1053.24 463.84 935.86 523.34 1102.77 546.06
00011632 00000097 842.17 172.99 363.87 498.92 966.98 361.81 1138.20 385.70 1057.90 468.19 939.28 527.32 1105.90 548.43
00011633 00000098 845.10 171.01 361.50 500.14 971.70 361.23 1141.16 383.75 1064.83 467.47 944.40 526.39 1110.38 546.61
00011634 00000099 847.17 170.67 359.81 497.81 977.17 360.96 1145.73 381.29 1072.82 466.23 952.29 525.33 1117.21 544.19
00011635 00000100 851.71 164.34 354.87 502.69 981.73 356.73 1149.38 375.00 1080.05 462.82 959.51 524.07 1122.24 541.52
00011636 00000101 851.49 156.24 359.89 509.04 987.04 348.61 1157.87 370.42 1089.67 457.82 978.71 522.05 1130.27 542.34
00011637 00000102 855.93 153.24 357.82 507.35 993.48 346.55 1162.70 370.02 1096.80 451.13 987.76 518.47 1133.48 539.92
00011638 00000103 861.20 146.57 359.90 512.01 1002.80 343.12 1172.62 365.31 1112.07 441.28 1001.35 519.12 1141.15 539.25
00011639 00000104 868.82 141.97 358.47 512.85 1015.73 341.50 1182.28 360.88 1130.30 437.12 1013.32 518.17 1149.93 536.57
CROP_BBOX: 591 0 1478 886
