Video ID: 	6U03yM4vghk
H: 	1080
W: 	1920
FPS: 	25.0

FRAME INDEX X0 Y0 W H [Landmarks (5 Points)]

00107257 00000000 560.46 146.35 403.18 639.55 766.16 448.12 914.05 419.85 904.55 538.88 789.42 653.24 906.71 629.45
00107258 00000001 559.08 146.56 404.14 637.88 763.64 445.50 911.19 418.36 900.66 537.31 787.15 651.82 904.33 629.01
00107259 00000002 555.55 144.12 406.39 638.80 757.79 441.67 909.18 417.02 895.68 534.76 783.28 650.34 901.99 629.45
00107260 DELETE   553.86 142.94 408.09 639.39 755.99 439.62 907.70 414.30 894.13 533.82 782.66 648.99 900.93 627.48
00107261 00000004 554.22 139.99 408.60 640.35 755.09 437.34 908.22 412.36 893.56 532.19 782.16 647.86 901.45 626.61
00107262 00000005 553.85 140.07 409.43 638.95 754.71 436.72 908.98 411.39 894.04 531.14 782.32 648.01 900.98 626.57
00107263 00000006 554.79 138.65 408.36 639.20 755.62 436.22 909.53 410.48 894.52 531.42 783.32 647.78 901.43 625.99
00107264 00000007 554.42 136.64 409.47 639.47 755.96 434.85 910.62 410.07 896.08 528.84 782.85 646.45 902.06 625.66
00107265 00000008 554.21 135.45 409.03 639.11 756.95 433.56 910.38 410.10 896.53 527.68 783.01 644.45 901.73 624.79
00107266 00000009 553.68 134.59 409.14 638.32 755.69 433.08 910.35 410.17 895.06 526.56 783.76 643.30 902.39 623.82
00107267 00000010 554.52 134.44 408.70 634.89 753.56 429.94 910.72 408.46 892.76 524.97 784.17 642.24 902.80 623.85
00107268 00000011 555.45 131.86 407.88 637.77 754.57 428.40 912.28 407.32 894.71 524.01 784.57 641.73 903.83 623.64
00107269 00000012 555.50 132.29 406.59 632.13 756.07 428.84 913.11 406.43 896.98 523.13 787.46 640.47 904.82 621.39
00107270 00000013 555.79 132.88 408.08 624.15 754.93 427.34 915.10 404.22 898.07 521.29 789.59 637.08 909.32 617.35
00107271 00000014 556.46 132.73 407.78 621.98 754.54 426.44 914.81 404.02 896.43 520.98 790.19 635.68 910.27 616.39
00107272 00000015 556.21 133.18 408.97 621.70 751.48 425.81 913.78 405.52 892.13 520.62 786.69 634.88 908.48 617.24
00107273 DELETE   555.43 134.97 410.85 624.44 748.45 425.03 912.39 406.30 887.77 522.75 782.59 636.58 906.77 620.16
00107274 00000017 555.29 138.99 410.52 624.79 747.64 425.43 910.45 408.03 883.69 526.09 779.89 639.56 901.43 624.28
00107275 00000018 554.74 140.43 411.62 623.46 745.65 425.61 909.04 407.72 882.06 527.23 777.73 639.01 902.38 623.41
00107276 00000019 553.37 139.89 412.81 623.44 746.47 425.44 907.95 407.83 881.69 526.68 776.72 637.21 900.47 621.96
00107277 00000020 552.71 137.22 413.10 629.90 743.44 425.93 906.39 409.00 878.66 527.93 772.74 639.52 897.08 624.86
00107278 00000021 551.22 134.35 415.52 647.44 741.52 425.31 903.19 409.38 875.52 529.03 767.25 643.05 893.25 628.89
00107279 00000022 549.47 133.46 415.97 652.26 741.26 425.17 901.87 410.24 875.40 532.11 762.31 644.49 888.54 631.44
00107280 00000023 548.43 134.05 414.91 649.02 738.53 426.20 898.91 409.13 873.18 533.48 760.96 644.89 886.74 630.25
00107281 00000024 547.71 135.15 414.02 645.04 735.65 426.71 898.60 409.75 870.57 533.49 760.20 644.32 886.88 629.67
00107282 00000025 548.15 135.07 413.24 641.32 733.36 428.46 898.18 411.06 868.30 532.38 760.84 643.57 887.32 628.41
00107283 00000026 547.59 135.00 411.96 636.79 731.55 429.26 898.26 410.21 868.15 532.57 761.82 642.58 888.93 625.95
00107284 00000027 548.30 137.34 410.97 631.56 731.42 429.93 898.09 410.31 867.42 532.78 763.62 642.27 890.02 625.07
00107285 00000028 548.01 140.70 410.06 624.39 730.38 430.33 895.68 409.41 865.70 532.64 764.58 641.05 889.28 622.73
00107286 00000029 547.64 140.48 411.46 624.26 730.72 430.90 896.04 411.06 865.24 533.34 764.55 640.82 889.54 623.33
00107287 00000030 547.58 138.81 412.78 631.94 731.46 430.09 896.15 413.32 864.31 534.37 761.46 643.28 885.93 628.51
00107288 00000031 546.69 136.97 414.81 641.88 733.13 430.68 896.77 413.87 866.74 535.53 759.17 645.80 884.47 631.21
00107289 00000032 546.82 137.59 414.72 636.54 732.69 431.54 898.26 415.09 867.31 535.32 760.69 644.84 886.71 630.50
00107290 00000033 548.06 139.51 413.40 627.08 731.11 432.95 898.86 413.87 867.19 536.19 764.19 643.34 890.97 626.55
00107291 00000034 548.34 139.76 412.31 624.93 729.91 432.00 897.87 414.20 865.78 535.40 764.47 642.58 890.53 626.70
00107292 00000035 547.94 138.52 413.28 630.69 730.57 431.24 898.13 415.13 865.11 537.15 761.09 643.35 887.99 628.99
00107293 00000036 546.05 135.15 416.11 642.23 731.83 429.61 897.38 416.73 864.95 536.43 757.97 644.82 883.92 633.28
00107294 00000037 546.03 136.49 416.43 641.06 731.61 430.24 897.81 417.58 864.91 536.39 758.25 645.00 884.10 633.68
00107295 00000038 546.34 138.26 415.43 635.60 730.61 430.80 899.30 417.77 865.49 536.78 759.37 644.89 886.73 633.03
00107296 00000039 545.21 138.50 414.91 633.57 727.57 430.41 895.95 414.55 862.43 537.04 758.88 644.22 885.92 629.89
00107297 00000040 545.14 138.05 415.73 631.85 727.04 429.42 895.57 414.19 860.38 536.18 759.60 643.45 885.60 629.76
00107298 00000041 544.86 138.03 415.02 632.09 726.43 429.99 895.41 414.27 861.16 536.84 758.82 644.56 885.34 630.45
00107299 00000042 546.04 141.34 413.75 627.29 727.24 432.75 896.95 416.37 862.45 538.85 760.74 645.14 887.11 630.36
00107300 00000043 545.21 141.24 415.85 630.23 730.06 436.09 898.42 420.74 864.86 542.12 760.18 647.53 886.09 633.68
00107301 00000044 545.29 139.24 416.74 641.57 735.05 435.16 898.76 424.46 866.40 543.47 757.19 648.48 881.64 638.63
00107302 00000045 546.67 139.47 416.73 645.80 736.42 433.59 898.72 424.72 865.78 541.82 757.38 648.43 880.59 640.04
00107303 00000046 546.39 138.00 418.00 643.53 735.00 433.96 899.58 424.02 865.78 542.21 757.18 648.36 881.82 639.02
00107304 00000047 544.63 139.55 417.83 638.32 730.32 433.15 897.53 420.68 862.68 541.31 755.55 647.14 882.81 635.81
00107305 00000048 544.12 137.35 417.22 640.80 728.05 431.72 895.70 419.44 860.70 539.99 754.17 646.50 881.78 635.31
00107306 00000049 544.52 137.16 416.02 641.87 728.19 431.60 894.43 418.72 860.25 540.52 754.79 647.91 880.42 636.26
00107307 00000050 545.65 139.33 415.63 639.91 731.06 433.69 894.28 423.59 860.82 540.59 756.73 648.40 879.21 639.05
00107308 00000051 546.17 139.76 415.10 640.36 733.26 434.71 895.41 424.96 862.32 541.71 757.15 648.55 879.46 639.43
00107309 00000052 546.82 141.05 414.78 640.63 732.63 435.28 895.55 425.09 861.71 541.88 755.96 648.80 879.38 639.36
00107310 00000053 547.20 140.17 416.07 645.37 733.80 433.52 896.21 425.05 862.33 540.96 756.28 649.23 879.47 641.31
00107311 00000054 546.64 140.90 417.10 645.60 733.25 431.96 896.05 424.22 862.39 539.74 755.05 649.42 879.10 642.20
00107312 00000055 546.94 140.82 416.57 644.90 733.86 432.35 896.00 423.82 862.12 540.09 756.55 649.44 879.09 641.50
00107313 00000056 547.14 141.52 416.10 644.00 734.92 432.68 896.26 424.93 862.76 540.73 756.83 648.87 879.36 641.58
00107314 00000057 548.38 142.13 415.86 643.70 736.54 433.02 898.65 424.72 864.81 541.90 758.84 649.57 881.63 641.76
00107315 00000058 547.34 144.67 415.86 629.48 736.58 435.58 903.45 423.98 868.68 544.15 763.41 648.80 887.31 638.10
00107316 DELETE   551.86 148.94 414.43 621.07 752.09 444.35 912.97 432.89 883.81 545.12 772.28 648.38 893.02 637.85
00107317 DELETE   567.58 148.30 407.24 625.49 770.44 441.43 925.21 429.47 899.47 544.03 785.91 639.83 909.09 630.72
00107318 00000061 572.59 158.57 399.49 619.54 790.07 445.04 931.40 432.72 918.42 543.90 803.83 638.30 914.17 628.99
00107319 DELETE   588.36 153.51 395.47 634.83 801.55 441.71 941.87 430.90 934.21 540.79 809.48 641.75 917.31 634.18
00107320 00000063 593.01 157.25 397.79 636.95 806.67 439.96 946.98 424.24 948.13 536.63 810.99 644.80 921.39 634.11
00107321 00000064 594.43 155.22 397.51 619.28 816.64 433.43 959.36 407.52 967.08 536.08 821.49 638.43 937.55 621.69
00107322 00000065 601.41 159.13 396.16 605.20 820.88 445.80 958.39 416.22 964.19 535.08 838.64 641.03 937.25 619.14
00107323 DELETE   603.15 161.42 395.73 597.60 830.28 445.27 959.42 414.82 972.31 531.45 847.51 638.47 939.73 616.02
00107324 00000067 607.03 156.67 396.01 604.74 835.57 444.19 959.18 412.52 980.41 527.66 854.15 637.85 943.85 614.24
00107325 00000068 617.07 149.97 388.47 608.09 843.34 435.17 964.21 403.69 991.17 528.74 856.43 633.98 954.04 611.81
00107326 00000069 618.20 152.21 389.74 603.11 850.74 432.85 964.60 401.66 997.69 526.65 866.05 633.29 955.74 611.37
00107327 00000070 615.54 157.69 392.49 598.87 854.55 443.29 961.21 410.34 999.22 527.80 872.44 635.09 948.78 610.71
00107328 00000071 612.67 155.18 395.21 601.65 853.32 442.64 960.16 408.93 998.65 527.39 872.66 635.65 948.41 610.68
00107329 00000072 615.93 156.62 393.11 599.40 860.76 440.49 961.64 411.32 1003.01 524.58 880.07 633.06 951.88 611.54
00107330 00000073 620.07 162.01 392.53 592.67 868.35 437.26 966.00 409.86 1010.42 524.46 885.68 631.91 955.48 612.05
00107331 00000074 623.89 164.30 393.45 592.03 870.96 433.68 970.41 408.08 1014.37 524.84 889.09 633.12 959.77 614.58
00107332 00000075 624.20 166.83 392.45 588.48 872.40 434.47 971.69 410.92 1014.02 525.10 887.76 631.56 958.79 614.74
00107333 00000076 619.41 166.68 394.49 590.33 865.80 439.77 965.58 411.49 1008.76 527.42 879.84 633.67 952.42 613.57
00107334 00000077 619.46 164.57 394.54 591.62 865.50 437.86 970.29 412.98 1007.29 524.87 881.18 631.57 958.65 613.52
00107335 00000078 631.31 165.83 391.41 588.73 871.14 434.53 978.40 407.79 1014.32 524.24 888.52 632.21 969.25 612.32
00107336 00000079 635.70 157.83 389.66 593.69 875.70 430.70 979.24 404.19 1018.62 524.19 897.80 631.29 973.10 611.19
00107337 00000080 636.32 156.63 390.56 595.36 874.49 430.29 980.47 402.94 1017.68 524.29 896.92 631.61 974.37 610.65
00107338 00000081 637.48 163.28 390.24 594.09 872.64 430.86 983.57 403.97 1019.87 526.64 895.32 635.44 977.34 614.80
00107339 00000082 638.77 165.53 389.37 587.85 881.70 435.30 983.09 412.66 1023.56 528.89 900.11 634.69 975.91 617.95
00107340 00000083 645.99 175.11 383.00 581.80 884.97 436.66 980.36 412.47 1027.15 526.53 901.61 632.15 975.99 614.82
00107341 00000084 646.15 174.40 385.58 583.02 889.30 436.14 983.96 412.98 1030.99 526.72 905.07 631.74 979.96 615.17
00107342 00000085 641.27 172.01 387.78 584.51 880.93 438.66 978.04 413.39 1023.47 526.33 900.38 634.44 975.98 616.07
00107343 00000086 637.55 169.42 389.14 586.08 881.32 436.68 979.40 414.32 1023.04 525.91 898.76 634.58 973.62 618.61
00107344 00000087 639.10 168.74 387.64 586.57 876.87 431.29 982.71 410.34 1020.49 524.57 899.03 634.54 976.43 619.03
00107345 00000088 640.41 167.98 386.45 584.84 877.08 428.63 984.18 407.30 1020.33 520.68 901.77 631.77 979.46 615.82
00107346 00000089 642.69 170.23 383.77 581.20 879.80 429.27 981.50 406.90 1021.56 518.35 905.46 629.52 981.28 612.89
00107347 00000090 646.94 167.75 380.87 580.91 883.63 429.55 979.95 404.77 1024.11 514.74 910.64 625.74 984.21 607.28
00107348 00000091 646.62 158.51 383.63 587.31 884.69 430.92 978.83 406.98 1024.49 515.27 913.66 625.66 985.19 607.69
00107349 00000092 646.42 155.52 384.22 590.50 885.83 430.99 979.23 407.87 1023.44 515.32 913.73 624.61 985.11 607.31
00107350 00000093 646.45 158.12 382.72 588.27 884.58 430.03 978.70 406.55 1022.76 515.09 914.12 625.37 985.24 607.83
00107351 00000094 645.98 156.04 381.67 587.69 883.65 430.39 978.05 403.93 1022.87 515.09 914.65 625.52 984.96 605.49
00107352 00000095 647.61 160.88 379.75 582.08 885.65 431.95 977.77 406.36 1022.39 515.53 914.65 624.56 984.30 605.44
00107353 00000096 646.24 165.04 378.50 580.56 886.65 432.08 978.78 406.58 1024.88 517.21 913.52 626.46 982.74 607.46
00107354 00000097 648.58 167.22 376.62 579.94 883.94 432.88 978.26 408.54 1020.37 518.32 907.83 626.98 979.34 609.03
00107355 00000098 645.91 165.63 379.01 585.28 884.04 429.10 977.23 410.04 1021.44 519.76 900.57 627.36 969.88 614.06
00107356 00000099 639.47 162.06 384.48 588.35 882.02 432.80 970.18 409.23 1022.17 521.42 897.08 629.91 963.38 613.50
00107357 00000100 638.57 164.26 386.21 587.31 881.94 434.70 973.03 409.18 1023.15 523.00 896.04 630.66 964.61 612.59
00107358 00000101 646.01 171.51 380.36 584.01 887.87 433.90 977.20 413.72 1025.85 523.48 894.41 627.84 964.11 614.30
00107359 00000102 649.50 171.08 378.58 587.33 891.39 433.35 979.38 413.24 1026.04 523.80 895.97 628.54 966.20 614.85
00107360 00000103 650.87 173.31 377.39 585.29 891.13 431.35 981.64 411.69 1027.79 522.84 897.21 628.52 968.80 615.17
00107361 00000104 638.96 161.56 385.80 590.50 881.92 437.48 973.74 411.45 1022.71 524.93 898.31 635.03 966.94 616.27
00107362 00000105 633.22 158.68 390.90 594.21 873.47 434.00 981.17 406.91 1016.62 526.81 898.20 637.94 973.19 617.38
00107363 00000106 632.88 162.16 392.15 590.90 870.04 432.44 984.89 407.66 1014.64 526.94 896.17 637.52 976.95 618.48
00107364 00000107 638.42 158.76 384.73 588.22 876.67 433.62 980.77 406.49 1019.20 526.18 900.74 635.52 973.62 614.97
00107365 00000108 645.12 163.48 380.27 582.92 882.68 434.78 977.43 407.79 1018.69 520.84 906.29 630.47 975.06 610.58
00107366 00000109 644.60 165.08 380.52 579.36 883.14 433.67 978.76 406.49 1019.43 520.95 907.26 629.21 977.27 608.99
00107367 DELETE   633.17 158.35 389.18 590.41 876.24 430.82 984.34 404.30 1018.98 522.04 900.02 631.15 976.87 610.91
00107368 00000111 615.52 165.64 393.33 586.99 853.69 433.99 972.16 411.21 996.74 521.45 880.95 630.43 965.66 612.46
00107369 00000112 607.20 147.65 391.14 610.97 831.74 426.16 958.06 418.28 962.90 510.31 855.32 624.03 946.35 617.44
00107370 DELETE   596.41 138.37 391.88 613.59 819.21 414.45 943.76 408.05 944.57 504.06 842.57 614.65 927.83 609.52
00107371 DELETE   583.62 120.30 399.06 619.23 793.91 395.41 936.11 393.34 927.88 487.78 819.20 606.65 924.42 605.16
00107372 DELETE   565.25 106.48 414.27 618.16 766.60 379.74 920.92 378.65 900.54 475.31 791.61 589.58 909.99 588.26
00107373 00000116 561.31 102.94 418.07 614.75 752.58 367.12 915.32 368.86 885.68 466.09 777.69 580.57 900.23 581.24
00107374 DELETE   572.79 89.19 415.86 625.94 770.29 363.25 930.90 368.66 898.31 465.37 787.81 571.69 911.51 576.89
00107375 DELETE   588.74 89.61 414.35 621.68 787.33 364.46 946.88 364.51 918.11 460.80 808.38 573.35 927.77 573.44
00107376 00000119 592.59 87.09 413.51 619.83 786.13 360.08 949.20 359.40 918.62 459.73 811.33 573.18 933.53 572.23
00107377 00000120 583.46 82.91 419.67 624.52 775.37 357.83 943.97 357.92 907.15 463.53 795.70 572.52 926.32 572.84
00107378 00000121 578.65 83.87 417.09 621.11 768.04 355.23 938.58 360.53 897.49 464.12 783.69 568.58 916.71 573.61
00107379 00000122 576.04 85.92 418.64 620.21 767.33 356.50 938.96 360.80 899.09 464.07 783.34 569.18 918.34 573.15
00107380 00000123 573.21 80.71 418.08 610.19 765.30 354.56 936.91 355.61 901.59 457.32 784.62 565.41 916.72 566.62
00107381 00000124 567.73 81.72 413.15 588.97 762.29 354.93 920.82 353.66 893.03 445.26 799.23 566.12 913.69 564.00
00107382 00000125 561.86 75.74 415.14 605.79 762.83 355.01 924.20 348.86 899.20 450.64 797.49 566.67 915.66 560.66
00107383 00000126 562.94 79.15 410.11 602.72 756.40 355.65 912.53 344.51 887.40 454.56 795.32 567.15 908.90 556.82
00107384 00000127 565.29 77.09 410.03 620.03 755.27 356.54 914.80 347.70 886.60 454.97 799.28 575.82 912.61 566.81
00107385 00000128 565.91 81.99 412.33 607.83 758.63 358.74 916.87 347.51 892.23 450.59 802.69 569.22 919.62 558.56
00107386 00000129 568.93 81.26 413.09 602.26 762.18 350.72 914.94 343.34 887.70 451.08 806.06 556.05 920.99 549.67
00107387 00000130 571.04 85.65 416.81 599.59 762.11 352.74 916.36 345.83 886.20 447.16 806.61 554.37 922.32 548.51
00107388 00000131 573.85 88.72 413.81 592.57 764.59 356.76 917.10 348.52 885.83 450.15 809.51 559.01 918.14 552.39
00107389 00000132 576.30 94.57 413.09 595.46 761.38 360.33 915.88 354.86 879.86 456.04 803.47 564.35 913.00 560.31
00107390 00000133 574.33 93.05 414.59 604.03 757.23 358.45 912.36 353.30 875.73 455.10 802.10 568.39 910.47 564.63
00107391 00000134 572.69 89.94 414.75 616.40 750.63 360.30 908.92 355.49 869.91 456.49 794.07 570.45 906.62 567.10
00107392 00000135 563.52 85.80 420.54 619.27 738.01 367.52 905.71 354.72 862.77 457.11 782.90 576.29 906.41 563.98
00107393 00000136 559.67 89.93 423.51 609.05 732.41 367.71 902.87 356.49 856.00 459.30 775.81 574.28 899.05 563.64
00107394 00000137 558.46 89.14 420.97 603.74 731.07 367.90 900.28 357.08 853.91 461.56 771.58 571.79 895.08 561.50
00107395 00000138 556.84 88.28 419.83 604.33 730.48 368.99 898.05 356.14 854.37 463.51 771.08 571.13 895.30 558.95
00107396 00000139 555.06 84.28 422.36 612.84 728.73 367.27 899.66 353.69 856.39 461.86 774.69 573.67 901.34 560.53
00107397 00000140 554.25 85.75 421.29 611.43 729.05 367.23 898.94 352.98 857.69 460.99 777.33 573.56 902.09 559.79
00107398 00000141 553.09 84.23 423.22 620.31 725.97 367.59 896.99 353.46 854.97 460.87 772.21 574.88 901.73 560.99
00107399 00000142 553.02 86.54 421.07 609.26 725.24 365.90 892.11 356.83 850.23 459.31 767.29 566.02 895.17 556.60
00107400 00000143 549.71 85.24 426.65 617.51 714.95 359.35 886.17 355.68 833.19 462.88 753.11 575.38 878.27 571.05
00107401 00000144 544.58 82.86 426.08 626.76 701.79 359.09 877.19 357.53 817.54 468.35 726.64 573.05 859.27 571.16
00107402 00000145 542.80 86.28 425.92 625.24 691.42 363.74 880.15 361.53 814.26 472.55 719.13 578.45 867.69 576.01
00107403 00000146 541.57 88.16 424.46 623.41 691.26 365.78 880.09 364.15 813.33 477.02 716.16 580.05 865.98 578.26
00107404 00000147 542.72 89.58 424.14 620.12 697.53 366.77 882.31 364.31 817.62 477.28 722.36 580.87 866.83 578.54
00107405 00000148 546.26 92.46 419.84 620.43 705.04 369.07 885.36 365.22 825.36 479.28 730.90 582.84 870.65 579.11
00107406 00000149 545.32 92.17 420.95 619.04 701.94 369.24 882.91 362.70 823.21 477.21 729.77 581.28 870.55 575.23
00107407 00000150 543.27 89.17 423.28 623.70 697.31 373.27 880.61 369.87 816.21 475.97 721.25 581.75 865.75 578.21
00107408 00000151 543.59 88.44 423.60 629.04 693.66 374.48 877.21 372.96 809.87 476.83 714.21 581.77 860.27 580.34
00107409 00000152 543.55 89.63 426.41 631.75 697.70 372.26 877.79 375.77 811.74 478.15 714.75 581.23 858.48 583.74
00107410 00000153 545.72 93.91 424.91 631.88 705.77 371.44 881.50 373.46 820.63 479.00 724.96 584.53 863.79 585.75
00107411 00000154 547.96 95.46 423.08 635.35 710.51 372.91 882.99 373.32 824.88 483.27 730.87 587.39 867.42 587.04
00107412 00000155 546.92 97.42 422.73 634.20 710.67 375.56 883.88 375.43 825.73 485.94 730.14 589.15 867.31 588.51
00107413 00000156 544.91 98.92 423.68 632.64 706.64 380.56 884.42 381.20 824.14 489.41 723.83 590.37 865.69 590.61
00107414 00000157 543.94 103.70 427.36 628.92 706.68 389.65 887.60 392.50 823.63 498.40 721.01 594.54 864.58 596.72
00107415 00000158 546.39 109.60 429.14 639.14 714.71 393.56 891.87 400.65 830.65 505.04 725.12 598.73 871.21 603.83
00107416 00000159 549.63 117.01 433.72 640.11 718.29 390.52 894.61 400.21 840.30 500.29 734.09 601.84 877.83 607.96
00107417 00000160 553.59 108.11 431.52 632.27 722.20 393.88 898.48 394.97 838.05 506.66 735.31 599.15 880.59 599.12
00107418 00000161 554.89 107.50 429.26 622.81 719.97 388.80 896.58 388.16 834.58 500.28 736.76 593.87 879.67 592.20
00107419 00000162 557.31 103.18 426.84 619.96 720.17 378.21 898.40 378.63 834.21 492.14 741.28 587.72 882.95 586.71
00107420 00000163 557.54 99.98 430.40 627.41 719.03 367.50 900.77 374.09 842.33 480.09 745.99 582.00 886.48 585.06
00107421 00000164 557.52 102.60 429.44 630.71 721.73 368.83 897.88 376.38 841.13 480.35 746.95 584.70 880.89 588.87
00107422 00000165 555.91 105.01 429.61 628.80 721.05 369.61 896.36 377.40 839.40 481.87 745.59 586.09 877.24 590.47
00107423 00000166 557.38 107.29 425.47 628.01 720.49 371.57 895.23 379.05 839.49 485.47 745.53 589.67 877.06 593.80
00107424 00000167 555.92 109.55 426.27 637.11 718.82 372.43 896.44 381.18 838.93 486.37 738.81 594.45 875.26 599.66
00107425 00000168 553.41 113.35 427.82 637.43 720.44 374.87 895.99 384.83 839.27 487.57 735.80 594.71 874.44 601.05
00107426 00000169 553.09 111.40 427.57 635.97 717.84 375.56 895.14 384.86 838.85 488.04 736.16 593.63 877.37 599.42
00107427 00000170 553.71 111.19 427.04 630.67 716.11 374.16 895.64 383.13 838.18 486.41 736.23 591.23 877.80 596.70
