Video ID: 	l4A4FOGGo4w
H: 	1080
W: 	1920
FPS: 	25.0

FRAME INDEX X0 Y0 W H [Landmarks (5 Points)]

00004285 00000000 1082.76 69.75 418.94 592.83 1163.38 295.78 1358.83 297.39 1232.04 389.94 1172.09 508.65 1338.21 509.48
00004286 00000001 1083.40 70.72 417.42 584.80 1162.93 287.41 1359.28 290.42 1231.11 382.23 1168.21 500.18 1333.90 502.17
00004287 00000002 1083.97 69.92 416.31 582.19 1163.46 283.26 1359.77 286.93 1231.80 377.28 1167.75 495.85 1332.97 498.37
00004288 00000003 1085.91 70.93 414.39 579.40 1163.29 282.51 1359.15 285.13 1232.40 376.09 1167.92 494.43 1333.29 496.18
00004289 00000004 1086.42 71.27 414.68 583.53 1163.78 282.00 1358.41 283.10 1231.93 376.60 1168.49 495.92 1331.39 496.56
00004290 00000005 1084.46 72.46 416.26 590.55 1162.71 285.98 1357.70 282.97 1231.05 380.74 1171.53 504.90 1331.40 502.21
00004291 00000006 1082.85 73.78 417.06 596.51 1160.73 291.86 1353.82 285.56 1229.04 386.78 1173.63 512.95 1330.11 507.52
00004292 00000007 1079.87 74.00 418.85 604.74 1157.85 296.30 1349.48 288.05 1225.96 391.11 1172.30 520.41 1327.77 513.28
00004293 00000008 1076.94 75.62 419.79 607.03 1154.61 299.92 1344.63 290.79 1223.18 395.27 1170.76 524.87 1325.38 516.90
00004294 00000009 1072.18 77.67 422.79 608.57 1149.70 302.78 1339.87 294.38 1218.77 401.91 1167.38 528.58 1323.98 520.86
00004295 00000010 1069.98 78.72 421.50 610.39 1147.24 308.68 1333.65 299.26 1215.83 408.47 1166.69 531.76 1321.62 523.00
00004296 00000011 1065.94 80.10 422.31 610.30 1143.58 311.81 1328.39 303.44 1211.24 413.72 1163.34 534.09 1316.02 526.36
00004297 00000012 1061.46 80.78 423.96 610.36 1137.14 315.75 1328.47 306.76 1208.82 416.30 1157.62 539.46 1315.97 531.36
00004298 00000013 1058.96 81.95 423.10 608.91 1133.00 315.81 1325.99 309.24 1204.04 419.21 1150.88 539.85 1311.98 533.66
00004299 00000014 1056.91 82.95 420.49 605.54 1128.54 314.29 1321.67 308.70 1198.09 420.95 1146.28 539.69 1306.02 534.42
00004300 00000015 1056.02 81.82 417.67 603.01 1124.04 315.02 1317.35 307.56 1192.54 419.48 1142.99 540.15 1301.80 533.51
00004301 00000016 1054.54 80.77 415.47 601.26 1120.16 313.57 1312.64 305.78 1187.00 415.97 1139.22 537.96 1296.63 531.39
00004302 00000017 1051.59 78.41 416.32 602.33 1114.71 311.75 1303.81 301.20 1177.86 413.75 1136.75 536.46 1288.19 527.91
00004303 00000018 1046.47 79.50 418.38 598.57 1108.06 314.54 1292.43 300.33 1167.68 411.26 1133.80 535.94 1276.74 524.75
00004304 DELETE   1037.73 73.31 428.97 606.80 1099.27 321.03 1277.49 306.99 1147.68 409.57 1125.12 538.79 1256.49 528.00
00004305 DELETE   1030.99 71.40 430.51 609.34 1088.48 319.41 1268.21 304.77 1133.50 404.01 1108.18 535.61 1244.10 524.74
00004306 DELETE   1025.18 67.78 428.31 608.66 1077.29 318.30 1251.32 303.60 1112.93 399.64 1093.66 534.45 1224.92 523.37
00004307 00000022 1025.54 71.37 416.59 604.00 1068.95 315.10 1238.26 302.00 1096.75 396.36 1084.02 532.99 1213.19 522.65
00004308 00000023 1024.19 71.83 413.96 602.31 1062.67 312.00 1231.42 299.83 1086.72 396.00 1077.69 533.37 1205.64 523.50
00004309 00000024 1022.84 70.37 411.84 602.36 1060.17 312.82 1227.28 300.40 1079.99 396.51 1074.08 533.97 1199.74 523.62
00004310 00000025 1022.71 70.04 412.14 603.35 1059.42 313.62 1225.18 301.60 1076.16 397.06 1072.35 535.34 1197.26 525.23
00004311 00000026 1022.10 71.95 412.43 603.01 1058.40 314.17 1225.70 303.26 1075.34 399.10 1070.91 537.05 1195.78 527.88
00004312 00000027 1022.57 74.23 411.52 601.74 1058.15 314.85 1225.71 304.48 1074.62 401.55 1070.06 538.56 1194.10 529.80
00004313 00000028 1022.82 74.76 412.87 603.25 1057.53 314.51 1226.85 305.69 1074.31 404.88 1069.44 539.92 1194.85 532.32
00004314 00000029 1027.12 67.64 409.40 614.80 1059.40 313.72 1228.03 309.14 1081.06 410.06 1069.87 536.23 1197.73 532.88
00004315 00000030 1028.03 67.99 408.89 615.05 1060.82 314.22 1228.42 311.30 1081.16 410.69 1069.95 535.81 1197.43 533.81
00004316 00000031 1028.43 69.52 408.10 613.15 1061.07 314.36 1228.64 312.41 1081.84 411.64 1070.09 535.50 1198.51 534.18
00004317 00000032 1029.59 71.07 407.69 612.11 1062.03 314.20 1229.36 313.10 1082.73 412.56 1070.63 535.51 1199.50 534.76
00004318 00000033 1032.12 77.19 406.47 607.79 1057.65 312.53 1228.81 312.87 1072.87 414.85 1067.55 539.23 1200.23 541.20
00004319 00000034 1032.69 79.52 406.52 605.27 1057.81 312.35 1229.88 312.99 1073.51 414.49 1067.45 538.98 1200.78 541.22
00004320 00000035 1031.29 73.60 406.38 610.18 1065.71 315.95 1232.20 316.44 1085.31 412.51 1071.73 535.15 1199.45 535.63
00004321 00000036 1031.17 69.53 407.20 615.40 1067.56 318.69 1234.19 318.16 1087.22 410.71 1073.19 535.76 1198.09 535.67
00004322 00000037 1031.34 67.66 407.08 618.52 1068.75 318.34 1234.92 317.98 1087.99 410.33 1073.99 535.88 1197.57 536.07
00004323 00000038 1031.95 68.79 406.79 618.40 1069.87 318.04 1235.29 318.35 1089.05 410.71 1074.66 535.69 1198.02 536.37
00004324 00000039 1032.60 69.28 407.59 620.18 1071.49 317.90 1236.26 319.31 1089.56 411.15 1075.23 535.82 1198.67 537.40
00004325 00000040 1033.00 68.73 408.44 622.27 1072.51 317.49 1237.13 319.89 1090.82 412.72 1076.09 536.17 1200.66 538.48
00004326 00000041 1034.05 69.96 408.00 621.24 1073.82 317.40 1238.55 320.74 1092.23 414.01 1077.06 535.77 1203.28 538.65
00004327 00000042 1035.07 68.63 408.52 623.55 1074.64 317.35 1240.13 320.35 1093.72 414.14 1077.91 536.93 1203.95 539.54
00004328 00000043 1036.85 68.09 408.02 623.99 1076.07 317.71 1241.31 320.07 1094.59 413.65 1079.59 537.45 1204.38 539.52
00004329 00000044 1037.53 68.76 407.90 623.17 1078.21 316.87 1242.69 320.53 1096.12 413.78 1081.04 536.69 1205.23 539.73
00004330 00000045 1039.34 68.05 406.05 623.33 1080.42 316.55 1243.44 320.50 1097.64 413.50 1082.54 536.67 1204.10 540.08
00004331 00000046 1040.47 66.47 405.48 625.22 1082.11 317.00 1245.15 320.45 1099.48 413.41 1084.85 536.69 1205.78 539.79
00004332 00000047 1040.52 65.08 408.05 627.44 1084.17 316.64 1247.11 320.42 1100.67 412.79 1086.26 536.36 1207.39 539.77
00004333 00000048 1041.65 67.23 408.04 624.16 1085.65 317.34 1248.70 320.89 1102.34 412.66 1087.53 535.88 1208.93 539.07
00004334 00000049 1042.80 68.86 407.19 621.51 1087.90 317.75 1250.30 321.04 1104.71 412.28 1088.91 535.27 1209.74 538.35
00004335 00000050 1042.29 73.89 413.02 617.39 1086.88 318.95 1255.19 322.82 1105.11 406.41 1088.42 534.90 1213.20 539.16
00004336 00000051 1043.11 73.59 414.03 617.70 1088.17 318.88 1257.48 323.12 1106.82 406.43 1089.17 534.67 1214.58 539.29
00004337 00000052 1044.77 74.14 413.10 617.50 1088.91 318.65 1258.73 322.99 1108.62 407.13 1089.74 535.41 1215.52 540.24
00004338 00000053 1045.57 74.21 413.38 618.06 1089.60 316.22 1260.46 321.29 1109.98 406.72 1090.67 535.33 1216.59 540.78
00004339 00000054 1046.49 73.16 412.85 619.39 1090.19 316.56 1260.76 321.37 1110.86 407.45 1090.87 535.84 1217.10 541.15
00004340 00000055 1047.72 71.87 412.64 620.95 1090.48 317.19 1261.33 321.92 1111.53 408.98 1091.95 536.90 1217.89 542.26
00004341 00000056 1048.68 72.89 411.64 621.36 1091.32 317.33 1261.65 323.05 1111.94 410.14 1092.41 537.47 1218.10 543.69
00004342 00000057 1048.75 71.83 411.57 622.82 1091.68 318.04 1262.45 323.83 1113.04 411.27 1092.55 538.28 1218.41 544.66
00004343 00000058 1048.65 71.11 412.03 622.65 1091.90 319.39 1262.80 324.58 1113.70 412.69 1093.51 538.86 1219.87 544.71
00004344 00000059 1049.14 72.05 411.31 621.66 1092.58 318.80 1263.69 325.58 1114.88 413.34 1092.94 538.56 1219.97 545.81
00004345 00000060 1049.45 70.98 411.26 624.09 1093.21 318.32 1264.87 325.43 1115.47 413.28 1093.21 538.81 1220.45 546.41
00004346 00000061 1049.36 68.80 411.83 624.70 1093.69 317.65 1266.20 324.58 1115.60 412.09 1093.86 537.91 1221.77 545.32
00004347 00000062 1050.20 67.91 411.48 623.67 1094.41 318.14 1268.27 324.16 1116.95 411.99 1094.50 537.52 1224.46 544.19
00004348 00000063 1052.06 68.10 409.59 619.27 1094.74 318.96 1268.01 324.94 1119.30 413.22 1094.05 536.72 1223.66 543.46
00004349 00000064 1054.33 72.92 406.83 613.78 1099.19 318.02 1268.31 325.38 1121.40 418.58 1095.47 535.77 1225.55 542.50
00004350 00000065 1053.84 71.86 407.80 615.43 1098.73 318.29 1268.23 326.15 1120.86 419.40 1094.71 536.07 1225.54 543.23
00004351 00000066 1053.87 72.66 407.05 614.55 1098.52 318.95 1267.24 327.58 1120.52 420.92 1094.68 536.42 1224.81 544.03
00004352 00000067 1051.49 71.72 409.27 617.94 1097.05 321.27 1266.90 329.59 1119.04 421.66 1093.35 537.99 1224.45 545.17
00004353 00000068 1048.91 65.05 410.68 625.35 1089.18 321.55 1265.58 330.75 1117.69 422.40 1090.01 540.18 1223.64 549.28
00004354 00000069 1046.92 67.04 411.02 623.98 1089.47 319.45 1265.35 330.63 1117.16 420.73 1089.68 538.87 1222.12 549.54
00004355 00000070 1044.11 71.03 413.45 621.50 1086.36 317.76 1261.92 328.52 1114.17 422.95 1088.36 540.61 1219.62 550.80
00004356 00000071 1042.04 72.59 415.02 621.94 1084.55 317.38 1259.04 327.89 1112.04 424.55 1087.96 542.34 1217.74 552.31
00004357 00000072 1040.39 73.35 415.62 624.00 1084.10 317.89 1258.56 328.79 1111.50 425.56 1087.18 544.37 1215.98 554.71
00004358 00000073 1040.18 74.86 414.01 624.83 1084.32 317.63 1257.34 327.70 1110.91 425.98 1088.02 545.44 1214.77 555.14
00004359 00000074 1040.65 75.22 413.88 628.32 1084.80 317.23 1257.53 327.24 1111.46 425.92 1088.64 546.82 1214.78 556.54
00004360 00000075 1041.33 74.48 414.34 629.44 1084.95 318.10 1257.86 327.80 1111.21 427.13 1088.66 548.01 1215.45 557.49
00004361 00000076 1043.15 75.60 414.22 625.91 1085.50 319.62 1258.53 328.69 1110.38 428.53 1088.90 548.37 1217.17 557.37
00004362 00000077 1043.62 77.86 414.63 623.41 1086.68 322.22 1259.96 331.12 1110.80 430.23 1089.42 548.78 1218.66 557.81
00004363 00000078 1045.00 77.75 414.87 626.71 1087.24 324.24 1260.44 332.53 1111.85 431.87 1090.15 551.83 1219.07 560.62
00004364 00000079 1046.50 77.31 414.13 628.53 1087.85 324.65 1260.91 333.16 1112.84 433.73 1090.62 552.93 1220.17 561.97
00004365 00000080 1049.23 80.83 411.88 621.65 1096.45 326.11 1265.39 335.11 1119.39 433.49 1095.60 546.17 1227.36 553.48
00004366 00000081 1050.35 68.75 411.70 635.40 1096.52 326.93 1277.11 340.88 1132.68 436.89 1094.78 548.84 1235.31 562.23
00004367 DELETE   1057.51 82.14 414.38 619.55 1114.52 333.20 1291.40 346.29 1151.28 436.12 1109.92 544.22 1255.21 553.94
00004368 00000083 1065.26 88.73 417.63 613.17 1125.82 336.95 1308.75 345.31 1170.25 435.97 1124.39 548.67 1276.19 554.61
00004369 DELETE   1068.69 84.94 420.42 612.45 1136.70 330.70 1327.33 337.84 1188.52 431.89 1136.29 547.76 1294.32 552.57
00004370 DELETE   1073.06 85.09 424.18 613.27 1145.82 327.05 1343.02 332.24 1206.18 428.96 1148.18 547.97 1312.16 551.09
00004371 DELETE   1079.16 80.17 422.14 618.85 1154.56 319.34 1351.03 323.00 1216.40 423.66 1157.18 544.93 1321.49 547.14
00004372 00000087 1085.16 73.95 421.66 624.69 1161.06 315.42 1357.79 318.24 1223.60 421.73 1167.26 544.99 1327.94 546.81
00004373 00000088 1086.23 73.90 422.25 624.24 1166.31 312.21 1362.21 317.64 1229.59 422.80 1173.97 545.11 1329.36 548.91
00004374 00000089 1087.90 76.87 422.01 621.53 1170.84 313.58 1366.94 318.95 1235.06 422.48 1177.74 544.24 1332.94 548.20
00004375 00000090 1087.68 77.30 423.47 619.55 1172.67 315.35 1370.12 321.17 1239.06 420.95 1179.67 542.86 1335.98 547.04
00004376 00000091 1087.40 75.76 423.69 620.34 1173.62 315.22 1371.31 322.27 1241.54 422.16 1180.41 542.11 1337.78 547.30
00004377 00000092 1087.37 74.85 424.80 621.55 1174.53 317.18 1371.30 325.12 1241.96 423.45 1180.84 542.34 1338.30 548.21
00004378 00000093 1088.55 80.05 421.91 615.99 1174.63 317.22 1371.86 326.03 1242.08 424.74 1180.94 541.76 1339.76 548.29
00004379 00000094 1089.51 82.86 420.35 612.26 1174.62 317.59 1371.90 326.96 1241.33 426.28 1180.24 541.75 1339.04 548.82
00004380 00000095 1087.00 84.39 422.50 616.20 1172.64 316.71 1370.84 326.18 1240.73 428.02 1177.59 543.93 1339.10 551.03
00004381 00000096 1086.67 86.91 422.92 617.90 1171.67 315.84 1368.86 326.83 1239.34 431.15 1175.86 544.08 1338.83 552.39
00004382 00000097 1085.90 86.11 423.13 619.71 1169.27 316.53 1365.90 327.09 1237.06 434.09 1174.38 545.72 1337.26 553.57
00004383 00000098 1084.60 85.66 423.57 617.31 1167.06 315.53 1363.57 325.33 1234.81 432.75 1172.26 544.53 1334.95 551.77
00004384 00000099 1084.08 82.69 423.08 618.36 1166.73 314.88 1362.07 323.33 1234.26 429.96 1172.15 542.84 1334.03 548.91
00004385 00000100 1084.89 79.56 422.57 622.77 1166.57 313.72 1360.92 322.10 1231.83 428.72 1170.72 543.27 1329.83 549.42
00004386 00000101 1086.42 78.26 421.66 627.04 1167.15 313.85 1360.71 320.61 1231.26 426.74 1173.27 546.17 1329.20 551.10
00004387 00000102 1087.83 80.58 421.30 627.11 1169.00 312.19 1362.60 319.03 1231.99 426.11 1175.11 546.85 1329.10 552.01
00004388 00000103 1088.47 80.60 422.19 625.98 1170.33 312.12 1364.32 319.41 1232.82 425.86 1176.38 545.86 1330.48 551.27
00004389 00000104 1088.51 81.09 421.37 624.83 1170.37 312.84 1365.21 320.84 1234.15 426.39 1176.01 545.11 1332.47 551.16
00004390 00000105 1088.83 83.02 421.65 622.96 1171.18 313.80 1366.37 322.37 1235.32 426.88 1176.21 544.48 1334.04 550.98
00004391 00000106 1088.21 82.98 421.82 622.41 1170.92 314.09 1366.23 322.78 1235.57 427.28 1176.03 544.07 1334.58 550.61
00004392 00000107 1087.65 82.68 421.50 621.55 1170.22 314.11 1365.58 322.60 1235.48 427.33 1175.27 543.30 1334.66 549.64
00004393 00000108 1087.16 81.14 421.96 620.85 1169.64 313.39 1364.76 321.81 1234.57 426.96 1174.47 541.92 1334.40 548.14
00004394 00000109 1086.35 79.55 422.70 620.27 1168.33 312.67 1363.84 320.57 1233.52 426.95 1173.95 541.20 1334.30 546.81
00004395 00000110 1085.78 81.67 423.19 619.48 1168.12 313.22 1364.13 321.88 1233.72 427.37 1172.91 541.25 1334.07 547.57
00004396 00000111 1086.56 82.18 421.56 621.72 1168.55 313.88 1362.90 322.91 1233.02 429.78 1173.25 542.79 1333.16 549.42
00004397 00000112 1086.14 80.64 421.11 622.56 1167.41 314.43 1360.62 322.39 1231.50 429.38 1172.28 542.91 1331.98 548.69
00004398 00000113 1084.85 76.84 420.25 622.23 1165.73 312.14 1358.62 319.12 1229.62 426.71 1171.38 541.49 1329.43 546.52
00004399 00000114 1084.09 74.63 421.31 623.34 1164.52 311.13 1357.81 318.44 1227.56 425.39 1169.25 539.28 1329.47 544.48
00004400 00000115 1084.04 76.20 421.20 621.95 1163.89 311.26 1357.96 317.52 1228.35 425.53 1169.25 539.40 1331.17 543.69
00004401 00000116 1083.41 78.42 421.28 619.41 1162.91 311.97 1357.53 318.19 1227.84 425.95 1168.08 539.16 1331.93 543.41
00004402 00000117 1083.58 77.59 421.64 620.02 1163.38 311.87 1357.98 318.49 1228.23 425.93 1167.87 538.31 1332.04 542.87
00004403 00000118 1083.57 74.98 422.00 621.53 1164.36 311.11 1357.71 318.33 1227.89 425.27 1168.42 537.32 1330.34 542.39
00004404 00000119 1084.01 75.32 422.19 622.66 1164.72 310.99 1359.56 317.37 1229.26 424.23 1170.38 539.19 1331.57 543.63
00004405 00000120 1085.26 77.67 422.11 624.32 1166.62 312.26 1361.25 319.13 1230.75 425.22 1172.32 542.79 1330.48 547.73
00004406 00000121 1086.52 79.44 422.44 627.19 1167.98 312.98 1361.12 320.98 1230.15 427.27 1173.48 544.54 1330.52 550.44
00004407 00000122 1087.84 83.57 421.74 624.78 1168.80 314.51 1361.17 323.16 1229.81 429.45 1174.27 546.13 1330.19 552.69
00004408 00000123 1086.79 80.17 422.73 625.95 1167.74 313.32 1360.43 321.33 1228.24 427.15 1173.29 545.54 1328.79 551.51
00004409 00000124 1085.44 74.92 423.31 624.84 1167.02 311.91 1360.68 319.69 1228.51 425.81 1171.94 542.15 1327.98 547.85
00004410 00000125 1085.35 72.63 423.07 621.10 1166.31 311.14 1361.00 318.80 1228.56 423.88 1170.44 538.32 1329.99 543.81
00004411 00000126 1085.48 72.35 422.24 618.87 1166.38 314.14 1358.71 321.34 1227.89 424.54 1170.79 537.72 1329.45 542.92
00004412 00000127 1085.80 75.84 418.64 618.95 1167.78 319.39 1355.79 327.03 1227.58 425.29 1170.89 538.61 1328.78 544.41
00004413 00000128 1087.25 78.50 417.62 620.31 1167.82 319.18 1357.58 325.57 1228.92 426.25 1171.56 542.49 1328.88 547.30
00004414 00000129 1086.65 77.42 418.83 623.80 1167.07 316.36 1357.00 322.18 1226.96 427.21 1173.12 543.78 1328.39 548.07
00004415 00000130 1086.12 78.02 417.80 627.27 1165.24 315.04 1353.61 320.34 1223.89 427.32 1171.81 545.38 1326.12 549.16
00004416 00000131 1084.40 79.78 417.66 626.51 1163.01 314.67 1350.32 319.52 1221.49 427.38 1169.42 545.56 1323.88 548.99
00004417 00000132 1081.86 80.56 417.73 625.92 1158.38 315.61 1346.82 320.21 1217.99 429.16 1164.96 546.74 1322.18 549.87
00004418 00000133 1078.75 81.26 417.48 625.81 1154.52 318.32 1343.89 322.99 1215.24 431.89 1160.76 549.47 1319.74 552.55
00004419 00000134 1075.75 84.06 416.81 625.49 1150.59 321.02 1340.50 324.70 1213.20 436.62 1158.13 552.74 1315.77 555.18
00004420 00000135 1072.42 87.45 418.00 627.15 1147.57 323.39 1337.97 325.95 1210.73 439.36 1156.60 556.86 1313.09 558.50
00004421 00000136 1069.96 91.29 416.99 625.62 1143.79 325.92 1334.12 326.48 1208.23 443.34 1155.48 559.56 1310.31 559.62
00004422 00000137 1067.00 92.72 418.21 625.45 1141.94 326.50 1331.38 328.02 1207.94 447.95 1155.72 560.65 1308.10 561.56
00004423 00000138 1066.31 90.99 418.15 628.20 1140.22 327.25 1329.04 328.00 1206.56 450.36 1154.98 562.61 1307.94 562.58
00004424 00000139 1065.78 91.34 417.91 627.24 1137.02 328.25 1329.22 328.65 1205.01 452.36 1151.38 564.86 1307.94 564.52
00004425 00000140 1066.27 91.62 417.39 625.87 1136.92 327.85 1329.55 327.97 1204.83 451.44 1151.11 565.31 1306.49 564.89
00004426 00000141 1066.58 91.44 417.25 627.33 1137.97 326.87 1330.44 327.03 1204.66 450.02 1150.98 564.96 1307.41 564.54
00004427 00000142 1067.24 91.10 417.11 630.26 1140.12 325.13 1332.07 325.46 1206.83 448.23 1152.63 563.59 1309.27 563.16
00004428 00000143 1067.04 91.29 418.22 630.99 1141.76 324.53 1333.59 324.07 1208.58 445.60 1155.14 562.69 1310.42 561.70
00004429 00000144 1068.43 89.90 418.10 632.27 1143.19 322.57 1334.39 323.41 1208.77 444.13 1155.66 561.14 1310.19 561.17
00004430 00000145 1069.84 90.46 417.98 630.36 1144.32 321.47 1336.75 323.02 1209.89 442.53 1156.23 560.31 1311.38 560.90
00004431 00000146 1070.84 90.28 417.20 629.36 1143.96 321.22 1337.25 322.86 1209.98 442.04 1155.23 559.24 1312.78 559.91
00004432 00000147 1070.91 89.98 417.53 628.47 1143.76 321.32 1337.72 323.49 1210.61 442.27 1154.10 558.42 1313.67 559.45
00004433 00000148 1069.75 91.51 418.32 624.30 1142.56 321.42 1337.62 324.81 1209.86 443.63 1150.75 555.67 1314.88 557.50
00004434 00000149 1069.19 92.22 418.90 623.50 1142.43 322.59 1337.06 326.15 1210.38 446.16 1151.51 555.87 1315.61 557.92
00004435 00000150 1069.33 91.47 418.34 627.26 1142.42 324.33 1335.84 326.99 1210.84 449.43 1153.72 559.11 1316.81 560.47
00004436 00000151 1070.16 90.60 417.64 632.75 1142.21 327.05 1334.40 329.44 1211.51 453.74 1155.21 563.10 1316.38 564.34
00004437 00000152 1069.34 90.92 419.20 636.74 1142.72 330.41 1332.52 331.41 1211.80 456.39 1159.44 567.01 1316.05 567.22
00004438 00000153 1069.12 92.79 419.62 635.97 1142.83 331.74 1332.21 331.65 1211.99 456.68 1160.14 568.45 1315.25 567.80
00004439 00000154 1069.44 92.42 419.37 634.15 1142.75 331.32 1332.79 331.72 1211.96 455.85 1159.75 568.07 1314.69 567.91
00004440 00000155 1070.62 91.47 418.41 630.97 1143.16 329.58 1333.97 330.80 1212.74 454.21 1158.85 565.84 1315.27 566.31
00004441 00000156 1072.60 91.62 417.56 627.31 1144.77 326.27 1336.89 327.14 1213.52 449.92 1159.12 563.07 1317.23 563.15
00004442 00000157 1075.59 89.82 415.59 623.26 1147.31 324.79 1338.91 326.49 1213.58 442.31 1157.34 557.12 1318.13 557.98
00004443 00000158 1076.34 85.74 415.30 622.29 1151.54 326.24 1341.65 330.11 1215.75 437.32 1159.30 551.79 1322.36 554.15
00004444 00000159 1078.40 83.14 416.44 623.85 1153.98 321.74 1345.17 325.08 1218.28 432.19 1161.24 549.93 1324.14 551.98
00004445 00000160 1079.39 81.62 417.85 626.30 1154.73 319.46 1346.57 322.85 1219.11 431.90 1162.02 550.00 1324.39 552.09
00004446 00000161 1081.00 82.44 417.27 626.68 1155.02 318.96 1346.26 321.84 1217.81 432.08 1163.24 551.00 1324.30 552.71
00004447 00000162 1080.92 83.66 416.73 626.85 1154.31 319.22 1345.71 322.44 1216.77 434.69 1162.57 551.89 1324.40 553.78
00004448 00000163 1080.25 84.51 416.40 625.89 1153.33 319.53 1345.51 322.76 1215.78 434.25 1160.45 551.31 1324.83 553.08
