Video ID: 	6AG7VLBZTJI
H: 	1080
W: 	1920
FPS: 	24.0

FRAME INDEX X0 Y0 W H [Landmarks (5 Points)]

00001589 00000000 603.07 129.12 350.10 575.69 693.65 369.55 884.45 353.62 815.55 473.05 731.58 584.77 884.27 571.31
00001590 DELETE   602.47 125.22 354.82 586.50 699.52 366.21 888.98 351.26 826.57 469.08 739.98 587.83 888.40 575.45
00001591 DELETE   609.92 120.83 354.54 598.30 708.60 360.26 901.71 347.79 839.83 467.68 745.38 589.64 897.48 579.86
00001592 DELETE   614.79 124.76 359.11 599.19 719.63 360.39 913.26 347.69 857.75 470.55 746.16 585.63 908.65 576.02
00001593 00000004 614.80 129.06 362.17 584.69 727.14 369.01 918.04 353.74 871.36 476.53 745.79 572.29 920.52 561.41
00001594 00000005 608.63 130.97 371.01 583.29 730.61 367.99 920.55 354.45 878.94 479.05 738.11 560.72 922.90 551.66
00001595 00000006 609.37 133.21 370.32 584.10 732.67 368.88 918.58 354.64 881.05 479.48 736.21 557.63 921.99 548.51
00001596 00000007 610.21 129.40 367.21 588.93 737.66 369.05 918.02 353.03 887.77 476.84 739.13 557.06 920.53 546.94
00001597 00000008 611.95 126.07 363.11 594.06 741.44 368.54 918.07 349.68 892.98 473.29 745.50 557.41 922.52 544.96
00001598 00000009 617.62 124.82 357.21 606.99 749.33 367.15 920.42 348.82 900.53 469.65 756.83 566.31 923.31 554.07
00001599 00000010 612.29 128.04 358.18 615.07 751.13 363.53 921.00 348.06 906.31 463.49 766.86 576.14 924.15 565.26
00001600 00000011 615.20 131.80 353.12 599.90 752.01 367.18 920.79 348.45 906.20 466.85 770.76 577.16 924.22 563.67
00001601 00000012 615.80 129.09 347.95 603.27 749.59 368.29 920.15 349.09 905.49 469.35 772.65 582.65 922.41 568.97
00001602 00000013 609.89 127.16 352.80 606.12 744.66 370.72 916.78 350.61 903.18 472.27 773.04 587.01 921.33 572.49
00001603 00000014 603.75 130.72 356.67 609.84 737.63 375.37 911.59 353.54 895.24 474.23 769.08 590.20 921.51 574.34
00001604 00000015 598.74 130.11 361.63 611.37 733.04 380.04 910.70 355.30 891.97 478.90 767.51 596.10 920.85 577.73
00001605 00000016 600.63 131.69 357.79 613.21 729.59 382.05 909.97 357.69 889.39 482.71 763.55 600.22 918.52 582.27
00001606 00000017 600.53 130.64 358.51 622.02 729.58 378.99 905.65 355.39 887.14 479.89 761.28 599.61 912.35 582.57
00001607 00000018 598.05 127.06 362.77 628.40 731.28 375.95 903.09 352.80 890.60 473.12 760.45 596.15 910.77 579.68
00001608 00000019 596.32 126.12 364.96 619.21 732.70 372.31 905.08 349.42 891.44 469.94 764.28 591.85 912.82 575.54
00001609 00000020 589.46 122.27 367.12 610.22 730.37 369.02 898.42 337.76 889.71 462.14 763.35 579.93 912.70 556.10
00001610 00000021 594.22 118.82 359.81 601.86 727.46 365.45 894.39 334.97 882.35 450.73 766.05 576.04 910.12 551.44
00001611 00000022 581.03 119.62 369.05 593.52 720.77 357.95 886.69 325.31 876.35 443.02 764.07 569.11 903.96 541.80
00001612 00000023 572.04 115.76 371.69 591.75 710.81 352.69 880.60 324.72 861.75 437.30 753.92 562.06 895.70 538.16
00001613 00000024 561.86 115.17 377.74 594.47 701.30 347.75 873.79 325.47 851.45 433.03 736.62 555.59 885.65 536.45
00001614 00000025 555.05 107.63 373.39 608.78 690.43 338.05 867.92 324.32 850.32 431.01 715.89 550.23 882.18 540.04
00001615 00000026 546.07 107.68 375.10 619.73 684.93 330.78 862.12 323.34 852.54 430.77 702.25 555.80 867.65 551.46
00001616 00000027 539.98 116.59 374.70 616.36 682.75 335.15 855.60 324.48 851.43 440.41 699.66 563.25 860.00 555.92
00001617 00000028 536.83 117.33 372.04 611.02 679.32 343.31 851.47 330.15 841.21 449.69 700.97 565.34 858.49 555.48
00001618 00000029 534.68 122.23 372.81 599.59 679.12 351.29 850.15 333.50 838.29 455.52 711.87 568.36 863.23 554.16
00001619 00000030 542.65 121.39 362.73 595.36 686.31 359.35 854.45 334.85 842.49 460.52 713.32 574.02 857.16 556.22
00001620 00000031 540.93 118.65 362.53 600.91 687.12 362.33 852.83 334.39 845.82 464.67 716.35 579.93 857.43 559.42
00001621 00000032 539.80 116.18 363.94 598.67 683.42 362.88 852.79 336.38 841.04 463.51 720.47 584.17 857.59 564.92
00001622 00000033 531.73 123.50 374.65 599.42 678.62 359.27 851.67 334.16 838.96 464.15 731.41 588.53 867.71 567.79
00001623 00000034 534.99 125.25 370.48 599.25 678.52 361.41 853.71 337.45 838.57 465.91 726.73 588.57 866.63 568.98
00001624 00000035 546.94 124.34 360.03 598.95 683.99 370.08 850.40 345.88 837.03 467.49 709.48 582.33 852.99 565.30
00001625 00000036 543.25 124.46 364.26 591.88 683.13 374.20 852.17 348.92 840.05 474.94 699.99 576.72 852.28 559.37
00001626 00000037 537.01 136.09 373.72 579.93 680.52 374.84 846.70 351.82 832.77 471.11 690.05 567.21 851.91 551.61
00001627 00000038 533.85 137.32 378.20 577.10 677.52 382.50 846.31 357.98 827.70 475.12 682.35 562.76 854.52 546.41
00001628 00000039 538.32 136.35 376.55 582.11 678.21 378.33 847.72 354.35 829.69 470.44 686.40 564.83 856.07 548.20
00001629 00000040 553.85 138.96 364.41 591.48 689.88 369.61 857.88 346.35 848.45 465.44 698.82 570.64 861.48 554.86
00001630 DELETE   560.41 138.99 362.06 590.39 702.48 366.74 867.70 348.37 857.70 461.06 718.95 571.66 868.77 559.49
00001631 00000042 567.87 140.97 357.74 575.50 705.68 375.66 869.00 351.25 856.39 462.80 732.49 571.61 876.88 554.48
00001632 00000043 573.42 139.34 352.18 578.14 707.13 378.67 869.01 351.43 857.17 462.74 737.33 575.24 879.82 555.98
00001633 00000044 577.44 139.20 348.45 588.82 706.51 385.24 867.49 352.27 855.93 466.21 732.40 580.58 878.49 557.76
00001634 00000045 576.12 145.44 349.58 586.39 704.28 392.06 863.68 354.94 853.04 473.49 733.45 585.25 878.98 558.68
00001635 00000046 573.18 146.85 353.19 586.82 701.47 397.46 858.48 354.02 850.73 478.85 741.79 595.09 880.23 563.12
00001636 00000047 568.08 155.62 362.62 582.93 698.33 403.12 859.22 357.38 851.98 485.15 749.57 605.53 886.66 570.47
00001637 00000048 572.56 159.63 356.15 576.41 697.29 405.96 861.25 362.29 848.44 491.82 757.62 615.00 887.79 581.02
00001638 00000049 577.17 157.47 352.84 576.33 701.94 403.89 868.24 360.62 855.13 489.74 760.85 614.88 890.80 582.07
00001639 00000050 585.57 154.83 345.36 583.62 708.72 401.21 872.55 358.71 863.45 487.43 756.84 612.37 890.06 580.99
00001640 00000051 595.67 155.04 335.03 586.10 715.29 402.26 877.41 357.48 872.65 485.78 754.41 611.00 891.69 579.00
00001641 00000052 592.58 154.53 337.37 580.13 718.83 400.84 878.38 357.67 876.04 482.73 754.80 603.30 892.95 572.19
00001642 00000053 592.63 156.67 337.13 572.38 721.76 400.60 878.59 358.66 877.61 479.96 758.30 599.83 893.34 569.53
00001643 00000054 591.62 155.84 339.23 567.93 726.08 402.92 878.54 362.49 881.25 480.06 761.59 595.79 894.34 566.90
00001644 00000055 596.12 153.70 337.81 563.38 730.29 404.53 881.01 361.11 883.82 482.02 762.50 591.74 897.06 560.79
00001645 00000056 596.06 158.01 341.17 554.81 729.97 407.55 883.15 370.34 881.26 484.57 761.60 589.23 899.45 562.85
00001646 00000057 592.67 163.69 346.59 551.04 728.75 408.43 887.19 373.47 881.86 486.74 758.33 591.12 901.24 566.75
00001647 00000058 600.13 163.47 343.19 552.62 731.59 410.00 886.99 372.49 882.60 493.77 759.08 592.46 902.44 566.01
00001648 00000059 605.77 163.59 341.80 555.12 733.70 408.63 891.98 371.84 885.55 495.22 759.58 593.22 905.47 567.31
00001649 00000060 611.15 167.85 340.94 553.11 736.93 408.46 894.60 372.15 887.06 495.06 756.65 588.67 909.78 563.80
00001650 00000061 613.35 166.59 345.12 552.15 741.04 407.43 895.74 371.80 890.18 495.43 756.04 582.34 910.54 558.62
00001651 00000062 614.76 165.62 349.01 552.01 745.52 405.28 900.79 371.15 896.12 495.92 758.56 579.17 914.23 556.87
00001652 00000063 618.01 167.44 348.66 551.80 747.67 404.33 904.56 372.12 897.41 497.38 757.56 577.04 917.00 556.13
00001653 00000064 617.40 165.38 350.49 554.85 749.11 404.22 907.82 373.15 898.99 497.47 755.98 576.67 918.50 556.80
00001654 00000065 619.68 164.24 349.76 554.96 751.26 402.86 909.97 374.02 899.37 498.26 757.39 575.41 920.35 557.12
00001655 00000066 622.99 162.72 347.42 556.33 752.60 402.39 912.73 374.71 899.29 498.12 758.51 574.93 922.87 557.54
00001656 00000067 624.78 163.00 347.74 555.37 753.07 403.49 913.08 374.66 899.42 499.44 760.11 574.86 924.30 556.39
00001657 00000068 626.82 164.53 346.55 554.22 752.84 404.28 914.68 375.45 899.00 499.61 762.30 577.08 926.51 558.24
00001658 00000069 627.26 164.45 346.65 554.95 751.75 406.76 914.81 376.52 898.03 501.66 763.04 580.54 926.86 560.49
00001659 00000070 625.11 168.33 349.23 552.98 751.26 408.83 915.13 377.49 898.44 505.33 762.00 584.50 926.05 563.73
00001660 00000071 622.91 168.32 350.58 552.18 749.55 411.33 913.83 377.02 897.64 507.07 761.12 584.80 925.77 561.78
00001661 00000072 620.31 172.45 350.82 547.65 744.77 412.36 906.72 377.68 891.91 500.41 769.12 589.29 930.35 563.02
00001662 00000073 623.55 169.75 346.66 553.77 743.67 415.60 908.42 375.53 890.86 506.10 767.78 594.14 925.24 565.64
00001663 DELETE   627.80 171.78 337.38 555.95 739.39 423.52 907.43 387.22 883.06 512.10 771.81 612.08 919.29 585.76
00001664 DELETE   623.50 171.89 337.78 561.08 735.70 423.22 898.38 385.48 877.30 509.82 772.34 618.57 909.23 591.02
00001665 DELETE   623.09 165.59 336.25 558.98 731.41 415.58 896.83 376.21 872.19 507.01 770.58 615.35 907.55 586.25
00001666 00000077 626.40 163.78 334.73 557.58 727.27 413.67 896.12 370.84 864.92 500.84 766.52 608.06 912.98 575.91
00001667 00000078 621.95 160.78 339.77 556.96 725.34 408.85 891.60 367.14 860.76 495.24 767.22 599.84 913.69 567.90
00001668 00000079 619.48 153.49 344.84 566.17 718.64 405.06 890.25 365.55 854.80 495.58 759.99 595.14 914.57 565.28
00001669 DELETE   614.57 157.84 348.61 562.47 708.99 401.63 881.71 356.28 845.15 489.46 752.43 590.28 913.70 554.69
00001670 DELETE   607.11 155.35 354.51 557.42 698.88 396.91 878.21 349.60 836.75 482.81 742.29 584.70 909.91 546.94
00001671 DELETE   596.28 156.13 359.59 554.46 690.61 389.53 871.81 343.64 827.11 473.19 734.74 578.08 904.24 540.59
00001672 00000083 595.66 158.43 356.27 545.97 685.70 385.98 865.89 343.61 815.07 466.24 728.65 570.42 898.60 535.61
00001673 00000084 595.34 158.79 355.20 543.55 684.12 384.89 863.78 343.55 809.78 466.73 725.79 567.29 896.09 533.11
00001674 00000085 596.21 159.68 355.10 547.92 684.86 383.65 864.89 341.82 811.63 466.00 726.90 570.66 895.81 535.99
00001675 00000086 599.38 159.41 353.56 548.57 687.24 383.69 869.49 341.24 815.38 466.70 729.06 572.01 900.21 536.67
00001676 DELETE   604.39 154.83 352.09 550.38 693.19 385.32 878.51 343.26 823.58 471.66 732.92 573.84 905.49 539.08
00001677 DELETE   611.53 157.09 351.49 547.29 702.57 387.92 886.30 344.56 838.83 472.26 742.21 576.76 912.58 541.75
00001678 DELETE   615.21 153.17 352.16 549.36 711.10 392.48 892.10 345.05 851.26 472.42 751.49 577.41 920.05 539.54
00001679 00000090 615.06 150.72 352.96 548.85 716.17 395.32 893.84 342.52 861.53 469.38 760.73 582.02 923.46 540.24
00001680 00000091 609.82 145.33 355.37 553.65 719.09 395.24 893.08 343.27 866.93 464.51 764.69 580.33 924.21 538.64
00001681 00000092 316.76 62.40 244.75 361.31
00001682 00000093 317.15 61.21 244.87 360.96
00001683 00000094 317.54 60.02 244.98 360.60
00001684 00000095 317.93 58.82 245.10 360.25
00001685 00000096 319.50 59.67 245.13 359.96
00001686 00000097 321.08 60.52 245.16 359.67
00001687 00000098 322.65 61.36 245.19 359.39
00001688 00000099 324.22 62.21 245.23 359.10
00001689 00000100 325.58 62.93 245.26 358.91
00001690 00000101 326.13 63.20 245.30 359.14
00001691 00000102 326.67 63.47 245.35 359.36
00001692 00000103 327.21 63.73 245.39 359.59
00001693 00000104 327.75 64.00 245.44 359.81
00001694 00000105 328.10 64.33 245.51 359.94
00001695 00000106 328.16 64.78 245.62 359.94
00001696 00000107 328.22 65.22 245.74 359.93
00001697 00000108 328.27 65.66 245.85 359.92
00001698 00000109 328.33 66.10 245.96 359.91
00001699 00000110 328.50 65.44 245.93 360.02
00001700 00000111 328.74 64.04 245.79 360.21
00001701 00000112 328.99 62.64 245.66 360.40
00001702 00000113 329.23 61.23 245.53 360.59
00001703 DELETE   329.47 59.83 245.39 360.77
00001704 DELETE   327.98 57.53 245.61 360.75
00001705 DELETE   326.05 55.01 245.91 360.68
00001706 00000117 324.12 52.49 246.22 360.61
00001707 00000118 322.20 49.97 246.52 360.53
CROP_BBOX: 274 0 1249 943
