Video ID: 	IJMMNqvnwaQ
H: 	1080
W: 	1920
FPS: 	29.97002997002997

FRAME INDEX X0 Y0 W H [Landmarks (5 Points)]

00004916 00000000 898.23 94.31 343.34 512.24 1003.88 310.19 1166.79 299.05 1114.64 380.91 1036.71 492.61 1166.81 485.01
00004917 00000001 900.73 89.12 344.59 511.79 1005.25 305.39 1171.14 291.71 1116.95 372.71 1037.39 485.27 1172.29 475.21
00004918 00000002 897.98 86.91 349.03 511.49 1006.32 308.16 1171.80 295.02 1112.38 371.97 1038.21 478.45 1177.15 467.79
00004919 00000003 896.22 87.75 350.90 511.83 1006.96 310.95 1171.99 296.90 1115.28 372.90 1040.28 481.09 1177.66 469.74
00004920 DELETE   903.01 92.51 345.64 508.88 1008.08 312.10 1172.90 295.88 1120.25 378.61 1042.26 490.04 1176.89 477.96
00004921 DELETE   899.79 92.53 346.65 511.57 1008.95 315.93 1171.30 295.83 1121.93 382.73 1045.73 493.70 1176.66 478.28
00004922 00000006 918.22 104.25 311.11 489.99 1008.20 306.29 1169.69 293.98 1117.04 379.34 1038.28 488.29 1165.39 479.97
00004923 00000007 708.02 148.86 327.56 507.08 818.61 357.55 978.27 332.47 931.71 421.02 851.10 530.90 993.28 510.53
00004924 DELETE   704.66 134.24 335.05 516.12 821.78 354.68 975.62 330.29 938.98 417.94 860.57 529.68 992.33 510.05
00004925 DELETE   701.55 134.81 335.98 513.30 815.03 345.46 968.76 320.29 933.74 415.64 858.00 525.72 986.60 505.12
00004926 00000010 697.03 130.59 338.86 516.57 809.27 342.01 968.12 313.34 930.91 414.73 848.29 519.31 986.44 496.38
00004927 00000011 697.45 130.68 338.81 517.49 807.11 340.90 965.83 315.87 925.58 417.15 840.12 511.79 985.51 492.30
00004928 DELETE   694.79 134.08 339.53 512.20 800.76 340.83 964.53 318.94 916.87 420.45 831.89 510.48 982.90 493.64
00004929 00000013 691.96 133.87 339.92 510.21 795.62 341.51 962.73 319.08 910.70 421.38 827.21 512.27 980.07 494.94
00004930 DELETE   687.54 135.58 342.36 504.76 789.94 340.96 954.72 317.77 902.47 418.98 821.29 509.60 972.66 491.80
00004931 00000015 680.83 130.25 346.49 507.87 783.97 339.88 946.69 313.77 896.04 418.82 819.91 510.80 965.80 490.14
00004932 00000016 677.14 131.26 345.82 513.36 779.45 337.22 940.67 311.27 891.48 417.29 818.19 514.40 961.25 493.39
00004933 00000017 673.52 123.12 347.17 516.45 776.29 334.05 936.79 309.70 885.66 415.73 817.57 514.14 954.00 494.41
00004934 00000018 671.63 120.05 347.71 515.24 771.78 332.34 934.72 304.85 882.85 414.20 816.10 512.82 954.43 490.14
00004935 00000019 672.08 118.65 346.79 514.66 772.40 331.10 934.85 303.61 883.22 411.90 817.07 512.04 953.69 489.50
00004936 00000020 673.87 116.37 345.47 514.57 774.90 329.83 934.80 303.44 885.06 411.23 820.03 511.45 952.24 490.09
00004937 00000021 675.83 115.58 345.60 513.67 779.78 329.47 940.53 306.66 891.12 409.58 822.39 511.14 954.01 493.02
00004938 00000022 679.01 116.02 344.75 508.59 785.27 330.16 945.94 308.66 898.44 406.44 827.78 509.66 958.73 492.74
00004939 DELETE   681.88 114.54 346.33 508.01 788.73 332.96 949.51 308.72 903.72 406.88 832.57 510.36 964.22 491.10
00004940 DELETE   687.18 113.38 342.80 510.26 794.71 337.52 956.21 317.53 907.88 406.86 831.26 507.74 968.49 492.06
00004941 DELETE   689.28 115.66 339.63 515.71 798.13 339.67 958.05 320.00 911.13 408.06 830.27 507.56 971.55 492.56
00004942 00000026 687.34 116.19 342.83 518.03 795.98 338.08 956.84 315.92 912.35 409.01 832.24 510.07 973.89 492.74
00004943 00000027 685.36 117.01 344.43 516.61 794.53 335.32 954.58 310.77 912.73 406.48 832.73 508.99 973.49 489.67
00004944 00000028 684.71 112.65 344.82 520.31 792.66 331.72 951.13 305.94 910.31 401.83 832.65 507.66 971.18 487.36
00004945 00000029 684.74 114.69 344.60 523.43 790.89 328.24 948.42 304.12 907.08 400.42 831.43 510.33 967.27 491.44
00004946 00000030 683.93 114.28 341.71 527.46 788.27 327.01 946.53 304.09 904.46 401.29 829.73 515.62 961.93 498.11
00004947 00000031 680.84 113.29 343.29 521.89 787.15 325.63 945.92 303.98 903.10 402.00 827.83 512.47 959.58 495.76
00004948 00000032 680.23 110.05 342.64 519.24 788.14 325.45 946.74 304.51 904.13 399.31 830.23 510.63 958.86 494.32
00004949 00000033 682.03 111.60 341.04 514.26 790.53 326.16 948.21 304.99 906.03 396.13 831.98 508.44 959.51 491.97
00004950 00000034 681.31 109.66 341.66 513.82 792.00 326.94 948.76 304.75 908.76 395.75 834.20 506.91 961.56 489.50
00004951 00000035 683.04 107.90 339.98 512.18 793.81 327.67 951.10 304.36 912.53 395.22 836.21 505.02 965.30 486.65
00004952 00000036 683.35 109.15 338.15 510.98 797.28 332.02 952.44 313.10 914.15 395.55 835.45 503.43 965.38 488.92
00004953 DELETE   682.71 113.50 339.30 514.34 798.54 329.86 951.44 312.46 913.01 394.47 837.44 506.14 963.73 492.87
00004954 00000038 680.67 112.41 340.56 522.21 791.77 330.14 945.68 309.27 908.38 397.94 838.47 515.91 961.65 499.83
00004955 00000039 679.05 115.22 341.21 517.52 790.65 329.33 944.14 307.73 907.95 399.45 840.18 518.50 958.85 501.82
00004956 00000040 676.62 116.05 342.64 512.25 790.04 330.03 943.80 307.92 907.09 401.39 839.71 516.94 957.36 499.49
00004957 00000041 676.96 114.51 342.75 510.62 790.80 331.59 945.31 307.61 908.37 401.34 840.29 515.13 959.52 495.90
00004958 00000042 678.31 113.51 341.84 509.22 792.65 331.22 947.59 305.95 910.62 402.11 840.88 513.15 961.70 492.86
00004959 00000043 681.68 112.77 340.64 508.14 795.67 331.53 950.14 305.92 913.94 402.38 843.24 512.34 964.89 491.91
00004960 00000044 683.17 111.55 339.36 510.73 799.71 332.00 954.02 307.36 918.19 403.01 844.20 510.45 968.25 490.97
00004961 00000045 686.41 110.16 340.03 512.55 802.55 332.08 958.45 308.62 921.99 401.53 847.10 510.72 973.56 492.19
00004962 00000046 690.27 111.33 339.29 512.11 806.18 331.06 962.54 307.83 925.90 401.40 850.04 511.22 976.69 493.11
00004963 00000047 692.03 112.63 340.38 511.20 810.63 332.31 967.24 307.84 932.05 401.45 853.90 511.41 981.39 492.36
00004964 00000048 694.09 113.20 341.09 511.78 813.41 333.66 970.13 308.69 934.86 403.27 855.55 511.73 983.94 492.30
00004965 00000049 695.45 115.96 341.64 514.63 815.80 334.35 970.82 309.60 936.45 405.53 858.15 515.20 984.30 496.00
00004966 00000050 699.13 116.75 340.60 516.80 818.87 335.62 972.49 310.55 937.99 405.54 861.74 517.12 986.22 497.66
00004967 00000051 702.37 118.66 341.10 516.23 823.07 336.66 974.09 312.08 942.04 405.97 865.96 517.54 988.00 498.57
00004968 00000052 704.72 121.71 340.60 513.82 828.11 336.91 978.41 313.43 947.97 407.54 868.49 517.03 991.20 499.00
00004969 00000053 709.66 131.35 327.06 494.93 832.93 337.35 977.52 321.11 947.67 412.07 875.11 516.90 988.35 502.75
00004970 00000054 708.06 132.41 332.75 496.73 832.50 340.93 980.13 323.97 948.69 413.99 873.68 517.69 988.87 504.59
00004971 00000055 708.85 134.03 332.83 498.04 833.72 343.13 982.20 326.69 950.27 416.57 871.88 519.12 989.27 506.74
00004972 00000056 711.66 135.23 335.95 515.55 836.66 349.54 987.26 334.52 953.98 418.63 871.01 528.36 994.18 516.61
00004973 00000057 704.24 142.55 336.04 505.70 835.28 353.13 981.08 333.55 950.41 417.44 872.74 530.33 978.89 514.18
00004974 00000058 704.09 145.01 336.61 501.41 833.26 350.28 980.35 331.22 949.36 420.39 871.77 529.03 981.22 513.64
00004975 00000059 708.46 143.34 335.46 496.91 831.87 349.97 983.36 332.91 946.51 426.12 872.30 528.33 991.35 515.13
00004976 00000060 708.49 143.81 336.47 493.44 832.92 350.43 984.46 333.46 948.60 425.94 875.18 529.35 992.59 516.42
00004977 00000061 709.49 144.53 337.04 493.00 834.16 350.16 985.99 334.15 950.26 426.38 875.72 530.47 991.77 518.46
00004978 00000062 711.83 143.80 335.10 494.08 835.89 350.59 987.41 335.27 951.41 426.17 876.48 530.64 992.26 519.25
00004979 00000063 713.11 143.50 334.37 495.76 837.09 350.11 988.76 334.97 952.86 425.65 878.62 531.19 993.22 519.79
00004980 00000064 714.69 139.01 333.24 497.78 837.68 348.58 989.10 333.06 954.08 423.48 879.50 529.41 994.80 517.61
00004981 00000065 716.70 136.42 331.74 496.92 838.52 345.60 988.53 330.08 954.09 419.02 880.46 524.74 995.13 512.89
00004982 00000066 716.07 130.61 332.57 501.02 839.28 341.94 988.30 326.42 955.12 415.42 880.56 520.44 995.20 508.67
00004983 00000067 714.07 126.83 334.85 504.16 838.59 339.13 986.90 321.60 954.31 411.89 886.86 520.97 994.67 507.42
00004984 00000068 716.25 126.49 331.04 510.33 837.88 335.67 983.18 315.32 952.94 413.58 888.99 525.16 989.56 509.24
00004985 00000069 715.34 125.91 330.98 511.03 836.31 334.02 981.65 313.95 951.11 410.82 888.82 525.64 988.08 509.79
00004986 00000070 713.97 124.98 330.55 517.54 832.83 332.04 980.18 313.07 946.96 407.60 887.70 529.03 985.91 514.04
00004987 00000071 711.32 126.63 333.58 515.65 829.05 332.44 979.47 314.85 943.58 409.14 882.04 524.92 988.12 511.14
00004988 00000072 710.27 126.51 343.26 512.48 828.44 340.57 980.70 320.12 941.33 410.72 870.17 523.48 991.28 507.60
00004989 00000073 708.85 127.07 343.96 508.85 826.27 344.68 982.86 322.93 941.21 414.61 868.57 523.99 993.73 506.67
00004990 00000074 709.78 127.88 342.17 506.43 825.67 351.52 982.17 330.37 939.27 417.32 865.74 524.24 992.56 507.39
00004991 00000075 705.34 131.68 338.85 495.21 825.70 357.22 975.97 337.60 935.57 416.86 866.02 521.67 986.23 507.12
00004992 00000076 703.76 135.26 338.74 493.37 820.63 357.07 972.58 335.82 931.27 418.18 864.22 523.59 984.60 507.43
00004993 00000077 704.38 136.47 338.53 492.71 818.51 355.84 973.12 333.17 930.59 421.84 864.14 525.86 987.19 508.16
00004994 00000078 704.60 137.86 340.99 489.40 818.94 355.63 974.45 332.37 931.27 422.72 866.13 526.50 988.24 508.26
00004995 00000079 705.56 135.15 340.98 490.96 822.46 354.21 977.37 331.48 935.70 422.95 869.22 526.20 990.94 508.52
00004996 00000080 707.62 134.17 341.16 492.88 825.44 351.88 979.82 331.50 939.30 420.89 868.00 524.26 992.03 508.64
00004997 00000081 711.44 133.84 339.45 496.33 828.54 349.09 983.45 331.41 944.13 418.21 866.30 522.07 993.98 508.92
00004998 00000082 711.71 135.71 339.94 501.28 829.93 346.69 985.53 329.91 947.50 416.05 865.15 521.71 995.82 509.40
00004999 00000083 714.89 131.98 332.98 511.59 826.59 345.18 986.54 326.15 948.09 420.45 867.14 523.46 1001.07 509.28
00005000 00000084 715.39 132.29 333.25 512.35 826.93 344.12 985.98 325.64 947.01 420.16 867.15 522.75 999.38 509.00
00005001 00000085 710.57 133.40 337.94 502.79 828.98 344.10 983.74 328.17 944.10 416.34 866.08 522.05 990.75 509.95
00005002 00000086 709.95 133.44 336.67 499.89 827.02 344.70 981.91 327.28 941.34 417.26 868.15 522.91 989.92 509.24
00005003 00000087 712.63 130.88 340.16 511.25 825.98 344.71 983.51 323.98 940.99 418.47 865.95 526.25 992.79 509.71
00005004 DELETE   710.64 133.11 338.57 510.18 824.77 353.15 979.06 333.39 937.86 419.29 863.50 527.54 989.43 511.79
00005005 00000089 712.08 137.40 336.35 510.36 824.14 359.21 979.15 341.29 935.70 422.69 860.02 531.50 986.70 517.15
00005006 00000090 707.99 142.37 335.34 508.33 819.66 357.51 973.49 337.65 931.86 421.58 859.68 534.40 983.37 518.44
00005007 00000091 703.09 140.35 339.90 512.18 814.66 354.23 971.04 333.93 929.55 421.28 860.34 537.88 981.69 521.39
00005008 00000092 703.35 141.30 338.73 516.52 813.27 351.02 966.76 331.67 927.73 420.93 860.56 539.69 978.21 523.99
00005009 00000093 702.82 140.60 339.43 517.82 812.56 349.03 966.07 330.56 927.08 420.24 860.10 539.74 976.95 524.84
00005010 00000094 703.24 141.56 339.54 517.22 812.83 347.89 965.78 328.96 927.95 419.00 860.34 538.32 977.16 522.96
00005011 00000095 704.26 141.12 338.39 516.55 814.59 346.35 966.94 328.78 930.17 418.50 860.76 536.72 977.36 522.55
00005012 00000096 705.13 139.12 338.04 517.89 815.15 345.49 968.44 328.03 931.08 417.69 858.97 534.01 978.99 519.94
00005013 00000097 705.01 138.15 339.00 515.43 817.51 345.69 970.96 327.55 933.61 416.46 860.92 531.94 981.45 517.49
00005014 00000098 705.03 135.87 339.00 514.34 820.07 345.18 972.85 326.04 937.11 415.54 863.32 529.95 983.83 514.80
00005015 00000099 706.85 134.73 337.52 511.56 821.71 344.37 974.11 324.41 938.66 413.92 864.50 528.06 985.15 512.44
00005016 00000100 706.26 131.59 339.06 511.96 822.23 343.57 975.06 322.08 939.82 413.04 865.21 526.27 986.83 509.41
00005017 00000101 707.46 129.24 338.18 513.20 823.17 342.63 975.34 321.64 941.00 412.00 864.61 523.54 987.57 507.26
00005018 00000102 707.95 127.37 339.08 513.23 823.71 340.14 975.63 318.29 941.29 409.52 866.08 522.31 988.43 505.43
00005019 00000103 708.59 124.64 338.74 515.48 824.62 339.21 975.85 317.68 941.99 409.03 865.89 520.58 988.73 504.09
00005020 00000104 707.93 125.28 339.23 515.30 825.25 339.00 975.82 317.56 942.98 408.38 866.28 520.11 989.28 503.77
00005021 00000105 707.91 124.41 339.76 516.22 827.19 339.07 977.62 318.00 944.33 410.24 867.47 520.54 989.86 504.46
00005022 00000106 708.47 127.37 337.85 514.92 828.90 348.21 977.49 329.17 943.68 412.45 866.60 521.96 990.24 507.46
00005023 00000107 710.17 129.86 336.89 514.71 830.61 353.66 978.22 335.73 944.32 414.47 867.01 524.25 990.72 510.54
00005024 00000108 709.75 132.83 337.80 514.39 829.60 350.46 977.98 331.17 944.23 414.27 867.67 525.34 991.13 510.25
00005025 00000109 709.25 130.77 339.78 516.40 829.97 346.08 978.50 327.92 945.58 413.92 867.69 523.55 990.90 509.57
00005026 00000110 708.79 130.19 340.25 513.85 828.73 343.88 979.67 324.50 945.06 414.40 865.90 521.78 991.42 506.78
00005027 00000111 708.14 126.00 341.53 513.73 826.93 342.11 979.78 320.54 944.15 413.91 864.59 519.73 991.68 502.99
00005028 00000112 707.95 120.57 340.76 512.82 825.53 341.61 980.06 319.00 943.14 412.50 862.04 516.80 991.29 499.34
00005029 00000113 707.57 118.94 340.27 512.05 824.30 341.37 979.85 318.85 941.76 411.55 860.90 515.31 991.32 497.93
00005030 00000114 704.04 118.27 342.44 514.13 821.34 341.14 976.62 320.13 938.28 412.29 857.35 514.79 988.04 498.70
00005031 00000115 703.79 121.65 340.79 527.31 817.28 337.33 973.16 319.88 931.09 407.24 848.82 515.34 984.73 502.16
00005032 00000116 703.95 121.85 338.25 540.83 808.60 330.65 968.16 316.33 920.64 400.39 839.22 517.84 981.75 506.95
00005033 00000117 701.59 114.56 341.64 544.30 810.87 328.19 971.99 318.06 923.40 397.32 835.04 510.38 981.78 503.60
00005034 00000118 708.80 120.55 339.14 532.81 827.49 326.87 983.34 320.93 941.02 398.46 848.19 506.80 987.53 504.01
00005035 00000119 713.05 121.11 335.80 520.09 837.07 328.64 992.39 319.57 954.51 409.98 869.74 508.72 996.21 502.65
00005036 DELETE   721.39 119.38 331.94 514.46 840.34 337.36 990.29 320.12 956.16 413.36 879.94 513.07 999.46 500.53
CROP_BBOX: 537 0 1379 795
