Video ID: 	xWxT4CDFRd8
H: 	1080
W: 	1920
FPS: 	23.976023976023978

FRAME INDEX X0 Y0 W H [Landmarks (5 Points)]

00000715 00000000 362.62 49.92 361.61 508.54 485.56 230.51 656.32 261.82 583.46 285.16 485.41 403.84 627.96 431.07
00000716 00000001 376.01 51.39 357.59 507.39 496.55 224.48 667.47 258.19 595.41 280.69 496.49 406.54 634.51 435.65
00000717 00000002 385.44 48.20 360.59 521.68 504.33 226.81 674.41 254.34 602.12 285.28 502.16 411.98 644.12 436.78
00000718 DELETE   398.18 51.76 361.17 527.72 515.78 231.39 695.75 261.93 622.58 295.77 512.08 421.95 663.88 449.02
00000719 00000004 416.10 59.38 352.61 530.65 533.22 242.91 710.41 275.41 637.98 308.74 527.75 428.47 679.62 457.89
00000720 DELETE   422.38 49.98 358.38 543.08 546.38 244.01 726.61 291.03 653.62 320.50 539.42 430.36 688.55 469.76
00000721 00000006 432.27 62.02 358.98 536.30 561.14 252.30 737.51 297.98 663.04 331.78 550.20 438.82 692.49 478.11
00000722 00000007 442.86 72.07 357.52 532.19 570.48 257.99 750.84 307.30 675.65 337.83 556.95 442.19 707.15 484.88
00000723 00000008 451.22 88.82 358.85 520.30 579.82 258.80 754.25 302.97 682.45 339.72 568.28 450.90 704.96 488.85
00000724 00000009 452.02 86.02 361.42 531.59 580.72 262.93 757.21 305.33 684.68 343.92 569.48 459.67 707.74 495.59
00000725 00000010 449.76 83.37 364.11 539.52 578.46 267.70 757.08 311.75 681.04 353.20 562.97 465.64 704.50 502.59
00000726 00000011 441.66 90.23 365.31 541.88 576.86 272.86 747.68 319.95 675.76 362.82 558.22 469.65 690.98 509.11
00000727 00000012 431.01 92.63 371.82 552.52 574.72 278.11 740.28 327.67 670.25 376.47 544.44 473.88 676.44 515.76
00000728 DELETE   418.94 97.58 370.30 550.07 566.10 286.62 733.47 339.05 666.73 385.32 536.79 480.75 675.08 524.91
00000729 DELETE   407.23 95.53 369.73 558.59 557.04 298.19 723.54 347.77 659.45 398.06 531.63 492.62 668.71 534.64
00000730 DELETE   402.15 99.38 366.47 561.44 538.63 312.03 708.88 352.81 641.86 409.91 518.52 501.11 664.93 537.40
00000731 00000016 389.41 97.38 367.11 565.23 528.94 312.11 695.37 349.27 632.01 417.56 509.63 504.59 646.97 538.00
00000732 00000017 370.85 99.85 373.17 566.98 517.00 309.03 685.71 353.80 621.49 413.19 496.76 504.08 632.09 543.33
00000733 00000018 357.76 97.96 378.67 568.84 506.86 307.17 676.84 351.47 607.47 411.20 484.18 505.97 615.85 543.93
00000734 DELETE   342.89 91.96 375.79 575.70 489.40 306.32 660.22 352.27 591.73 409.68 468.39 505.32 604.34 543.24
00000735 00000020 339.27 100.59 368.09 566.14 469.64 312.12 646.04 350.23 574.48 412.34 453.26 506.63 602.20 540.66
00000736 DELETE   326.20 100.76 369.13 564.51 460.10 311.67 631.55 347.34 562.42 417.93 442.44 506.54 585.87 538.83
00000737 00000022 316.27 104.41 368.88 563.17 451.14 311.68 622.25 347.78 554.59 417.40 433.78 507.21 574.03 539.87
00000738 00000023 305.12 101.14 370.38 569.69 440.95 311.64 613.97 350.84 546.92 420.05 424.34 511.65 563.47 546.38
00000739 00000024 298.21 104.98 372.10 567.18 438.38 320.22 609.77 363.79 541.23 421.19 416.80 512.59 554.67 550.67
00000740 00000025 289.79 101.45 374.51 573.95 434.33 319.81 602.27 365.30 534.52 421.31 410.26 511.70 545.12 551.05
00000741 00000026 281.41 94.98 377.82 579.71 428.21 311.18 600.23 354.47 529.91 413.15 403.94 507.32 543.62 544.04
00000742 00000027 278.68 90.64 375.03 578.82 420.00 303.93 594.28 345.71 522.56 410.15 397.30 504.20 541.46 539.31
00000743 00000028 275.61 91.43 370.98 567.46 415.27 297.88 591.48 339.34 518.67 404.21 395.76 500.42 538.47 535.12
00000744 00000029 273.80 91.09 368.81 564.57 414.01 294.63 587.07 336.51 517.53 400.14 393.51 496.00 536.26 531.20
00000745 00000030 275.13 89.98 367.11 564.27 413.32 292.72 584.87 333.99 516.84 398.96 392.12 494.18 534.92 528.81
00000746 00000031 273.09 89.98 367.84 565.05 411.79 291.91 583.93 332.74 516.62 399.29 390.83 494.68 534.21 528.88
00000747 00000032 274.23 87.24 369.03 571.87 412.62 290.95 584.89 333.05 517.09 401.46 391.89 495.73 534.71 530.78
00000748 00000033 273.51 86.28 370.73 576.05 413.66 292.85 586.06 335.81 518.31 404.43 392.94 497.52 535.29 533.13
00000749 00000034 274.29 87.79 373.46 578.43 416.07 299.37 591.45 340.87 522.16 411.28 394.35 503.08 538.01 537.38
00000750 00000035 282.58 93.61 373.08 577.80 423.26 307.29 601.15 347.46 530.89 418.38 399.57 508.16 547.72 542.08
00000751 00000036 287.41 98.16 374.64 575.88 427.64 312.56 606.39 354.11 533.42 424.34 404.31 510.99 552.89 546.47
00000752 00000037 292.45 101.14 375.57 575.50 430.56 317.52 607.31 357.97 536.14 428.11 411.37 515.40 556.70 550.50
00000753 00000038 299.82 104.23 371.77 572.17 432.84 321.77 610.20 359.10 541.05 430.41 417.23 518.96 562.57 551.80
00000754 00000039 304.29 110.55 369.67 567.78 434.07 323.96 612.70 360.05 542.90 433.06 419.64 521.91 567.18 554.07
00000755 00000040 310.22 117.36 367.50 563.41 438.62 325.64 615.98 363.07 545.01 436.31 424.04 524.70 570.89 558.09
00000756 00000041 313.60 122.79 367.09 562.32 440.58 327.57 619.73 364.82 547.24 440.54 426.58 528.55 575.56 561.66
00000757 00000042 314.59 127.13 370.93 565.14 443.40 328.75 620.00 365.57 548.05 443.77 428.24 532.25 572.76 565.02
00000758 00000043 317.48 125.18 367.86 569.38 443.69 331.42 621.47 363.52 550.92 446.82 427.74 537.84 568.29 565.71
00000759 00000044 317.28 128.59 369.19 568.63 445.51 332.25 622.32 365.24 553.15 446.90 428.21 537.49 570.30 566.19
00000760 00000045 318.59 128.27 369.04 571.13 447.11 333.01 622.41 366.47 554.48 448.46 429.17 537.58 571.03 566.78
00000761 00000046 317.96 129.65 369.24 570.24 446.85 332.57 622.72 365.87 554.95 448.83 428.52 536.99 572.20 566.15
00000762 00000047 317.50 127.74 369.52 569.95 446.44 333.13 622.90 367.22 553.86 448.08 427.91 535.92 572.73 565.75
00000763 00000048 320.50 130.74 367.12 564.43 452.38 339.77 624.62 376.81 554.09 451.41 429.40 532.85 577.73 565.96
00000764 00000049 319.53 129.11 366.82 563.86 451.65 339.09 624.84 377.08 552.68 450.49 428.15 531.18 577.04 565.00
00000765 00000050 319.22 126.89 365.13 561.98 450.07 336.56 622.67 373.77 551.50 447.42 428.40 528.46 576.77 561.69
00000766 00000051 318.50 125.42 365.35 560.82 448.00 332.29 622.26 368.90 549.91 444.29 427.07 525.56 577.18 558.44
00000767 00000052 316.72 120.66 366.89 563.22 447.28 330.55 621.57 368.25 549.20 442.15 426.30 523.32 576.05 556.98
00000768 00000053 315.91 122.03 366.06 560.59 445.95 330.10 620.87 367.99 547.90 440.44 424.85 522.09 575.05 556.01
00000769 00000054 316.56 121.38 364.65 558.70 446.52 330.98 620.61 369.11 548.10 440.66 425.51 521.99 574.24 556.15
00000770 00000055 316.37 121.72 364.81 555.25 447.98 329.71 622.83 369.07 550.59 439.20 425.45 520.22 574.34 555.61
00000771 00000056 317.87 118.67 364.51 555.64 451.16 329.24 624.38 368.66 554.00 438.98 427.50 517.88 575.60 553.51
00000772 00000057 319.88 121.25 362.87 551.22 453.68 328.66 625.76 367.02 557.88 438.43 429.94 516.91 577.37 551.99
00000773 00000058 321.93 120.71 361.28 551.09 456.00 328.53 626.84 366.80 560.00 437.78 431.27 515.72 578.52 550.78
00000774 00000059 322.77 120.84 360.61 550.32 459.25 328.11 628.70 366.38 564.11 437.81 433.90 515.17 580.13 550.38
00000775 00000060 323.65 119.28 360.90 551.98 462.78 326.94 629.74 367.61 567.28 435.67 435.67 512.48 581.11 549.74
00000776 00000061 324.11 118.55 362.81 553.99 464.99 327.13 631.94 368.19 569.48 436.20 436.45 512.20 582.92 549.65
00000777 00000062 325.31 120.67 362.05 550.37 466.36 327.44 632.78 369.94 570.19 436.26 436.85 510.52 583.84 549.18
00000778 00000063 327.75 120.27 359.03 549.48 467.79 328.42 633.72 371.58 571.98 436.83 438.11 510.16 585.35 549.44
00000779 00000064 328.74 119.90 358.20 550.26 467.32 329.46 633.66 371.68 572.24 436.60 439.08 512.44 585.38 550.86
00000780 00000065 328.80 119.39 357.91 550.91 467.07 329.19 632.95 370.04 572.59 436.14 439.13 512.50 585.38 549.89
00000781 00000066 326.40 116.75 360.57 557.04 464.63 327.62 631.28 366.63 569.99 434.45 438.25 513.43 584.93 549.06
00000782 00000067 323.84 114.66 361.44 564.17 465.32 325.13 629.90 365.30 571.56 432.70 436.70 513.42 582.59 550.00
00000783 00000068 321.68 114.31 361.93 568.67 464.60 322.36 628.14 362.31 571.77 430.74 435.70 512.31 581.90 548.66
00000784 00000069 322.92 114.76 359.60 565.72 465.47 323.10 627.16 363.65 571.45 430.91 435.68 510.59 580.85 547.59
00000785 00000070 322.32 115.65 359.55 555.22 464.19 322.16 627.12 363.80 568.97 429.78 434.63 506.28 580.02 544.38
00000786 00000071 321.36 113.98 359.53 554.28 463.35 321.87 627.07 363.51 569.27 428.81 435.53 505.79 580.68 543.89
00000787 00000072 321.31 113.28 359.23 554.46 462.97 321.67 626.33 363.28 568.91 428.98 435.22 505.82 579.63 543.90
00000788 00000073 320.09 113.15 360.52 555.77 462.70 321.16 624.62 362.69 567.05 428.10 432.65 504.37 577.07 542.45
00000789 00000074 320.41 113.21 359.74 557.88 463.48 320.40 623.76 362.21 566.75 428.94 431.34 503.51 576.00 541.74
00000790 00000075 319.08 113.70 361.73 558.15 464.12 319.53 624.59 362.57 567.39 429.06 430.76 502.89 575.45 542.19
00000791 00000076 321.59 112.67 359.57 561.91 464.97 319.81 625.11 361.43 568.70 428.03 432.11 504.08 577.29 542.10
00000792 00000077 321.21 109.22 360.94 563.66 463.45 320.25 625.38 359.85 569.64 425.92 435.66 506.59 579.28 542.83
00000793 00000078 321.25 108.65 359.67 564.16 463.18 319.44 625.01 358.58 570.34 425.25 437.68 506.86 580.36 542.46
00000794 00000079 320.73 106.12 359.73 567.10 461.03 318.10 623.79 355.54 568.68 424.05 437.65 506.94 580.20 540.99
00000795 00000080 321.63 105.14 359.32 568.29 461.42 317.67 624.13 354.99 568.25 424.02 437.87 506.96 580.01 540.86
00000796 00000081 321.59 106.85 360.63 565.08 460.98 318.43 625.22 355.73 567.95 423.60 438.01 506.97 581.45 540.95
00000797 00000082 322.38 106.95 360.34 563.10 461.33 319.29 625.71 356.33 569.06 424.50 439.42 508.22 581.31 542.02
00000798 00000083 323.26 109.57 360.30 558.84 463.01 320.90 627.88 360.70 570.38 425.26 440.09 507.18 583.39 543.26
00000799 00000084 323.54 109.95 360.72 557.07 463.33 321.87 628.74 362.06 570.89 426.13 440.88 506.98 585.04 543.42
00000800 00000085 323.85 108.92 361.29 555.70 463.62 321.41 629.36 362.79 570.33 426.82 440.46 506.35 583.58 543.86
00000801 00000086 324.50 108.13 361.20 554.69 463.30 321.43 629.92 362.91 569.56 426.68 440.92 505.86 584.51 543.39
00000802 00000087 325.03 108.30 361.02 554.05 464.06 321.72 630.65 363.65 570.72 426.85 441.79 505.61 585.87 543.55
00000803 00000088 326.20 108.97 359.59 553.19 464.66 322.05 630.87 364.23 571.11 426.86 441.98 505.25 586.28 543.42
00000804 00000089 327.22 108.78 359.15 553.94 465.37 322.32 632.00 364.68 572.54 426.76 442.79 506.20 587.26 544.49
00000805 00000090 328.93 109.84 357.94 557.77 467.02 323.75 631.15 364.44 574.33 427.38 444.68 508.98 587.04 545.85
00000806 00000091 328.04 110.63 359.50 560.66 467.12 326.16 629.98 366.27 574.39 429.09 447.02 514.37 584.94 550.47
00000807 00000092 329.10 116.59 358.09 556.41 466.92 331.78 630.04 367.44 573.14 433.11 448.92 520.90 583.07 553.30
00000808 00000093 330.45 117.78 357.09 556.55 465.84 333.78 629.50 368.07 571.17 434.72 447.60 522.91 582.38 554.11
00000809 00000094 328.38 117.44 357.25 555.17 464.61 329.47 629.19 365.03 571.91 430.14 446.70 519.60 582.07 551.98
00000810 00000095 327.58 106.56 358.13 561.13 460.10 320.00 631.01 354.25 569.09 421.36 443.24 511.06 588.66 542.45
00000811 00000096 322.95 96.46 362.33 562.59 456.90 306.04 630.15 340.51 567.79 405.32 440.57 498.42 587.35 529.76
00000812 00000097 319.11 96.29 364.95 560.59 456.40 299.60 630.67 333.85 569.01 393.78 437.66 491.51 587.64 522.80
00000813 00000098 320.33 97.21 365.08 571.16 457.30 298.71 629.11 332.34 567.92 396.05 436.12 496.82 582.63 527.80
00000814 00000099 322.91 98.88 367.07 585.37 459.18 301.38 629.12 339.12 566.04 401.21 430.85 500.03 582.65 534.34
00000815 00000100 332.47 99.12 362.62 578.94 460.38 306.14 631.85 340.91 566.47 407.93 438.27 500.57 592.08 532.12
00000816 00000101 334.96 101.82 362.19 569.37 460.61 308.61 636.54 344.21 567.97 406.95 442.12 501.61 598.40 533.78
00000817 00000102 334.08 103.61 363.36 565.39 459.40 309.49 636.96 343.00 568.00 404.72 444.02 502.54 599.87 532.84
00000818 00000103 336.70 102.15 362.25 566.34 461.06 310.51 640.13 344.80 570.74 403.67 447.40 504.31 603.30 535.04
00000819 00000104 340.84 106.52 362.08 568.22 466.07 317.03 642.04 350.38 573.45 410.62 451.85 509.25 606.10 539.19
00000820 00000105 345.28 109.54 361.50 570.58 470.80 323.43 647.82 357.85 578.91 416.52 456.98 514.92 612.34 545.65
00000821 00000106 339.26 94.77 371.38 586.26 477.70 315.89 655.40 359.79 588.80 420.21 461.96 514.69 609.07 550.50
00000822 00000107 344.53 92.16 370.42 584.62 486.14 314.01 660.28 357.84 595.97 414.59 472.07 514.25 610.13 550.21
00000823 00000108 344.36 94.90 374.91 578.18 493.99 312.18 663.86 358.19 602.16 412.23 476.82 511.84 608.25 549.95
00000824 00000109 347.43 97.37 376.06 578.32 499.70 314.16 668.52 362.60 610.00 417.57 480.33 513.24 612.41 553.83
00000825 00000110 354.84 102.58 378.32 577.59 511.13 314.44 674.46 362.50 624.09 423.49 490.33 515.21 618.42 556.63
00000826 00000111 369.86 106.70 367.11 570.17 518.01 319.49 680.38 363.47 631.60 429.93 498.31 517.15 626.68 555.99
00000827 00000112 365.79 104.62 367.73 572.74 513.52 322.81 677.54 363.68 626.38 431.64 494.92 519.45 624.57 555.39
00000828 00000113 350.04 102.89 371.37 578.69 500.44 321.59 667.82 364.67 613.48 432.92 481.74 523.60 612.44 560.63
00000829 00000114 340.18 98.88 372.69 589.09 488.73 316.96 658.13 358.41 601.56 429.70 470.56 524.86 603.71 559.86
00000830 00000115 334.53 94.97 374.33 583.36 482.64 310.96 653.76 358.71 592.88 420.12 459.62 514.04 597.70 553.39
00000831 00000116 337.63 100.52 364.57 573.08 469.92 313.43 646.62 353.71 582.68 410.54 452.97 508.31 605.04 543.96
00000832 00000117 331.44 103.06 363.70 569.83 464.81 309.80 637.38 346.07 573.61 411.20 448.85 507.76 593.46 540.25
00000833 00000118 328.61 100.35 362.40 572.62 460.30 313.91 628.67 345.61 566.76 422.91 446.74 515.97 582.68 544.78
CROP_BBOX: 87 0 999 830
