Video ID: 	tThJIOTpmP8
H: 	1080
W: 	1920
FPS: 	25.0

FRAME INDEX X0 Y0 W H [Landmarks (5 Points)]

00002765 00000000 828.20 156.30 383.81 574.00 998.78 401.81 1148.65 408.01 1104.17 518.41 1010.50 598.66 1121.72 604.84
00002766 00000001 828.19 152.50 385.20 576.38 993.58 406.86 1148.43 413.30 1098.77 520.35 1003.37 597.28 1123.85 603.55
00002767 00000002 826.25 154.70 385.08 576.01 990.46 407.31 1145.31 412.87 1096.29 524.75 998.79 598.56 1122.10 604.26
00002768 00000003 826.07 153.82 385.42 580.21 991.61 406.62 1145.70 412.57 1096.23 527.14 1000.27 602.43 1119.56 608.44
00002769 00000004 826.53 154.48 385.79 577.50 991.60 407.71 1146.51 412.03 1097.38 527.02 1000.67 601.68 1121.64 606.41
00002770 00000005 827.41 152.05 384.94 579.18 991.43 408.46 1146.62 413.24 1096.87 525.54 1000.44 600.25 1122.38 605.27
00002771 00000006 826.09 152.57 386.36 580.06 991.17 407.54 1145.98 412.84 1096.75 526.28 999.83 600.59 1122.11 606.00
00002772 00000007 826.03 148.85 386.78 588.34 993.82 407.69 1147.36 415.69 1098.17 527.37 1002.29 606.32 1119.62 613.66
00002773 00000008 826.23 148.12 385.49 592.82 997.64 407.21 1147.53 416.05 1101.55 529.46 1007.95 611.40 1118.27 619.13
00002774 DELETE   824.17 160.44 388.51 584.91 994.83 412.98 1147.91 421.03 1099.80 532.38 1005.57 611.60 1122.35 618.80
00002775 DELETE   823.82 166.66 389.81 589.40 990.42 424.42 1147.60 432.21 1098.62 541.50 1000.77 617.19 1125.66 623.88
00002776 DELETE   827.31 174.73 386.00 594.79 985.15 445.25 1145.69 451.85 1092.55 560.34 994.03 633.96 1121.76 639.76
00002777 00000012 829.18 176.17 385.66 599.90 982.68 458.01 1143.10 464.84 1086.36 567.26 992.78 643.31 1115.46 649.43
00002778 DELETE   829.89 168.37 385.25 604.39 980.98 450.62 1139.55 461.12 1082.49 560.61 988.87 637.58 1114.00 646.78
00002779 DELETE   827.22 163.66 386.43 602.13 982.97 432.75 1137.76 449.18 1080.28 547.24 989.10 626.24 1108.47 640.60
00002780 00000015 825.47 163.37 387.88 602.20 985.63 418.29 1138.04 437.95 1082.10 537.38 991.27 620.71 1106.71 637.94
00002781 00000016 824.49 163.35 390.39 598.85 981.30 418.26 1139.99 434.49 1082.53 538.29 984.94 613.32 1114.46 627.11
00002782 00000017 823.18 177.13 394.27 585.97 981.66 425.79 1142.34 439.87 1082.45 545.90 981.77 614.93 1115.12 627.44
00002783 00000018 825.01 180.22 396.86 586.25 984.19 430.58 1145.72 444.81 1085.06 550.03 981.76 614.48 1117.69 626.86
00002784 00000019 824.63 180.51 397.77 583.63 985.85 426.87 1145.80 439.07 1087.19 548.55 981.35 608.77 1119.13 619.92
00002785 00000020 826.21 169.13 396.94 588.44 990.47 419.18 1147.58 431.65 1088.98 540.75 981.96 604.47 1118.80 615.68
00002786 00000021 828.15 163.56 397.53 590.14 994.23 417.35 1150.71 430.82 1091.81 540.15 986.81 604.45 1119.08 616.19
00002787 00000022 830.31 193.66 395.84 566.77 1001.50 421.50 1154.13 441.63 1093.81 548.95 992.77 611.68 1114.10 629.50
00002788 00000023 831.18 193.90 395.05 573.70 1004.14 422.69 1158.11 445.70 1097.74 549.62 998.55 618.57 1115.79 638.53
00002789 00000024 833.20 193.09 395.45 572.94 1005.11 419.07 1156.85 440.45 1097.23 546.97 997.74 614.81 1115.98 633.43
00002790 00000025 831.16 184.43 397.20 572.64 1001.31 416.98 1157.17 433.83 1096.76 544.09 996.11 609.28 1119.19 623.95
00002791 00000026 831.51 169.99 399.39 578.35 1001.19 413.97 1155.88 429.38 1095.52 540.49 996.25 603.57 1119.16 616.87
00002792 00000027 833.40 174.20 399.77 571.68 1001.14 413.58 1158.13 428.34 1094.63 540.31 995.19 601.38 1120.67 614.60
00002793 00000028 835.59 180.40 398.30 565.43 1002.33 415.47 1159.39 430.90 1095.05 542.30 994.69 601.17 1120.79 615.09
00002794 00000029 836.87 182.36 396.66 560.32 1003.27 416.95 1160.38 430.91 1095.83 540.51 997.56 604.64 1118.93 617.53
00002795 00000030 836.39 181.07 399.63 561.55 1001.60 415.43 1161.11 429.41 1094.94 539.24 1000.41 607.78 1119.37 620.62
00002796 00000031 836.93 179.52 397.72 562.96 1000.80 412.97 1162.19 427.25 1094.55 537.07 1001.50 610.63 1118.24 623.77
00002797 00000032 835.60 180.94 398.63 563.89 999.73 415.15 1160.89 432.03 1093.02 538.12 997.04 608.90 1117.46 624.12
00002798 00000033 833.54 174.56 399.54 571.45 996.99 415.53 1158.19 432.76 1091.05 538.12 992.36 606.11 1117.78 621.25
00002799 00000034 831.12 173.70 402.28 571.89 995.92 414.36 1157.51 433.56 1089.60 537.67 990.29 606.09 1115.24 622.83
00002800 00000035 830.75 177.72 399.24 567.47 994.07 415.58 1155.39 433.86 1088.56 537.65 989.14 606.90 1112.62 623.23
00002801 00000036 831.07 177.90 397.51 563.21 991.89 415.70 1153.43 432.16 1087.10 536.89 988.03 605.57 1111.50 620.68
00002802 00000037 829.81 168.69 397.73 570.73 989.81 414.78 1151.49 431.09 1085.73 534.34 986.00 603.32 1111.77 617.88
00002803 00000038 828.65 172.33 396.35 567.71 988.08 413.81 1150.10 430.50 1083.35 534.92 984.57 603.25 1110.54 618.18
00002804 00000039 826.93 171.14 396.50 570.15 986.42 415.22 1150.48 429.98 1084.92 535.65 984.05 605.24 1112.35 618.59
00002805 00000040 827.07 167.20 393.83 575.11 984.33 421.89 1149.22 437.50 1083.48 537.14 981.19 605.94 1112.87 619.69
00002806 00000041 825.31 169.92 391.78 573.16 982.76 422.24 1149.36 438.37 1083.00 537.51 979.59 607.48 1110.57 621.77
00002807 00000042 825.17 179.98 390.12 563.93 981.12 421.43 1147.97 438.05 1081.00 535.90 980.78 608.64 1109.87 623.76
00002808 00000043 826.25 156.87 387.20 583.72 977.84 420.20 1141.64 435.06 1077.34 529.76 978.16 605.01 1108.33 618.04
00002809 00000044 827.05 145.27 386.01 594.34 976.24 414.76 1136.35 429.12 1073.58 525.16 976.63 602.11 1106.34 614.28
00002810 00000045 824.54 156.98 386.54 579.89 973.85 406.83 1136.19 420.03 1073.08 524.13 975.12 596.65 1109.41 608.43
00002811 00000046 825.79 142.13 389.11 590.04 973.28 410.06 1139.78 421.27 1070.57 522.11 972.24 586.18 1111.45 596.02
00002812 00000047 825.12 138.45 389.95 595.88 972.76 406.00 1139.05 418.02 1069.85 518.52 972.81 584.41 1112.11 594.83
00002813 00000048 824.42 136.72 388.68 596.81 972.65 405.47 1136.51 416.64 1069.46 518.51 973.33 584.03 1109.48 594.08
00002814 00000049 822.46 138.43 386.83 594.89 970.22 399.90 1132.36 413.71 1071.23 515.22 972.41 588.16 1110.01 600.22
00002815 00000050 826.69 145.88 382.52 586.20 971.89 399.90 1136.07 410.58 1072.48 514.51 976.52 589.08 1117.99 598.21
00002816 00000051 826.70 142.41 382.57 586.52 971.78 398.32 1136.55 407.22 1075.86 509.02 978.48 586.03 1121.74 593.70
00002817 00000052 824.21 127.80 383.68 597.62 970.51 396.87 1134.39 401.06 1078.96 504.88 982.85 585.30 1124.71 588.94
00002818 00000053 822.93 128.60 384.16 598.54 973.43 397.42 1136.12 399.85 1082.73 505.13 989.24 588.93 1127.54 590.73
00002819 DELETE   823.54 136.31 381.88 591.90 971.69 402.26 1137.16 404.58 1083.22 513.25 989.56 597.60 1125.23 599.25
00002820 DELETE   820.63 143.53 382.71 589.15 970.06 413.13 1133.89 416.10 1082.46 522.80 992.15 608.82 1122.18 610.81
00002821 00000056 820.83 151.98 381.46 581.79 968.89 417.05 1134.35 418.92 1081.21 528.79 988.96 609.94 1121.78 611.54
00002822 DELETE   819.37 154.39 381.73 578.08 967.23 415.82 1132.39 416.56 1079.88 528.10 986.01 607.89 1120.16 608.68
00002823 00000058 817.74 150.25 385.69 578.11 964.66 407.39 1135.26 409.73 1077.23 521.26 982.92 600.96 1121.36 602.39
00002824 00000059 821.25 148.69 382.33 576.51 968.44 396.91 1138.48 398.71 1081.15 510.46 985.46 593.39 1124.82 594.65
00002825 00000060 827.34 139.97 379.74 583.43 971.95 395.11 1137.18 400.55 1079.51 504.57 988.88 592.67 1122.41 596.97
00002826 00000061 828.55 142.09 381.32 580.84 974.16 394.61 1140.41 402.77 1080.10 507.10 989.42 592.12 1123.07 598.65
00002827 00000062 830.03 131.12 380.90 599.47 979.94 396.30 1140.30 408.66 1079.34 508.34 989.45 586.55 1119.27 598.62
00002828 00000063 825.61 146.84 385.93 585.16 980.29 392.24 1137.99 407.57 1077.88 507.58 988.85 592.67 1108.12 605.95
00002829 00000064 826.14 151.99 385.38 578.53 981.53 391.06 1138.73 406.90 1077.98 505.09 989.57 590.66 1108.01 604.51
00002830 00000065 832.46 143.55 382.96 583.13 983.82 390.61 1148.46 406.38 1084.06 505.43 987.20 584.11 1120.89 599.16
00002831 00000066 835.08 164.11 378.22 555.13 979.14 391.07 1148.72 401.54 1084.03 504.55 989.72 587.69 1127.01 596.45
00002832 00000067 833.44 144.66 383.36 574.02 987.57 389.08 1151.37 404.51 1089.21 500.56 989.85 577.16 1123.85 592.22
00002833 00000068 827.77 140.84 394.29 567.16 988.02 385.99 1152.54 399.43 1087.30 496.12 993.31 573.30 1117.32 585.16
00002834 00000069 830.47 153.85 389.63 562.76 990.01 380.51 1150.31 398.73 1087.45 490.42 992.30 574.68 1114.60 590.06
00002835 00000070 832.13 140.95 398.06 585.32 995.33 372.61 1153.62 397.10 1088.27 487.28 989.73 569.58 1113.62 589.16
00002836 00000071 836.88 144.23 402.30 579.52 999.18 364.02 1161.55 393.18 1089.00 483.01 988.23 563.97 1112.45 587.50
00002837 00000072 840.60 124.14 407.95 584.72 1000.79 361.65 1164.26 391.56 1089.90 478.07 988.44 551.96 1121.62 577.23
00002838 00000073 845.81 124.34 405.00 575.30 1003.69 357.02 1165.75 384.64 1091.12 472.18 991.32 546.07 1123.66 569.68
00002839 00000074 852.19 125.14 404.43 572.23 1009.03 354.34 1170.86 382.31 1095.37 470.31 998.15 547.29 1126.33 571.16
00002840 00000075 864.37 117.00 405.23 587.85 1016.44 351.93 1180.45 386.42 1101.48 469.62 999.74 547.36 1129.87 577.76
00002841 00000076 868.44 126.03 404.07 582.29 1023.24 351.04 1189.04 388.35 1109.98 472.95 1003.87 546.77 1139.30 579.27
00002842 00000077 875.27 124.72 406.80 577.75 1027.07 352.51 1197.61 388.31 1114.06 473.06 1006.47 545.47 1147.19 576.78
00002843 00000078 881.21 123.33 409.18 580.78 1034.65 351.92 1201.86 388.93 1117.14 474.76 1012.13 544.37 1150.18 576.54
00002844 00000079 885.68 117.73 408.45 592.46 1041.98 354.06 1205.22 391.23 1122.89 474.83 1018.66 547.11 1151.28 579.51
00002845 00000080 892.05 113.48 407.15 595.77 1048.49 355.46 1211.55 397.55 1127.38 475.62 1021.24 544.43 1155.96 580.44
00002846 00000081 894.65 120.55 409.63 582.32 1053.62 359.21 1219.27 402.10 1134.01 481.01 1025.63 543.62 1161.83 580.66
00002847 00000082 898.55 119.16 407.52 579.92 1059.95 362.83 1224.74 406.30 1141.37 484.26 1035.24 543.74 1168.69 581.17
00002848 00000083 905.97 119.75 404.05 579.58 1066.47 366.28 1228.65 409.54 1147.19 485.85 1043.99 544.24 1176.14 581.13
00002849 00000084 906.89 125.86 408.34 578.27 1073.64 370.34 1236.59 414.49 1154.60 492.03 1047.18 549.11 1179.25 586.70
00002850 00000085 918.78 125.63 402.94 598.77 1076.11 378.95 1238.89 416.09 1161.44 497.41 1050.28 562.35 1183.05 595.58
00002851 00000086 917.10 127.81 405.49 600.95 1076.53 379.99 1240.54 417.02 1164.05 497.91 1051.04 564.57 1185.84 597.85
00002852 00000087 917.12 126.96 405.24 600.77 1076.44 380.47 1237.74 418.26 1161.19 497.02 1050.01 565.11 1180.56 599.08
00002853 00000088 914.14 125.68 403.97 602.08 1074.08 379.36 1236.29 417.75 1159.75 495.90 1047.01 562.27 1182.54 596.37
00002854 00000089 913.47 125.89 404.19 599.70 1070.69 381.92 1235.00 418.15 1156.62 496.69 1043.60 561.61 1182.73 593.81
00002855 00000090 914.64 124.28 403.60 601.86 1070.24 382.71 1234.79 419.10 1155.91 497.67 1042.79 562.80 1181.60 595.13
00002856 00000091 914.47 124.92 403.59 598.08 1070.44 382.31 1234.58 418.12 1155.56 497.22 1042.46 561.12 1180.55 593.00
00002857 00000092 905.21 131.27 406.60 575.23 1071.10 378.30 1231.94 419.46 1151.30 495.74 1043.81 551.82 1176.06 587.05
00002858 00000093 904.24 125.68 401.14 573.89 1063.91 375.54 1225.37 414.93 1143.26 490.33 1040.24 548.61 1172.10 582.28
00002859 00000094 899.91 125.43 406.79 577.12 1056.73 372.66 1221.73 411.03 1136.51 491.45 1031.64 548.15 1167.55 581.45
00002860 00000095 896.19 123.18 406.70 581.52 1054.16 369.30 1218.35 410.10 1132.28 491.49 1026.77 548.04 1161.19 583.47
00002861 00000096 893.65 119.70 406.11 585.19 1050.35 367.01 1215.82 410.39 1128.32 489.73 1023.19 546.85 1157.75 584.32
00002862 00000097 893.79 118.54 402.81 583.62 1047.72 365.23 1210.52 405.68 1125.08 486.53 1021.09 545.92 1153.58 580.94
00002863 00000098 890.52 115.07 403.78 591.05 1046.28 359.94 1208.05 401.92 1124.53 481.80 1018.65 545.54 1150.64 581.94
00002864 00000099 890.57 115.41 401.62 588.46 1043.57 358.23 1205.19 399.42 1121.96 480.17 1017.25 544.14 1150.35 579.77
00002865 00000100 888.11 112.95 402.87 583.96 1040.71 356.59 1205.19 396.53 1121.23 478.08 1014.65 542.29 1149.10 577.09
00002866 00000101 882.56 113.47 404.85 578.12 1037.14 353.18 1203.70 390.80 1120.49 476.01 1012.72 540.22 1149.04 573.28
00002867 00000102 878.69 108.40 404.78 578.25 1037.37 350.32 1200.04 387.31 1120.64 470.54 1016.48 538.88 1145.29 571.29
00002868 00000103 878.16 108.70 404.26 578.97 1036.75 350.55 1198.44 387.34 1119.62 470.01 1016.58 538.84 1143.13 571.17
00002869 00000104 878.44 108.01 403.37 587.85 1036.68 350.68 1197.80 388.17 1120.04 471.21 1015.85 543.35 1143.58 576.25
00002870 00000105 879.59 109.24 398.67 592.67 1035.99 353.21 1194.84 390.35 1119.99 473.05 1016.45 546.29 1143.28 578.78
00002871 00000106 877.59 112.04 399.93 588.10 1034.35 355.75 1199.90 388.66 1124.96 476.69 1014.87 545.06 1150.54 574.20
00002872 00000107 879.16 113.09 398.54 583.79 1035.18 360.45 1201.11 391.07 1126.27 480.72 1016.51 542.99 1155.17 570.25
00002873 00000108 879.33 113.59 398.50 582.68 1039.81 360.18 1200.80 394.21 1126.61 481.61 1021.92 546.90 1148.93 577.12
00002874 00000109 877.72 117.26 398.64 584.86 1040.89 361.71 1200.11 397.68 1126.55 484.45 1023.46 551.67 1144.87 583.64
00002875 00000110 879.13 121.28 397.58 586.59 1043.34 367.36 1200.40 403.39 1128.69 490.66 1025.47 558.34 1143.25 590.64
00002876 00000111 880.38 124.05 397.81 586.50 1042.26 377.29 1202.67 409.28 1130.05 497.11 1025.61 562.79 1147.64 591.58
00002877 00000112 880.23 133.14 401.60 578.43 1040.69 384.11 1203.20 410.29 1130.23 502.51 1027.33 567.23 1151.34 591.61
00002878 00000113 882.86 134.35 401.17 587.24 1043.06 394.26 1205.14 421.17 1130.11 510.87 1023.79 571.95 1152.98 596.70
00002879 00000114 882.46 140.14 401.28 592.93 1044.59 404.35 1207.79 427.54 1130.94 523.59 1023.20 578.75 1156.37 600.32
00002880 00000115 884.18 145.77 401.41 602.70 1044.90 414.33 1208.37 438.14 1130.58 536.82 1022.72 588.27 1162.06 609.58
00002881 00000116 887.57 161.82 398.00 589.81 1045.58 420.49 1211.56 444.48 1137.87 539.43 1022.79 596.16 1167.90 616.89
00002882 00000117 889.58 166.52 396.06 588.55 1045.73 429.36 1211.86 452.62 1137.88 548.47 1021.21 598.30 1169.74 619.14
00002883 00000118 889.30 168.09 394.10 587.02 1043.72 432.57 1210.02 456.87 1134.47 551.21 1019.85 598.79 1168.53 620.31
00002884 00000119 889.00 168.32 393.33 580.84 1042.73 430.77 1209.30 454.26 1132.79 550.22 1018.29 597.55 1166.29 618.55
00002885 00000120 885.44 167.57 398.11 580.87 1040.21 427.79 1209.77 450.03 1131.77 548.69 1015.05 595.39 1166.73 615.69
00002886 00000121 885.63 160.71 398.59 587.16 1039.69 424.15 1209.43 448.33 1131.42 545.56 1013.71 596.06 1163.66 617.63
00002887 00000122 884.91 155.08 398.01 599.95 1039.90 422.59 1205.39 450.49 1129.62 543.99 1014.26 601.70 1155.49 626.28
00002888 00000123 884.25 152.55 399.32 608.49 1038.48 420.32 1201.08 450.07 1125.44 542.33 1012.92 605.40 1148.90 631.47
00002889 00000124 882.31 146.76 400.38 612.73 1036.13 417.18 1198.28 445.20 1124.99 536.61 1013.05 604.79 1148.59 629.22
00002890 00000125 876.10 147.85 401.21 608.70 1035.40 412.01 1193.94 439.73 1124.49 531.39 1011.65 599.67 1146.27 623.98
00002891 00000126 873.89 150.51 400.92 596.95 1028.05 411.53 1189.11 435.71 1113.71 526.10 1009.31 588.86 1141.77 612.39
00002892 00000127 872.99 142.02 399.14 603.44 1023.93 404.76 1188.04 429.91 1112.41 518.24 1006.72 582.84 1142.75 606.88
00002893 00000128 868.58 140.62 402.70 599.54 1021.13 398.69 1187.74 424.51 1111.75 511.19 1003.65 577.89 1141.61 602.59
00002894 00000129 866.41 134.63 402.80 601.35 1017.17 393.30 1184.39 419.48 1108.49 504.91 998.68 573.23 1137.72 597.96
00002895 00000130 855.94 136.27 402.95 586.53 1015.44 385.89 1176.67 412.08 1110.84 499.12 1001.82 569.53 1139.65 591.64
00002896 00000131 861.49 127.89 396.23 595.31 1012.27 377.88 1177.68 405.62 1106.15 490.48 998.51 561.55 1135.57 586.93
00002897 00000132 855.85 120.02 399.22 600.13 1010.02 368.96 1173.73 396.30 1104.29 482.27 996.10 555.43 1134.64 580.13
00002898 00000133 852.59 121.01 399.88 596.06 1008.76 362.94 1171.91 391.63 1102.30 475.85 996.78 551.57 1134.01 577.11
00002899 00000134 852.24 115.13 398.00 596.80 1008.34 359.04 1170.73 387.93 1101.75 471.91 996.77 548.61 1133.03 574.08
00002900 00000135 850.46 114.09 395.15 598.42 1009.08 358.02 1168.36 386.80 1103.60 470.03 999.04 547.67 1132.71 573.14
00002901 00000136 850.27 114.10 393.19 597.98 1010.42 357.47 1167.99 384.71 1107.03 469.15 1002.39 548.86 1133.47 573.17
00002902 00000137 845.22 115.98 393.00 591.20 1011.21 359.17 1170.75 380.36 1116.37 468.28 1007.62 548.48 1143.72 567.87
00002903 00000138 839.38 119.71 391.29 584.98 1009.19 365.25 1167.43 374.80 1118.32 473.44 1014.47 552.07 1149.30 558.83
00002904 00000139 851.19 114.95 386.63 597.91 1016.99 368.34 1176.97 381.19 1130.68 474.31 1022.72 555.71 1160.87 567.61
00002905 00000140 845.46 122.67 391.23 595.56 1017.05 369.33 1169.37 376.34 1128.34 479.21 1031.48 569.94 1149.90 574.66
00002906 00000141 844.02 127.37 389.02 588.13 1013.89 372.64 1165.71 379.31 1121.26 481.09 1029.31 570.41 1145.02 574.79
00002907 00000142 843.51 121.83 386.37 582.49 1014.33 377.90 1166.66 384.43 1119.48 484.08 1024.19 565.39 1146.12 569.96
00002908 DELETE   855.07 116.42 384.13 593.64 1018.96 377.64 1174.68 389.25 1127.98 481.88 1026.80 560.22 1154.71 571.44
00002909 00000144 856.80 130.30 389.95 579.13 1024.83 372.72 1176.76 378.32 1132.73 483.78 1040.22 568.12 1158.41 571.05
00002910 DELETE   865.26 129.89 389.26 578.79 1035.25 376.04 1190.68 384.98 1147.30 488.01 1044.38 567.39 1171.74 573.88
00002911 DELETE   873.69 136.82 384.66 570.86 1035.43 380.03 1195.88 389.65 1148.91 490.91 1042.90 569.48 1176.48 576.91
00002912 DELETE   875.10 133.75 386.13 580.78 1037.33 381.01 1195.61 395.11 1146.92 491.18 1039.79 571.72 1170.97 583.15
CROP_BBOX: 567 0 1566 954
