Video ID: 	h_WzS50B9jw
H: 	2160
W: 	3840
FPS: 	29.97002997002997

FRAME INDEX X0 Y0 W H [Landmarks (5 Points)]

00012797 00000000 1683.39 156.08 419.99 630.56 1810.28 396.53 1982.90 387.16 1907.99 490.41 1832.82 620.83 1974.29 611.67
00012798 00000001 1679.79 148.32 423.16 630.52 1805.55 390.87 1983.53 380.96 1904.11 478.89 1829.16 613.48 1975.41 604.16
00012799 00000002 1678.09 148.18 423.14 627.55 1802.95 391.29 1980.05 380.88 1900.52 478.35 1827.83 611.84 1972.60 602.19
00012800 00000003 1677.36 150.63 422.51 625.94 1801.73 394.61 1977.92 382.98 1898.91 483.52 1826.82 614.80 1971.93 604.31
00012801 00000004 1678.76 157.93 420.03 618.83 1804.66 400.12 1977.07 389.12 1900.35 491.75 1828.82 618.22 1969.45 608.28
00012802 00000005 1681.94 166.83 416.28 612.76 1806.32 405.95 1976.46 393.70 1900.64 501.81 1828.11 619.71 1970.76 608.62
00012803 00000006 1685.31 173.24 415.45 606.77 1807.38 411.50 1978.15 399.39 1901.88 509.73 1829.13 623.92 1972.91 612.79
00012804 00000007 1687.08 175.67 416.83 607.46 1810.76 412.44 1982.83 402.60 1906.41 514.32 1832.57 627.70 1975.62 617.86
00012805 00000008 1689.02 177.14 418.95 609.22 1815.98 413.55 1986.65 406.47 1911.89 514.14 1839.50 632.87 1976.03 624.70
00012806 00000009 1694.28 178.78 416.46 611.48 1820.11 414.77 1994.03 408.77 1917.96 518.67 1841.77 634.34 1984.10 627.05
00012807 00000010 1702.33 179.35 414.57 608.89 1824.77 416.32 2000.85 411.11 1922.26 524.40 1845.04 634.34 1992.12 628.19
00012808 DELETE   1708.83 181.25 412.14 607.55 1833.10 416.07 2011.56 413.91 1934.34 526.67 1848.09 630.71 2002.72 627.90
00012809 00000012 1712.25 185.22 417.07 604.95 1839.56 415.43 2020.42 415.14 1940.91 529.29 1852.62 633.18 2007.27 632.09
00012810 DELETE   1717.78 191.03 416.16 603.21 1850.56 418.46 2027.91 417.42 1950.49 532.66 1859.96 635.11 2014.57 633.61
00012811 DELETE   1723.97 193.73 415.79 602.55 1857.67 420.36 2033.92 421.42 1957.11 534.48 1863.14 634.64 2019.23 635.19
00012812 00000015 1727.94 196.49 415.92 602.20 1860.64 425.12 2036.57 425.97 1960.81 539.91 1864.30 635.88 2022.22 637.00
00012813 00000016 1728.51 192.68 413.99 618.91 1861.82 428.68 2038.11 430.04 1960.05 547.26 1863.78 640.26 2019.54 643.19
00012814 00000017 1730.35 195.32 413.55 620.64 1864.72 431.42 2038.97 433.25 1961.98 553.35 1866.66 644.93 2020.07 648.12
00012815 00000018 1732.93 198.78 411.55 624.46 1867.99 432.67 2040.50 436.39 1964.80 556.96 1868.30 651.29 2018.67 655.78
00012816 00000019 1734.50 199.20 409.94 624.12 1868.73 431.32 2040.55 435.03 1964.29 559.44 1867.84 653.24 2019.28 657.59
00012817 00000020 1735.16 197.96 408.64 622.45 1869.19 431.66 2040.38 434.81 1964.83 559.04 1867.63 650.84 2020.40 654.99
00012818 00000021 1734.93 196.29 408.72 624.01 1868.81 431.51 2040.30 434.07 1964.85 555.18 1867.31 648.18 2021.21 652.18
00012819 00000022 1735.13 194.52 408.49 626.31 1869.08 430.54 2040.78 434.35 1964.36 554.10 1865.57 646.78 2020.55 651.91
00012820 00000023 1734.92 194.53 408.91 627.69 1869.19 430.30 2041.10 434.17 1964.64 554.06 1866.33 647.83 2020.70 652.89
00012821 00000024 1734.33 196.30 410.26 628.97 1870.08 430.40 2040.34 434.99 1963.37 555.64 1867.29 650.90 2017.53 656.13
00012822 00000025 1732.98 199.92 411.46 628.51 1870.74 429.78 2039.27 435.87 1962.09 558.13 1867.55 654.92 2013.63 660.67
00012823 00000026 1728.70 198.62 416.46 629.32 1869.18 432.10 2038.95 438.85 1961.95 560.39 1871.73 660.16 2008.66 665.42
00012824 00000027 1728.65 199.56 412.38 629.81 1870.94 438.62 2039.41 448.84 1963.38 562.09 1872.03 660.87 2008.48 668.56
00012825 00000028 1726.86 200.51 413.36 627.09 1868.37 442.01 2037.32 448.90 1963.16 562.13 1871.05 660.19 2009.33 665.58
00012826 00000029 1724.69 198.86 414.89 629.63 1868.29 441.15 2038.09 447.58 1963.26 563.26 1875.58 665.08 2009.08 669.31
00012827 00000030 1723.00 197.43 417.15 627.82 1866.34 439.51 2038.56 444.75 1963.96 564.43 1877.93 666.93 2009.01 669.84
00012828 00000031 1722.56 197.07 415.95 627.85 1865.96 438.46 2037.54 441.25 1964.51 567.10 1877.54 669.09 2012.66 669.97
00012829 00000032 1724.08 198.58 413.33 627.87 1866.01 437.95 2036.64 438.85 1965.67 566.13 1873.74 666.67 2015.67 666.74
00012830 00000033 1725.88 199.66 409.94 626.63 1866.93 437.18 2038.77 438.59 1969.38 567.44 1873.35 666.87 2019.56 667.46
00012831 00000034 1726.43 201.70 408.81 625.88 1869.29 436.93 2040.94 440.18 1971.71 566.38 1874.01 666.37 2020.82 668.50
00012832 00000035 1727.96 206.90 408.18 624.61 1871.39 445.02 2043.10 447.43 1977.08 567.10 1876.25 665.79 2025.02 667.95
00012833 00000036 1727.58 205.74 409.85 628.79 1872.09 445.98 2046.10 448.20 1976.87 568.10 1883.77 673.81 2026.45 675.03
00012834 00000037 1728.77 202.84 410.22 632.82 1872.53 447.17 2046.65 449.20 1976.88 568.56 1883.84 674.13 2025.65 675.47
00012835 00000038 1728.71 202.11 409.07 633.73 1871.15 447.07 2045.65 446.85 1976.77 570.09 1884.29 673.98 2028.12 673.75
00012836 00000039 1727.51 204.52 411.24 631.45 1871.08 450.46 2044.83 449.23 1976.16 572.56 1884.18 674.73 2028.50 673.70
00012837 00000040 1726.89 204.84 412.57 631.25 1870.14 451.88 2044.17 450.16 1975.72 573.01 1883.04 675.46 2029.84 674.06
00012838 00000041 1727.35 206.07 412.34 631.27 1869.80 453.62 2044.52 451.98 1975.64 574.28 1881.28 676.65 2030.80 675.39
00012839 00000042 1726.93 208.37 412.63 631.36 1870.93 455.14 2043.96 453.49 1975.71 576.11 1882.47 679.22 2029.62 677.62
00012840 00000043 1729.49 205.93 419.96 633.08 1875.78 455.94 2047.57 455.42 1975.17 575.80 1881.55 678.76 2027.44 676.66
00012841 00000044 1729.64 208.11 422.28 635.26 1875.21 457.07 2047.08 457.16 1973.87 578.67 1881.82 682.86 2025.99 681.09
00012842 00000045 1730.28 207.51 422.22 638.04 1875.53 457.73 2048.67 457.39 1976.50 581.37 1882.44 685.48 2028.80 683.35
00012843 00000046 1732.02 209.30 419.53 632.48 1876.72 459.32 2049.98 457.55 1978.88 585.94 1884.54 684.81 2031.47 681.57
00012844 00000047 1732.13 210.03 419.54 634.78 1877.75 457.91 2049.49 457.49 1979.03 583.74 1882.42 682.98 2028.97 680.72
00012845 00000048 1731.51 210.06 419.70 633.88 1878.36 455.68 2049.67 457.62 1978.39 582.15 1879.95 680.96 2028.40 680.71
00012846 00000049 1731.49 216.25 418.04 625.73 1880.07 457.72 2051.64 458.61 1981.43 583.25 1880.25 679.35 2030.97 678.44
00012847 00000050 1730.44 215.33 418.18 621.16 1878.61 457.14 2048.75 456.05 1978.68 582.07 1884.83 679.32 2028.80 676.59
00012848 00000051 1729.21 208.93 416.15 625.13 1872.08 448.65 2046.76 450.98 1970.71 578.56 1878.10 678.36 2026.40 678.22
00012849 00000052 1721.88 209.33 415.26 627.51 1865.64 447.90 2040.98 447.52 1968.57 580.06 1880.44 683.12 2024.47 681.16
00012850 00000053 1719.91 211.53 416.27 624.95 1862.46 448.47 2037.88 447.02 1964.85 579.05 1876.57 683.59 2022.13 680.79
00012851 00000054 1717.56 210.01 418.52 625.67 1860.18 449.71 2036.31 447.11 1962.97 576.54 1875.39 682.15 2021.08 678.62
00012852 00000055 1716.26 209.28 418.94 624.52 1858.60 448.39 2034.27 444.55 1962.19 576.26 1873.43 680.30 2020.15 675.98
00012853 00000056 1715.03 207.45 420.08 624.00 1858.76 445.33 2034.00 442.80 1962.15 573.90 1872.49 678.85 2019.33 675.29
00012854 00000057 1714.24 204.81 421.65 624.89 1860.38 443.90 2034.26 441.97 1962.06 571.13 1875.87 677.30 2017.79 673.85
00012855 00000058 1713.63 205.25 422.80 623.67 1862.12 442.01 2035.51 441.71 1963.35 569.87 1877.68 675.19 2017.52 672.88
00012856 00000059 1713.81 204.60 423.39 622.82 1862.61 442.29 2036.42 442.01 1963.85 569.69 1879.79 674.86 2017.97 672.45
00012857 00000060 1714.35 204.58 422.92 622.42 1863.49 441.73 2036.64 441.67 1963.99 569.16 1880.33 674.15 2017.75 671.92
00012858 00000061 1714.88 204.88 423.08 622.18 1863.97 441.43 2037.16 441.77 1964.15 569.25 1880.41 674.25 2017.44 672.33
00012859 00000062 1715.83 206.34 422.54 620.83 1865.20 441.95 2037.34 442.83 1964.67 568.51 1880.94 673.89 2017.18 672.40
00012860 00000063 1716.72 205.40 421.94 622.39 1866.05 442.81 2037.61 443.93 1965.54 568.66 1882.58 673.90 2017.61 672.60
00012861 00000064 1716.85 206.02 422.01 622.49 1866.76 442.99 2038.63 443.99 1967.22 570.16 1883.88 675.43 2018.45 673.95
00012862 00000065 1717.14 206.53 422.19 621.84 1866.90 443.08 2039.76 444.26 1968.45 569.51 1884.52 675.82 2019.54 674.45
00012863 00000066 1721.57 204.34 424.29 619.34 1868.67 440.05 2041.95 441.87 1967.01 565.69 1881.39 671.26 2018.54 670.30
00012864 00000067 1723.26 203.64 422.45 620.18 1870.09 440.76 2042.97 441.30 1968.42 566.11 1882.47 670.87 2020.34 668.89
00012865 00000068 1723.56 204.22 423.47 619.80 1870.82 441.40 2043.35 442.10 1968.93 565.84 1883.03 670.76 2019.88 668.95
00012866 00000069 1724.26 203.77 423.42 621.55 1871.99 441.47 2044.42 442.33 1969.99 567.23 1883.58 671.50 2020.57 669.80
00012867 00000070 1724.63 204.79 423.88 621.70 1872.20 442.24 2045.60 442.88 1970.88 568.37 1883.53 672.53 2021.93 670.66
00012868 00000071 1724.66 205.08 424.25 620.79 1871.58 442.38 2045.83 442.99 1970.49 569.02 1882.87 673.86 2021.92 672.06
00012869 00000072 1725.07 206.08 423.45 620.94 1870.70 442.60 2045.07 442.08 1969.71 570.20 1881.88 674.93 2023.01 672.18
00012870 00000073 1724.62 206.06 423.48 623.47 1869.35 443.12 2044.10 441.85 1968.86 571.32 1881.02 675.93 2023.74 672.50
00012871 00000074 1724.96 206.49 421.57 625.67 1868.42 442.99 2043.01 441.76 1968.40 571.18 1877.55 675.12 2023.67 671.81
00012872 00000075 1721.86 208.70 416.66 628.14 1864.72 444.86 2039.78 441.59 1970.76 574.43 1877.78 678.32 2026.29 674.94
00012873 00000076 1721.16 208.09 416.34 630.98 1864.20 444.13 2039.08 440.52 1970.42 573.30 1876.99 678.25 2026.22 674.65
00012874 00000077 1721.17 206.33 416.63 634.09 1865.22 442.66 2040.00 440.65 1970.34 571.29 1877.24 677.90 2025.96 675.46
00012875 00000078 1722.14 206.80 414.47 633.34 1865.83 447.43 2040.45 446.24 1971.24 570.20 1877.00 676.40 2026.21 674.93
00012876 00000079 1721.76 206.02 414.88 631.71 1864.20 443.53 2040.23 442.36 1969.40 571.20 1875.03 676.56 2025.74 674.96
00012877 00000080 1720.45 204.36 416.67 630.84 1863.17 440.66 2038.99 439.29 1967.94 572.13 1875.10 676.61 2023.97 674.45
00012878 00000081 1719.41 206.58 418.84 626.79 1861.82 441.22 2038.58 439.64 1966.71 572.59 1875.18 677.31 2022.81 674.76
00012879 00000082 1718.06 207.29 419.80 625.38 1860.97 441.30 2037.64 440.09 1965.07 572.54 1875.32 678.41 2021.32 675.80
00012880 00000083 1715.91 205.12 421.25 625.22 1859.75 441.74 2035.42 440.83 1961.88 571.12 1875.16 677.25 2017.94 674.63
00012881 00000084 1714.29 200.80 421.20 629.07 1858.50 444.73 2033.10 443.70 1959.85 569.49 1873.02 674.20 2015.73 671.82
00012882 DELETE   1711.20 208.04 420.48 619.30 1852.76 452.94 2027.00 450.43 1955.06 568.82 1866.81 670.09 2013.14 667.14
00012883 DELETE   1708.49 208.94 419.41 617.57 1844.24 455.10 2017.19 451.73 1942.66 571.06 1855.51 668.49 2004.58 665.20
00012884 DELETE   1707.33 207.46 415.42 617.74 1831.80 455.15 2009.13 448.31 1932.39 573.90 1847.16 668.99 1999.28 663.14
00012885 00000088 1703.85 206.24 412.83 619.08 1826.67 458.35 2001.77 448.57 1924.05 577.50 1843.75 672.17 1994.14 663.70
00012886 00000089 1700.31 205.21 414.48 620.55 1825.95 457.61 1999.33 447.27 1922.63 576.34 1845.04 674.80 1992.60 665.55
00012887 00000090 1698.30 206.03 415.48 620.59 1824.52 458.12 1998.25 447.42 1921.94 576.62 1844.80 676.84 1991.95 667.27
00012888 00000091 1697.19 205.19 416.63 620.73 1823.97 458.98 1998.89 447.40 1923.24 577.74 1845.38 677.17 1994.16 666.91
00012889 00000092 1697.71 207.18 414.99 618.16 1823.02 462.50 2001.37 449.64 1924.26 580.74 1843.89 678.58 1999.07 667.33
00012890 00000093 1698.24 210.97 414.91 618.72 1824.79 467.66 2001.68 452.26 1926.44 582.72 1845.25 682.35 2001.04 669.35
00012891 00000094 1697.89 211.11 414.65 620.47 1825.21 467.49 2002.17 451.46 1927.47 582.31 1846.32 682.95 2001.57 669.45
00012892 00000095 1697.97 206.78 414.30 622.33 1823.95 465.34 2003.42 448.64 1928.99 584.07 1845.99 681.59 2003.79 667.73
00012893 00000096 1698.80 204.18 414.59 621.99 1824.70 461.89 2004.98 445.79 1932.00 581.53 1846.62 678.09 2005.71 664.77
00012894 00000097 1700.34 203.56 413.78 620.73 1825.99 461.72 2005.83 444.24 1934.00 577.96 1848.75 674.11 2009.77 659.70
00012895 00000098 1701.40 203.82 413.51 619.86 1827.45 460.90 2007.54 443.97 1936.40 577.65 1850.54 673.76 2011.48 659.84
00012896 00000099 1702.55 204.69 413.96 620.95 1828.91 460.55 2008.27 443.87 1937.76 577.58 1850.22 674.43 2011.44 661.05
00012897 00000100 1703.24 204.96 413.50 621.40 1830.91 460.35 2008.98 444.40 1938.73 577.25 1851.60 674.31 2010.69 661.59
00012898 00000101 1704.37 205.27 413.74 623.93 1833.15 460.60 2010.71 445.30 1940.88 576.63 1852.38 674.50 2011.60 662.51
00012899 00000102 1705.12 206.38 413.73 625.29 1833.30 461.70 2011.68 445.90 1941.33 577.85 1851.70 675.37 2013.05 663.11
00012900 00000103 1705.73 208.12 414.11 626.16 1834.09 464.26 2013.11 448.55 1942.38 579.16 1852.10 676.87 2014.27 664.85
00012901 00000104 1706.25 209.11 414.07 626.38 1835.84 465.61 2014.74 450.78 1944.08 579.39 1854.05 677.50 2015.57 666.15
00012902 00000105 1707.50 210.34 413.95 624.98 1837.93 466.97 2014.99 453.40 1944.07 582.58 1854.23 677.76 2015.83 667.43
00012903 00000106 1705.92 216.28 416.39 618.40 1839.24 467.22 2016.30 454.27 1945.34 585.31 1854.86 679.30 2015.60 669.28
00012904 00000107 1706.18 218.98 417.37 616.38 1843.16 472.45 2017.47 459.17 1948.24 587.28 1859.27 680.05 2016.86 669.76
00012905 00000108 1707.54 220.75 416.32 615.95 1845.24 476.42 2017.24 462.80 1948.81 589.47 1860.17 679.87 2018.66 669.49
00012906 00000109 1708.36 221.13 417.46 618.19 1847.94 477.28 2018.28 464.68 1950.25 589.57 1860.91 681.45 2018.32 672.01
00012907 00000110 1709.77 222.45 417.77 619.41 1849.07 478.64 2019.13 466.03 1950.94 590.96 1861.41 682.42 2019.66 673.10
00012908 00000111 1710.73 222.63 418.30 620.83 1850.66 477.54 2020.63 465.99 1952.44 590.56 1862.94 683.28 2020.58 674.78
00012909 00000112 1711.58 222.83 417.59 621.83 1851.35 477.02 2020.88 465.75 1952.82 589.52 1864.20 684.57 2019.72 676.21
00012910 00000113 1711.40 222.07 418.47 623.51 1850.70 476.27 2020.55 465.30 1951.85 588.47 1863.84 685.05 2018.51 676.84
00012911 00000114 1709.58 221.09 419.81 624.37 1847.41 473.98 2020.19 463.95 1949.59 588.06 1862.69 685.77 2016.18 678.04
00012912 00000115 1707.88 218.42 419.56 624.45 1842.70 470.28 2018.08 459.91 1944.94 585.97 1859.67 686.20 2012.31 677.86
00012913 00000116 1705.12 215.68 420.49 624.08 1835.62 464.30 2013.28 453.08 1938.47 581.46 1853.75 684.30 2009.07 674.96
00012914 DELETE   1704.04 207.93 418.20 626.71 1831.62 458.70 2008.51 448.26 1932.35 577.81 1851.27 682.36 2001.63 673.09
00012915 DELETE   1702.69 200.25 415.99 626.96 1825.86 446.71 2004.30 435.54 1926.66 569.94 1846.60 677.03 1998.26 666.76
00012916 DELETE   1698.29 196.96 417.42 630.42 1822.12 435.18 1998.44 422.31 1920.68 554.57 1842.13 667.45 1993.05 655.38
00012917 00000120 1696.27 187.92 416.00 636.84 1817.16 428.29 1995.47 416.39 1916.97 537.96 1838.44 656.87 1986.26 645.80
00012918 DELETE   1694.62 184.65 417.60 627.48 1811.87 426.55 1990.62 414.82 1910.92 524.86 1838.92 647.96 1985.72 636.19
00012919 00000122 1691.52 181.86 419.72 625.27 1812.90 426.34 1989.19 413.26 1911.97 516.59 1840.85 642.51 1986.00 629.71
00012920 00000123 1690.99 178.11 419.62 626.66 1813.90 422.13 1990.23 409.71 1912.94 512.28 1841.26 638.93 1986.73 626.66
00012921 00000124 1690.13 177.11 419.89 625.34 1814.99 418.90 1989.83 406.08 1914.35 510.11 1842.06 637.21 1986.43 624.56
00012922 00000125 1689.55 175.99 420.61 624.86 1814.99 417.88 1990.35 404.70 1915.14 508.82 1842.26 636.55 1987.06 623.68
00012923 00000126 1688.71 177.14 420.74 623.46 1814.80 418.05 1990.19 404.14 1915.75 508.75 1843.27 636.98 1987.89 623.36
00012924 00000127 1688.78 177.73 420.04 621.74 1815.16 418.64 1989.81 404.03 1916.21 509.75 1844.38 637.23 1988.78 622.91
00012925 00000128 1687.77 178.36 420.71 622.27 1812.97 421.04 1988.73 405.57 1914.31 510.27 1843.39 638.14 1988.18 623.06
00012926 00000129 1685.97 179.24 422.36 622.38 1809.41 423.07 1984.23 406.00 1909.21 510.58 1840.54 639.53 1984.74 623.47
00012927 00000130 1684.79 179.60 421.75 622.66 1807.05 424.24 1982.14 407.94 1906.18 515.15 1837.72 640.38 1981.91 625.15
00012928 00000131 1682.67 180.23 422.77 622.16 1804.85 424.75 1979.87 408.68 1903.40 516.29 1834.68 640.89 1979.59 626.00
00012929 00000132 1681.43 181.18 423.19 622.19 1802.96 426.25 1977.70 409.90 1901.32 517.11 1832.89 641.81 1977.61 626.88
00012930 00000133 1681.87 182.29 422.37 622.35 1802.30 427.56 1978.73 411.45 1901.29 517.92 1831.97 642.85 1978.04 628.16
00012931 00000134 1682.12 182.28 422.31 623.42 1802.90 428.45 1978.68 412.53 1901.52 522.21 1832.17 644.75 1978.21 630.14
00012932 00000135 1682.91 183.08 422.19 623.44 1804.02 429.50 1979.79 413.48 1903.31 523.56 1834.61 646.63 1979.21 631.71
00012933 00000136 1684.07 185.17 421.23 623.43 1804.52 430.27 1981.64 414.43 1904.89 526.85 1834.99 648.19 1982.13 633.27
00012934 00000137 1684.28 187.49 421.58 621.61 1804.71 431.52 1982.85 415.89 1905.78 528.44 1835.52 649.68 1983.21 634.81
00012935 00000138 1685.84 187.83 420.11 622.38 1804.86 433.04 1983.90 417.82 1906.72 530.34 1834.61 649.56 1984.46 635.09
00012936 00000139 1685.91 189.19 419.96 622.17 1804.01 434.28 1985.02 418.72 1907.33 531.85 1832.84 650.03 1986.17 635.38
00012937 00000140 1685.99 190.19 418.84 621.79 1803.28 435.29 1984.62 419.64 1907.08 533.94 1831.17 650.63 1986.57 635.99
00012938 00000141 1686.50 190.65 417.08 621.65 1801.65 436.39 1983.56 420.60 1905.18 535.69 1827.73 650.51 1986.54 635.97
00012939 00000142 1685.66 190.79 417.68 621.55 1800.69 436.73 1982.46 420.84 1904.23 535.83 1826.62 650.65 1985.30 636.01
00012940 00000143 1685.47 191.31 416.89 621.64 1800.35 436.67 1981.43 420.68 1904.00 536.65 1825.99 651.61 1984.71 636.87
00012941 00000144 1685.82 191.52 416.22 622.22 1800.21 436.93 1981.54 420.65 1904.60 538.84 1826.65 653.30 1984.96 638.29
00012942 00000145 1687.67 192.95 413.50 626.18 1807.78 436.57 1982.96 419.82 1908.03 542.42 1829.43 655.24 1984.28 640.39
00012943 00000146 1688.10 194.28 413.65 625.60 1808.70 437.25 1984.34 421.09 1909.33 543.14 1829.61 655.28 1985.30 640.88
00012944 00000147 1688.32 194.82 414.23 626.14 1808.84 437.89 1985.62 422.13 1909.52 542.40 1829.46 655.99 1984.78 641.92
00012945 00000148 1688.27 195.96 415.08 626.13 1808.96 438.61 1986.63 423.46 1910.10 543.20 1829.22 657.90 1985.67 644.28
00012946 00000149 1685.71 195.57 419.54 629.54 1810.03 439.77 1986.16 424.65 1910.84 545.47 1834.68 662.50 1981.45 648.69
00012947 00000150 1687.01 195.08 417.69 632.32 1809.42 441.37 1985.84 425.92 1909.35 548.73 1833.26 665.92 1980.88 651.98
00012948 00000151 1686.24 197.03 418.04 629.86 1808.76 442.88 1985.22 427.48 1908.37 550.36 1832.95 667.17 1981.52 653.20
00012949 00000152 1686.10 196.86 418.23 631.18 1807.35 445.26 1984.17 429.72 1906.27 552.77 1831.81 668.52 1981.17 654.43
00012950 00000153 1686.85 196.52 417.49 632.68 1806.87 447.48 1983.14 431.16 1905.42 556.32 1831.94 670.75 1981.80 656.04
00012951 00000154 1686.53 197.22 417.80 632.45 1807.59 449.13 1983.37 432.80 1906.01 557.31 1832.98 672.95 1982.72 658.19
00012952 00000155 1686.28 197.49 418.10 631.41 1807.52 451.20 1984.28 435.67 1906.26 559.07 1832.22 672.70 1983.59 658.74
00012953 00000156 1687.19 197.07 417.24 630.38 1809.03 453.53 1985.18 437.66 1908.33 560.18 1834.57 672.96 1984.03 658.86
00012954 00000157 1687.47 197.82 416.71 628.16 1809.96 454.86 1985.65 439.01 1908.91 561.97 1835.62 673.08 1984.00 659.08
00012955 00000158 1687.69 198.30 417.27 627.64 1811.12 454.86 1986.28 439.87 1910.07 562.18 1836.10 673.32 1983.86 660.04
00012956 00000159 1687.81 198.69 418.23 627.39 1812.06 455.44 1987.73 441.14 1911.17 562.17 1837.39 674.29 1984.45 661.58
00012957 00000160 1687.23 199.58 419.80 626.51 1812.97 455.91 1988.47 442.36 1912.15 562.08 1839.46 674.36 1983.85 662.08
00012958 00000161 1686.88 200.21 421.34 626.20 1815.16 457.42 1989.33 445.17 1913.48 563.98 1841.29 673.73 1983.38 662.43
00012959 00000162 1686.66 207.38 422.62 621.49 1819.64 460.90 1988.93 449.58 1915.11 565.25 1844.85 673.55 1982.75 662.88
