Video ID: 	7beK0XibJ2Y
H: 	1080
W: 	1920
FPS: 	25.0

FRAME INDEX X0 Y0 W H [Landmarks (5 Points)]

00012037 00000000 468.77 92.39 540.02 808.00 716.37 436.60 941.97 434.73 897.58 595.04 738.79 731.51 911.80 728.82
00012038 00000001 478.55 104.92 536.91 803.71 723.30 440.96 952.66 442.18 901.78 604.46 740.35 735.28 918.45 735.63
00012039 00000002 483.80 123.30 533.63 787.31 726.11 439.11 955.45 443.57 901.76 605.58 735.79 732.32 917.01 735.73
00012040 00000003 485.55 125.35 534.38 780.46 728.64 435.75 957.86 439.31 905.94 603.22 737.82 728.33 918.76 731.00
00012041 00000004 488.20 135.08 532.64 768.53 733.43 432.37 958.46 434.61 911.19 598.20 744.48 727.04 920.05 728.84
00012042 00000005 491.09 134.02 529.78 767.19 734.96 432.33 958.88 434.77 911.35 597.48 748.93 728.68 920.91 730.50
00012043 00000006 491.50 135.01 529.81 769.12 734.29 435.21 959.78 437.02 910.68 601.09 748.55 731.39 921.10 732.87
00012044 00000007 491.77 132.81 532.24 775.10 736.22 438.18 961.04 440.36 912.08 601.73 751.96 733.28 923.13 734.84
00012045 00000008 495.85 134.60 533.20 779.73 741.34 439.79 965.62 439.56 918.23 601.50 755.87 731.02 933.10 730.64
00012046 00000009 495.70 135.92 538.13 773.54 748.83 429.24 976.44 430.75 924.49 607.84 760.98 732.35 942.65 732.46
00012047 00000010 498.36 135.03 538.63 772.92 750.24 428.92 978.89 430.80 924.62 608.44 760.96 732.40 943.04 732.95
00012048 00000011 508.71 136.25 528.29 769.66 747.23 443.59 971.41 440.21 922.46 602.54 767.35 733.75 939.95 731.37
00012049 00000012 502.52 135.71 537.44 780.69 757.10 437.74 979.80 442.10 928.58 617.02 771.86 743.00 945.26 745.51
00012050 00000013 503.10 139.21 537.91 778.65 758.41 440.78 980.71 443.57 932.26 617.68 773.46 746.30 948.22 747.56
00012051 00000014 504.32 142.98 533.84 771.61 756.89 437.72 979.80 437.83 932.95 611.64 778.04 744.36 952.75 743.10
00012052 00000015 505.58 140.58 528.51 765.25 754.83 428.24 978.32 427.22 931.97 602.91 781.82 736.38 954.14 734.23
00012053 00000016 509.60 129.24 522.81 769.08 745.36 431.31 967.40 423.16 922.86 589.97 774.94 729.74 944.59 723.01
00012054 00000017 507.78 131.25 523.92 767.67 744.27 427.44 966.03 420.48 923.83 587.96 772.92 727.84 943.22 722.09
00012055 00000018 507.94 131.27 522.88 769.32 747.89 435.09 968.66 426.73 925.90 595.88 775.58 732.38 942.87 725.76
00012056 00000019 499.75 116.50 531.60 798.95 759.66 450.04 974.17 445.59 938.31 611.53 779.92 744.57 951.31 740.04
00012057 00000020 497.78 105.59 535.65 835.29 757.94 472.53 968.53 454.13 942.52 620.41 775.97 761.14 941.75 747.03
00012058 DELETE   489.10 141.03 543.96 817.49 751.86 495.71 963.70 479.86 935.33 658.28 768.35 786.11 935.42 773.92
00012059 00000022 489.10 172.06 538.00 804.95 745.87 520.79 960.99 501.37 929.54 678.24 765.77 810.70 933.26 795.84
00012060 00000023 489.29 190.32 534.80 801.84 743.00 534.44 958.55 515.28 927.02 694.79 758.34 823.21 928.49 808.63
00012061 00000024 489.80 183.37 533.02 806.44 742.79 530.18 958.12 510.07 927.91 683.85 763.23 817.82 934.49 802.02
00012062 00000025 485.60 158.06 542.15 806.26 742.63 502.80 957.61 482.68 927.65 656.27 766.80 789.99 941.44 773.06
00012063 00000026 487.75 153.57 539.06 791.56 740.23 480.19 959.42 467.53 922.98 639.91 758.76 768.04 941.12 757.13
00012064 00000027 487.10 147.38 540.18 796.86 740.94 477.25 959.55 472.69 920.51 641.42 751.46 765.52 934.98 761.11
00012065 00000028 488.66 148.69 541.83 809.15 746.19 492.43 959.52 483.09 924.17 655.30 758.50 781.56 932.57 773.74
00012066 00000029 493.79 162.01 538.06 805.97 749.79 502.59 965.89 487.75 929.98 667.69 764.66 793.48 936.97 781.62
00012067 00000030 495.65 165.21 536.54 793.13 748.55 500.61 963.83 480.94 930.18 661.59 766.86 787.12 942.95 771.06
00012068 00000031 499.21 147.34 535.00 787.09 750.24 480.31 970.28 464.69 933.73 642.63 768.56 766.40 950.37 753.17
00012069 00000032 502.10 146.06 532.80 781.79 756.78 464.45 975.21 455.27 938.88 630.52 770.50 753.33 957.98 744.96
00012070 00000033 498.45 164.24 536.22 766.94 758.86 460.29 973.83 456.15 937.21 629.55 767.79 753.32 950.45 749.30
00012071 00000034 496.61 163.41 538.46 769.37 752.44 465.04 970.68 459.18 932.61 632.78 764.13 759.72 944.79 754.54
00012072 00000035 490.85 165.36 537.54 772.33 745.51 472.43 962.67 460.46 929.62 638.09 762.22 766.16 941.20 756.01
00012073 00000036 484.35 162.84 535.84 775.33 735.03 477.24 953.05 460.82 920.73 636.79 761.43 768.23 939.65 753.99
00012074 00000037 479.24 173.61 534.39 763.21 723.82 480.50 944.58 459.43 911.18 633.33 758.93 768.67 938.39 750.05
00012075 00000038 478.81 167.59 528.98 764.25 720.91 481.48 938.99 457.54 909.03 631.62 757.61 766.48 936.45 745.62
00012076 00000039 477.74 178.66 525.40 750.99 713.27 477.22 935.91 452.81 904.56 628.98 755.29 765.93 935.72 744.47
00012077 00000040 481.27 177.82 520.62 759.11 710.11 478.66 935.18 451.03 907.26 623.18 758.86 767.29 932.78 743.95
00012078 00000041 478.36 186.16 519.62 740.25 710.20 473.58 938.38 450.20 895.28 624.18 760.25 764.11 937.17 743.14
00012079 00000042 475.22 191.97 524.49 735.65 710.14 478.85 938.89 450.97 896.06 628.52 751.79 759.61 935.95 735.65
00012080 00000043 473.87 192.14 527.04 733.17 710.95 481.86 939.43 452.37 896.60 630.76 749.89 757.22 935.31 732.03
00012081 00000044 471.82 187.60 527.56 736.74 709.83 480.22 938.05 450.65 895.50 627.64 747.91 753.93 934.25 728.67
00012082 00000045 471.04 184.78 522.25 734.15 711.68 480.36 930.31 445.80 899.83 629.30 740.06 754.78 928.80 726.86
00012083 00000046 461.64 172.53 526.74 747.06 708.90 480.69 925.89 444.26 898.98 630.71 735.81 755.88 925.21 726.19
00012084 00000047 460.53 181.86 526.62 743.03 702.67 487.60 923.19 452.47 890.53 633.09 730.85 760.97 921.17 732.42
00012085 00000048 461.87 183.89 527.83 745.66 700.12 491.76 921.25 454.37 886.52 637.35 730.16 765.39 919.66 735.33
00012086 00000049 464.12 191.54 523.33 734.24 699.25 490.69 920.12 452.02 885.64 635.17 731.96 763.92 920.25 732.66
00012087 00000050 461.71 190.34 523.38 729.09 701.03 484.56 919.84 444.16 892.22 628.08 733.58 757.32 923.18 724.48
00012088 00000051 461.09 181.52 524.56 737.39 702.67 479.28 924.04 440.22 895.96 627.33 735.16 757.10 927.39 724.94
00012089 00000052 461.85 177.97 525.89 745.72 707.27 483.00 925.09 446.25 897.76 631.93 739.10 761.31 925.42 731.46
00012090 00000053 465.48 183.84 527.88 745.62 707.67 490.78 927.58 455.39 894.98 636.56 738.39 765.84 925.47 737.48
00012091 00000054 468.51 181.77 525.35 751.38 709.87 493.04 929.17 456.08 897.53 639.09 744.92 769.65 929.35 739.99
00012092 00000055 470.56 179.69 519.55 749.87 708.18 488.15 927.04 451.32 896.37 632.32 750.30 768.31 931.49 738.25
00012093 00000056 465.39 171.28 520.54 754.53 703.47 481.70 923.51 442.31 896.63 625.67 749.17 765.85 933.54 733.44
00012094 00000057 462.57 175.15 522.32 748.90 700.62 480.19 922.21 441.47 894.55 625.95 745.41 767.06 929.78 735.21
00012095 00000058 463.75 175.96 522.71 755.81 701.69 484.66 920.98 449.19 892.13 632.22 742.27 771.25 922.97 742.29
00012096 00000059 466.13 181.33 522.78 754.72 702.42 487.40 922.51 451.15 891.85 634.94 745.88 775.33 925.03 745.71
00012097 00000060 466.15 180.62 521.59 753.15 704.24 482.59 922.45 446.63 895.04 629.58 750.13 771.85 927.49 742.36
00012098 00000061 466.76 181.81 520.79 750.71 701.66 477.48 921.21 442.35 892.61 622.41 749.39 768.30 929.66 739.38
00012099 00000062 464.41 181.54 522.90 754.32 701.62 477.13 921.12 444.42 892.49 624.84 745.90 770.21 925.16 743.36
00012100 00000063 464.37 179.73 525.97 764.98 703.11 482.95 919.58 452.89 890.17 632.15 744.49 776.82 917.72 752.31
00012101 00000064 462.02 179.83 529.00 775.71 705.56 479.71 926.59 454.40 893.15 628.55 750.61 780.89 925.23 759.02
00012102 00000065 461.46 182.85 528.73 769.77 705.09 474.88 925.62 448.67 893.45 620.76 751.38 775.54 926.22 752.97
00012103 00000066 458.47 165.48 530.89 788.25 702.65 472.26 916.81 443.11 892.14 618.10 742.45 768.81 924.01 744.72
00012104 00000067 458.45 170.35 529.06 778.01 701.93 471.66 916.42 444.26 889.32 619.47 737.84 766.81 919.77 744.22
00012105 00000068 460.20 171.35 525.74 771.37 700.17 476.59 917.31 447.58 887.63 623.18 734.71 767.86 917.93 744.08
00012106 00000069 461.47 179.18 522.83 761.01 698.78 478.86 916.20 447.69 887.17 624.77 735.21 769.86 916.21 744.51
00012107 00000070 460.15 181.06 525.08 761.02 696.84 478.14 913.88 446.82 884.14 624.30 736.97 770.70 915.88 744.99
00012108 00000071 452.94 158.49 526.48 786.76 700.82 484.85 910.05 452.68 890.57 624.47 734.93 769.42 911.67 743.40
00012109 00000072 449.28 153.59 525.88 790.33 697.02 483.16 909.46 449.56 890.46 626.28 731.18 770.03 911.00 742.56
00012110 00000073 448.56 162.77 525.31 779.17 696.87 487.27 904.67 451.67 888.87 626.62 731.81 769.26 908.97 740.33
00012111 00000074 449.17 171.91 525.18 768.15 692.60 482.88 905.42 449.15 886.29 628.07 728.01 769.80 908.43 742.10
00012112 00000075 449.17 178.10 524.78 761.72 690.72 481.63 901.95 450.34 880.54 627.59 727.82 769.47 903.78 743.73
00012113 00000076 446.24 166.44 524.18 775.68 687.51 480.67 900.65 449.44 878.11 627.46 726.74 769.67 904.25 743.64
00012114 00000077 442.70 156.48 525.81 786.89 684.24 481.98 899.06 449.43 875.49 629.12 725.97 771.17 904.34 743.68
00012115 00000078 443.05 177.85 525.46 766.29 678.09 480.99 895.72 447.42 870.30 630.35 723.64 772.88 902.86 744.56
00012116 00000079 441.15 179.00 525.56 763.95 674.71 481.43 893.89 446.42 867.53 631.37 721.23 772.64 901.80 743.03
00012117 00000080 439.58 171.51 524.52 769.74 674.31 482.45 891.86 446.20 867.63 631.05 719.49 771.37 900.95 740.84
00012118 00000081 437.71 174.73 525.40 766.54 673.31 480.20 891.06 444.27 866.80 630.70 718.71 770.92 899.92 740.61
00012119 00000082 434.74 170.37 527.20 770.64 672.11 479.71 890.05 444.15 865.49 629.59 716.71 769.56 899.37 739.48
00012120 00000083 433.17 180.42 529.04 758.97 669.64 480.46 888.43 441.77 865.89 631.43 709.72 767.34 898.22 735.07
00012121 00000084 434.00 184.01 529.57 755.56 668.60 481.38 887.44 441.35 863.73 632.05 709.07 765.62 898.63 732.31
00012122 00000085 434.07 194.63 530.42 743.64 667.54 480.67 886.82 438.99 863.43 632.74 709.48 765.00 899.05 730.33
00012123 00000086 432.09 190.26 530.58 747.26 667.30 481.35 886.40 440.19 863.30 632.59 707.66 764.53 897.26 730.44
00012124 00000087 431.44 185.81 530.55 750.84 666.88 480.12 886.46 440.43 862.92 631.13 707.52 764.41 896.58 731.48
00012125 00000088 431.29 185.05 529.03 754.18 665.70 479.41 885.80 442.17 861.29 630.62 707.80 767.78 894.73 736.58
00012126 00000089 431.14 185.32 529.19 758.77 665.20 479.27 884.99 442.77 859.72 631.16 710.10 770.99 894.15 740.25
00012127 00000090 427.99 166.40 531.44 785.45 672.31 492.68 885.25 455.72 865.86 637.40 711.77 778.00 891.54 747.63
00012128 00000091 423.94 160.78 536.68 795.19 671.47 499.88 887.91 462.78 865.09 645.87 709.93 783.20 890.20 752.37
00012129 00000092 426.36 161.63 533.21 791.14 672.65 499.64 890.16 465.16 864.26 646.62 709.94 783.02 890.48 754.36
00012130 00000093 429.37 153.07 531.74 790.06 673.60 489.10 890.29 453.78 868.69 636.09 713.26 773.98 895.23 744.63
00012131 00000094 432.41 161.15 527.88 773.81 673.62 475.76 890.42 443.40 866.25 623.74 714.07 765.31 897.31 737.72
00012132 00000095 439.05 149.33 519.50 782.89 668.72 469.10 891.19 438.20 860.27 606.19 714.78 755.75 890.12 730.09
00012133 00000096 434.19 142.14 526.99 787.52 676.38 467.28 893.06 440.54 863.01 620.60 717.05 760.69 897.79 736.78
00012134 00000097 444.85 134.51 518.07 795.13 673.77 469.44 895.34 442.33 860.97 609.60 714.89 755.67 888.62 733.34
00012135 00000098 444.55 129.18 517.56 797.45 670.65 469.38 894.16 440.29 858.47 607.85 713.37 754.15 889.99 730.13
00012136 00000099 434.21 116.11 525.77 810.47 661.09 470.08 885.63 437.64 848.82 603.95 706.48 751.75 885.00 724.78
00012137 00000100 419.80 109.73 531.07 806.76 641.65 469.95 873.45 441.08 829.90 605.20 691.79 750.41 871.50 725.67
00012138 00000101 411.77 121.20 532.37 799.10 622.69 476.51 859.98 448.25 810.32 617.85 673.83 757.20 857.01 733.33
00012139 00000102 404.37 123.28 532.47 794.09 609.69 485.88 851.20 458.16 796.18 627.78 658.65 763.14 844.36 739.53
00012140 00000103 401.51 130.58 533.67 787.15 605.22 487.11 848.54 458.23 791.94 631.84 653.81 765.79 840.99 741.46
00012141 00000104 401.42 128.22 532.91 790.01 603.71 487.35 844.68 457.58 788.00 631.40 652.79 765.32 838.54 740.13
00012142 00000105 404.70 127.69 528.40 789.49 604.29 485.77 838.93 459.65 773.82 628.46 649.15 762.48 828.31 741.30
00012143 00000106 401.66 124.68 529.10 796.80 596.95 487.03 833.75 460.66 766.29 629.97 642.46 764.40 824.21 742.87
00012144 00000107 400.86 129.33 530.50 797.87 589.13 488.35 830.28 465.53 754.94 635.40 634.64 767.82 818.36 749.03
00012145 00000108 395.43 137.64 538.02 793.38 593.12 484.96 829.20 466.75 756.57 643.03 633.21 766.46 817.90 750.50
00012146 00000109 400.22 132.97 530.29 797.47 587.51 490.46 828.13 466.21 752.65 638.36 633.70 770.16 816.09 750.31
00012147 00000110 391.57 130.04 538.25 802.50 587.35 487.82 821.09 468.92 747.90 645.71 629.11 768.52 811.77 752.00
00012148 00000111 388.70 133.26 538.31 804.09 580.01 490.85 812.81 470.55 738.96 649.25 622.27 772.43 806.44 754.79
00012149 00000112 380.89 133.96 544.09 806.38 573.43 496.54 805.58 473.82 731.95 656.35 616.38 774.95 802.26 755.24
00012150 00000113 380.33 147.50 541.84 794.83 567.56 503.78 798.70 479.10 723.13 664.01 615.14 781.26 798.22 760.41
00012151 00000114 373.53 155.91 549.63 789.94 564.07 520.70 799.81 492.65 722.78 674.03 608.41 788.99 796.44 765.68
00012152 00000115 372.52 153.85 549.07 794.29 560.96 533.87 799.79 500.67 721.10 689.00 605.11 798.35 793.51 771.00
00012153 00000116 373.75 174.51 545.36 779.68 556.60 543.31 797.68 511.34 715.28 704.03 599.16 803.97 791.30 777.95
00012154 00000117 378.65 189.49 543.74 770.21 559.83 544.43 800.03 514.24 716.92 708.93 601.73 808.75 791.19 784.46
00012155 00000118 380.69 188.61 544.04 768.75 563.71 542.45 804.59 510.47 724.10 704.23 606.49 806.48 796.78 780.81
00012156 00000119 381.47 180.49 544.99 771.69 568.43 539.85 808.00 508.23 727.99 696.63 609.48 801.83 798.93 776.49
00012157 00000120 379.92 183.41 545.93 766.51 566.00 537.88 804.32 508.49 723.24 695.30 606.33 799.97 795.37 776.12
00012158 00000121 379.18 185.80 547.88 761.90 561.81 536.10 803.59 508.19 717.25 698.84 601.41 799.38 793.08 776.93
00012159 00000122 378.31 183.05 548.49 764.47 563.01 537.49 803.62 508.07 719.03 699.12 602.89 799.38 793.23 775.59
00012160 00000123 376.84 176.73 548.90 772.79 560.74 532.23 801.20 502.05 719.17 692.03 605.80 797.74 796.10 773.19
00012161 00000124 376.31 167.51 547.99 782.61 559.91 529.18 799.35 499.32 719.08 686.76 607.24 797.04 797.80 772.50
00012162 00000125 374.05 164.58 549.40 787.55 555.74 529.00 795.96 500.13 712.48 688.99 604.28 798.78 794.16 774.96
00012163 00000126 371.46 170.55 546.19 783.87 548.81 533.47 791.30 506.12 704.38 699.79 595.10 802.54 788.74 779.84
00012164 00000127 369.12 185.01 548.12 774.81 545.60 538.87 788.20 510.38 700.45 708.06 593.05 809.16 784.10 785.69
00012165 00000128 371.19 178.95 546.39 783.47 547.04 540.30 789.69 513.75 701.16 707.73 594.77 811.35 784.47 789.33
00012166 00000129 373.50 183.16 546.14 776.42 550.31 536.51 790.79 510.29 703.85 702.50 598.42 806.97 787.22 785.35
00012167 00000130 373.36 175.53 547.33 782.74 550.24 530.29 791.65 505.53 704.34 694.49 599.54 803.81 789.18 783.21
00012168 00000131 371.98 168.52 547.57 788.38 549.65 527.71 791.22 502.39 703.76 691.75 598.33 801.98 788.76 780.87
00012169 00000132 369.54 177.40 547.98 780.50 546.86 530.24 789.14 505.45 701.17 697.50 595.22 804.55 786.19 783.94
00012170 00000133 369.10 186.63 546.08 776.21 544.81 540.84 787.33 513.04 699.51 710.34 593.23 812.54 782.49 789.65
00012171 00000134 369.37 203.20 546.53 768.05 541.39 544.57 787.45 520.09 695.50 714.00 590.68 819.52 781.17 799.34
00012172 00000135 366.51 188.48 545.37 782.49 539.85 541.49 783.28 515.79 694.89 711.45 590.74 816.48 781.51 795.01
00012173 00000136 363.58 181.55 548.37 781.31 540.05 533.31 783.88 506.29 696.88 701.54 591.93 810.43 783.73 787.82
00012174 00000137 362.11 171.14 550.19 788.23 541.01 525.96 783.07 500.50 696.51 690.98 592.64 804.51 783.12 782.91
00012175 00000138 363.40 174.04 550.10 783.65 540.87 524.22 783.80 497.96 697.34 689.10 593.16 802.92 785.42 780.73
00012176 00000139 364.56 178.82 548.37 778.70 542.58 529.09 784.61 501.72 698.85 695.67 594.92 804.43 785.31 781.59
00012177 00000140 361.65 180.03 547.74 784.26 539.54 536.96 783.23 506.17 699.91 703.60 594.10 811.75 786.28 785.91
00012178 00000141 360.93 190.42 546.56 778.10 536.93 538.78 782.28 508.14 698.48 705.64 592.45 815.61 784.69 789.89
00012179 00000142 355.97 175.35 550.51 791.40 535.76 533.53 780.22 504.10 697.31 698.91 590.62 812.96 782.10 788.01
00012180 00000143 354.56 168.11 553.51 795.82 536.79 525.73 779.74 496.86 697.09 688.10 591.68 807.41 783.22 782.82
00012181 00000144 355.20 166.92 552.00 792.37 538.09 520.55 779.18 493.36 697.14 681.04 592.25 803.47 781.50 780.23
00012182 00000145 359.28 171.79 550.79 786.40 539.33 519.41 781.24 492.99 697.30 684.09 593.30 803.10 782.61 780.55
00012183 00000146 358.88 182.30 552.22 775.73 537.36 524.05 783.62 496.78 696.57 696.53 590.20 804.89 783.14 782.08
00012184 00000147 359.61 180.74 552.84 776.48 538.91 527.75 785.45 500.32 698.63 698.42 591.31 805.46 786.20 782.48
00012185 00000148 360.03 176.16 552.73 777.46 539.36 524.46 785.40 496.74 700.19 691.20 592.85 802.24 788.79 778.89
00012186 00000149 363.99 183.15 548.82 765.06 541.36 516.56 784.28 487.02 702.03 681.03 595.25 795.93 788.44 771.44
00012187 00000150 361.97 168.94 547.20 777.63 541.43 510.96 782.88 482.35 703.28 673.64 591.86 791.60 788.50 767.87
00012188 00000151 364.02 162.44 545.24 784.59 543.47 513.87 783.73 485.41 704.43 673.51 592.73 791.03 790.66 767.30
00012189 00000152 363.19 166.31 548.20 781.72 547.00 523.01 788.25 494.37 707.80 679.68 595.51 794.48 789.26 770.35
00012190 00000153 364.69 169.32 546.39 781.80 542.20 537.55 788.05 504.19 705.23 694.55 593.59 803.49 790.21 775.49
00012191 00000154 361.26 176.45 548.36 786.37 540.44 552.80 783.72 516.63 702.76 712.17 590.86 814.05 786.19 783.71
00012192 00000155 361.63 192.83 546.72 773.60 537.88 552.95 784.25 519.09 700.87 714.55 587.05 817.17 785.53 788.70
00012193 00000156 361.59 190.81 547.67 767.92 536.51 544.17 781.99 509.03 700.65 704.19 591.73 811.23 788.48 781.72
00012194 00000157 363.37 173.12 551.06 780.40 542.15 532.06 787.16 498.50 705.70 687.10 596.96 801.48 795.03 773.31
00012195 00000158 364.16 162.90 548.87 788.08 543.42 520.01 783.17 488.04 704.61 675.74 597.45 793.90 793.29 767.11
00012196 00000159 363.24 156.66 546.75 791.61 541.31 517.77 778.16 485.05 700.96 674.06 596.66 792.84 790.78 765.38
00012197 00000160 356.98 147.76 547.72 803.12 538.20 523.33 772.24 488.41 698.53 677.43 597.84 798.45 785.60 768.57
00012198 00000161 354.01 151.84 547.77 802.33 525.37 532.88 766.83 492.81 687.04 689.13 590.74 808.80 779.60 774.59
00012199 00000162 350.28 173.35 542.54 789.56 504.37 539.62 756.19 496.39 669.83 699.12 581.53 821.22 771.37 783.93
00012200 00000163 338.89 196.10 545.75 775.46 489.18 550.03 739.20 499.57 656.04 705.40 577.22 829.59 763.77 785.92
00012201 00000164 335.11 210.36 544.42 763.87 475.75 553.67 716.11 500.17 629.75 708.47 566.46 829.17 746.00 785.29
00012202 00000165 317.47 195.55 553.39 779.09 458.47 551.31 698.41 495.17 614.25 703.16 557.44 831.08 739.82 783.97
00012203 00000166 314.76 191.06 552.99 772.73 453.54 542.82 694.27 488.81 607.57 696.28 555.11 826.95 732.95 781.73
00012204 00000167 322.79 184.88 546.73 771.43 462.20 533.04 697.25 484.46 609.29 689.18 554.69 816.54 729.93 776.20
00012205 00000168 333.99 175.96 542.52 773.54 474.86 525.16 708.52 483.44 618.33 682.19 557.47 804.11 732.17 769.97
00012206 00000169 335.76 175.86 544.97 771.00 483.05 519.95 730.27 483.99 638.38 687.95 559.76 807.59 742.54 776.30
00012207 00000170 339.91 173.98 545.75 780.34 489.12 526.14 742.21 492.89 645.68 698.56 557.75 814.30 747.99 785.35
