Video ID: 	27Ka0X6WnIc
H: 	1080
W: 	1920
FPS: 	29.97002997002997

FRAME INDEX X0 Y0 W H [Landmarks (5 Points)]

00004465 00000000 1039.68 211.88 435.19 644.55 1125.51 422.65 1303.31 458.52 1150.38 550.27 1101.69 656.74 1257.26 686.26
00004466 00000001 1045.22 210.02 428.32 648.18 1126.39 431.00 1298.27 464.73 1146.75 551.87 1108.41 663.45 1256.81 692.21
00004467 00000002 1044.65 208.84 427.15 645.17 1124.47 434.58 1295.36 465.62 1145.01 550.78 1109.19 664.45 1251.83 690.99
00004468 00000003 1045.01 208.05 427.18 630.09 1119.86 437.76 1293.48 466.37 1145.07 551.78 1107.61 662.87 1249.53 687.48
00004469 00000004 1043.45 207.11 431.22 625.14 1118.28 437.48 1295.74 468.71 1145.32 553.28 1102.55 656.78 1254.32 683.54
00004470 00000005 1042.55 206.68 431.00 621.39 1118.42 438.15 1296.57 470.66 1147.33 555.23 1100.60 654.29 1253.29 682.11
00004471 00000006 1042.89 209.23 430.34 621.20 1120.78 438.86 1296.12 473.30 1147.34 555.91 1102.31 654.37 1248.26 683.95
00004472 00000007 1043.19 210.70 431.50 622.34 1121.46 439.35 1295.74 474.20 1146.75 556.57 1102.70 654.64 1247.64 684.61
00004473 00000008 1043.10 209.08 431.50 621.42 1120.41 439.67 1296.04 473.72 1147.96 557.09 1101.95 653.56 1251.31 682.73
00004474 00000009 1042.78 209.80 431.64 620.99 1120.30 439.08 1295.66 474.35 1147.14 558.60 1100.92 652.31 1251.33 682.45
00004475 00000010 1041.58 210.99 432.85 619.33 1120.06 439.15 1295.44 473.79 1148.03 558.99 1100.48 652.51 1251.94 682.19
00004476 00000011 1041.64 211.05 432.49 619.15 1119.90 439.38 1295.76 474.58 1147.57 559.40 1100.37 651.77 1251.98 681.87
00004477 00000012 1041.21 210.77 432.55 617.61 1120.01 439.38 1295.37 473.91 1148.16 559.17 1100.15 651.07 1251.54 680.69
00004478 00000013 1041.42 211.40 432.59 618.55 1120.67 438.60 1295.97 473.63 1148.30 558.26 1100.64 650.82 1251.41 680.80
00004479 00000014 1043.01 211.19 430.49 614.09 1121.18 437.63 1296.35 472.86 1149.25 558.51 1101.14 649.35 1252.11 679.52
00004480 00000015 1043.36 210.45 430.99 609.98 1121.79 436.87 1298.58 471.72 1151.85 557.89 1102.98 647.19 1254.39 676.97
00004481 00000016 1042.66 207.50 431.65 616.16 1120.12 435.56 1297.83 470.78 1149.89 557.21 1101.76 647.30 1252.66 677.38
00004482 00000017 1038.76 205.62 433.85 611.81 1114.92 432.93 1291.09 466.97 1142.78 550.40 1098.50 645.25 1244.37 674.25
00004483 DELETE   1033.21 201.53 436.34 609.55 1106.94 426.53 1278.17 457.05 1130.83 539.01 1091.41 643.52 1230.71 668.39
00004484 DELETE   1023.29 184.43 435.40 628.14 1085.75 415.63 1254.59 456.84 1095.31 530.93 1073.40 636.81 1200.01 671.31
00004485 DELETE   1013.69 167.60 441.21 638.17 1077.10 408.16 1232.99 446.34 1066.41 512.18 1062.51 624.19 1181.94 655.83
00004486 00000021 1008.54 169.71 433.87 616.86 1068.09 405.02 1216.48 429.38 1044.39 500.19 1040.10 621.09 1161.49 639.80
00004487 00000022 1004.15 170.09 436.77 614.47 1059.60 398.28 1212.13 421.08 1039.22 498.00 1035.14 617.21 1162.25 634.57
00004488 00000023 1005.56 167.26 439.05 612.68 1060.88 396.68 1211.31 417.04 1038.70 495.34 1039.48 614.85 1166.65 629.90
00004489 00000024 1017.06 159.09 433.50 629.04 1060.32 398.89 1201.73 415.79 1038.06 496.30 1044.82 615.86 1160.69 629.76
00004490 00000025 1015.20 161.01 435.47 648.36 1069.16 398.15 1211.63 415.09 1047.58 494.54 1053.27 621.13 1173.22 634.80
00004491 00000026 1016.36 164.72 433.74 645.72 1070.05 397.13 1216.13 414.18 1052.44 494.29 1055.18 620.81 1179.93 634.55
00004492 00000027 1014.83 162.67 433.56 644.72 1065.42 397.97 1212.13 412.80 1048.99 494.79 1053.36 620.01 1178.13 632.03
00004493 00000028 1003.60 168.54 434.39 618.01 1059.93 397.38 1210.85 412.08 1045.13 494.34 1044.04 616.87 1174.78 627.34
00004494 00000029 1003.46 163.27 442.59 618.24 1055.42 400.53 1211.65 422.38 1033.30 506.05 1038.93 617.79 1169.66 634.18
00004495 00000030 999.11 163.32 444.46 617.35 1047.76 400.21 1204.10 423.52 1027.39 509.23 1033.80 617.14 1163.39 635.23
00004496 00000031 994.48 167.84 437.22 613.67 1041.32 400.87 1191.28 417.50 1025.47 503.01 1030.79 618.42 1153.14 630.72
00004497 00000032 990.40 167.16 439.47 626.22 1041.47 401.02 1190.01 416.51 1022.80 503.74 1026.05 624.94 1147.07 636.45
00004498 00000033 997.07 167.83 433.41 645.45 1034.33 406.52 1184.85 420.76 1025.65 509.37 1027.86 636.14 1142.76 649.12
00004499 00000034 995.62 169.49 430.63 649.39 1035.07 407.72 1186.69 424.66 1024.62 512.44 1029.59 636.97 1151.47 651.92
00004500 00000035 995.04 170.26 430.26 652.84 1033.12 408.76 1186.15 426.15 1023.75 515.53 1029.02 639.26 1154.46 654.57
00004501 00000036 993.94 171.80 432.64 651.31 1031.71 409.33 1186.35 426.77 1023.29 516.79 1028.60 640.95 1154.56 656.15
00004502 00000037 994.72 176.89 431.14 644.00 1031.01 410.04 1187.49 428.01 1026.22 518.84 1027.65 642.25 1153.56 657.93
00004503 00000038 987.13 178.53 436.44 631.32 1039.22 414.00 1187.78 425.12 1026.25 516.38 1030.99 641.21 1153.08 649.19
00004504 00000039 988.50 177.90 434.31 632.74 1038.56 415.80 1187.38 425.35 1025.36 515.74 1029.96 643.41 1151.34 650.31
00004505 00000040 987.58 179.04 434.81 633.95 1038.37 416.07 1187.35 427.07 1025.24 517.84 1030.08 644.35 1151.42 652.46
00004506 00000041 988.59 180.26 432.83 625.42 1037.48 415.24 1187.67 428.09 1026.13 519.12 1028.43 642.54 1150.32 652.11
00004507 00000042 988.06 180.27 434.15 623.75 1037.24 416.09 1187.39 430.36 1025.62 520.84 1027.96 642.10 1150.95 652.67
00004508 00000043 987.54 181.06 435.78 625.17 1037.94 417.37 1187.12 431.36 1025.08 521.46 1028.97 642.38 1152.68 652.59
00004509 00000044 993.64 189.86 431.93 614.52 1034.31 421.30 1191.54 436.89 1037.64 527.99 1030.84 642.14 1159.81 657.05
00004510 00000045 987.73 180.08 434.72 622.93 1037.74 416.64 1189.31 432.90 1028.66 523.29 1028.27 640.24 1153.77 652.42
00004511 00000046 986.92 181.62 434.92 622.47 1037.84 415.95 1190.00 433.22 1029.91 524.36 1028.46 639.22 1155.16 652.15
00004512 00000047 987.36 182.45 435.23 619.87 1038.86 414.55 1191.14 433.01 1030.54 524.44 1028.72 638.11 1155.38 651.97
00004513 00000048 995.32 181.23 431.66 628.35 1031.63 411.24 1187.57 435.31 1029.51 529.97 1027.46 640.66 1150.18 661.47
00004514 00000049 998.64 177.86 429.31 631.15 1034.48 412.55 1188.61 435.67 1033.02 531.73 1032.02 643.14 1151.79 663.05
00004515 00000050 999.93 181.46 429.89 633.43 1038.28 419.12 1190.87 438.14 1038.37 535.72 1038.44 649.94 1156.30 666.25
00004516 00000051 1001.57 187.50 431.82 637.23 1046.60 432.92 1200.84 446.30 1050.41 544.22 1049.38 652.91 1176.73 665.39
00004517 00000052 1002.48 185.22 435.04 635.86 1039.80 430.01 1195.03 445.27 1045.18 549.66 1050.00 655.62 1177.72 668.27
00004518 00000053 998.53 185.81 438.24 627.25 1042.92 436.06 1201.48 447.51 1045.57 546.93 1056.14 654.07 1182.31 662.73
00004519 00000054 999.99 190.60 438.23 620.91 1043.37 436.86 1203.13 448.93 1045.14 545.92 1054.41 653.94 1180.83 663.22
00004520 00000055 1004.36 181.47 439.54 628.04 1050.13 434.34 1210.68 449.99 1049.74 540.57 1055.94 651.21 1179.82 663.82
00004521 00000056 1012.03 176.38 439.55 635.86 1058.68 430.93 1216.54 444.46 1058.20 537.72 1065.92 654.45 1181.53 665.64
00004522 00000057 1018.24 183.67 436.22 628.75 1063.43 428.08 1222.00 445.04 1061.79 538.59 1069.62 652.99 1187.01 666.82
00004523 00000058 1019.45 184.47 434.41 626.14 1064.11 429.38 1222.68 444.78 1063.64 539.64 1072.51 652.18 1193.11 664.59
00004524 00000059 1023.24 176.43 431.29 636.91 1062.14 433.73 1213.81 443.31 1065.57 547.42 1073.48 654.62 1194.88 661.11
00004525 00000060 1019.24 178.35 436.41 638.28 1060.21 441.58 1208.99 449.24 1061.75 552.99 1073.12 658.54 1193.81 663.38
00004526 00000061 1015.38 194.02 442.46 643.17 1059.21 451.09 1214.13 458.24 1063.18 564.90 1070.02 668.38 1199.94 674.29
00004527 00000062 1018.15 195.41 435.84 641.55 1062.77 450.24 1215.04 459.02 1066.95 564.38 1071.64 669.29 1197.87 676.81
00004528 00000063 1019.35 196.20 438.57 644.01 1065.92 449.17 1219.23 460.18 1068.78 567.20 1072.85 668.04 1202.58 676.60
00004529 00000064 1023.67 196.36 436.70 633.03 1063.68 444.99 1225.55 459.08 1064.46 561.82 1078.98 664.89 1208.33 675.32
00004530 00000065 1027.83 194.39 430.70 633.79 1067.52 444.08 1229.26 460.88 1070.19 561.75 1079.30 663.73 1206.38 676.89
00004531 00000066 1028.74 192.55 430.51 640.14 1069.06 443.26 1227.23 460.67 1068.02 560.47 1079.46 664.00 1204.03 677.64
00004532 00000067 1026.47 187.52 430.29 639.94 1064.41 443.91 1222.89 457.39 1062.60 559.50 1076.69 665.83 1198.88 676.32
00004533 00000068 1016.47 189.04 436.96 644.21 1058.14 448.80 1211.23 457.71 1062.91 561.96 1067.98 669.06 1190.64 677.41
00004534 00000069 999.96 185.36 445.98 633.50 1039.60 438.10 1202.93 449.76 1038.61 557.30 1061.08 663.46 1185.81 672.03
00004535 00000070 996.42 186.24 443.44 634.86 1032.09 438.92 1184.18 445.78 1034.00 547.96 1043.56 656.89 1168.97 663.51
00004536 00000071 994.34 171.82 435.49 649.83 1022.51 423.37 1172.89 438.06 1017.63 539.81 1033.26 651.87 1152.70 664.79
00004537 00000072 991.03 177.97 433.54 644.08 1016.55 419.70 1164.41 430.07 1009.83 536.23 1029.01 655.75 1142.07 665.15
00004538 00000073 987.06 177.63 433.70 650.87 1013.49 416.64 1161.76 423.53 1003.64 528.83 1025.73 656.74 1138.90 663.22
00004539 00000074 976.29 166.29 439.65 659.50 1020.80 418.12 1158.50 414.60 999.01 517.83 1024.28 653.45 1134.48 648.55
00004540 00000075 970.86 162.36 435.60 658.02 1013.27 420.37 1152.53 415.45 995.80 514.92 1015.69 648.68 1128.26 642.86
00004541 00000076 964.36 173.99 432.43 636.56 997.32 413.54 1148.27 418.36 981.41 517.00 1006.67 640.01 1125.46 644.32
00004542 00000077 967.39 171.41 432.30 640.32 1001.03 412.43 1149.90 419.45 984.18 518.42 1010.52 639.50 1127.42 645.54
00004543 00000078 973.44 162.86 436.24 654.45 1013.42 419.91 1156.35 415.31 996.76 519.00 1019.47 647.00 1137.44 641.22
00004544 00000079 985.60 165.30 435.38 650.88 1011.71 415.54 1159.17 423.26 1000.92 531.57 1023.63 649.26 1136.44 656.79
00004545 00000080 990.53 171.80 437.97 652.42 1019.76 417.62 1165.41 423.39 1010.15 531.22 1031.59 651.98 1143.57 657.92
00004546 00000081 996.36 171.87 436.21 653.77 1027.09 415.65 1174.46 419.38 1019.45 524.14 1035.70 649.77 1147.88 654.10
00004547 00000082 1007.81 171.07 427.98 655.21 1035.82 412.83 1181.71 413.67 1026.77 518.92 1044.64 648.18 1159.91 649.78
00004548 00000083 1010.43 166.70 425.81 652.04 1044.05 412.34 1188.57 411.24 1031.23 512.13 1047.52 642.40 1165.31 642.29
00004549 00000084 1016.88 165.44 422.59 640.61 1050.01 411.54 1193.43 413.68 1034.58 508.95 1047.51 634.16 1165.24 636.64
00004550 00000085 1020.22 166.09 420.96 624.56 1050.96 407.18 1196.20 409.70 1036.40 503.43 1045.90 626.57 1164.11 629.38
00004551 00000086 1021.77 164.27 420.08 620.23 1053.27 408.09 1195.86 411.01 1038.21 500.93 1045.69 621.65 1160.74 624.86
00004552 00000087 1023.89 167.48 417.47 618.07 1055.29 408.22 1197.31 411.64 1042.13 502.74 1047.44 622.58 1159.09 626.21
00004553 00000088 1026.19 170.79 417.08 627.46 1056.63 409.21 1198.74 414.16 1042.38 508.66 1052.15 629.32 1163.01 633.93
00004554 00000089 1029.58 171.24 419.13 637.39 1057.67 412.21 1197.85 417.29 1041.96 517.02 1057.94 638.74 1166.07 642.95
00004555 00000090 1026.63 173.29 423.50 647.56 1056.62 414.64 1196.05 419.02 1039.72 521.94 1058.47 646.24 1165.82 649.84
00004556 00000091 1023.83 170.19 421.38 655.44 1056.98 415.81 1190.06 417.90 1037.02 521.20 1056.81 649.69 1157.33 651.56
00004557 00000092 1017.42 168.77 420.54 657.19 1051.74 413.98 1185.05 413.34 1033.61 514.21 1052.34 648.24 1153.37 648.47
00004558 00000093 1015.12 168.44 423.93 655.36 1049.73 412.62 1185.26 407.64 1033.11 509.85 1046.80 648.19 1149.38 645.18
00004559 00000094 1019.45 162.10 422.85 642.44 1052.43 407.67 1189.36 402.89 1031.33 498.86 1046.64 638.07 1148.23 634.55
00004560 00000095 1021.50 148.98 423.07 635.90 1054.56 405.95 1198.96 402.24 1039.52 492.59 1047.97 626.08 1158.38 623.94
00004561 00000096 1025.04 156.77 424.52 624.13 1056.28 405.23 1208.83 404.24 1053.50 494.56 1053.64 624.28 1172.50 623.89
00004562 00000097 1021.29 170.23 424.56 620.06 1062.05 407.32 1220.65 408.79 1058.91 504.22 1067.68 634.44 1189.06 635.30
00004563 00000098 1021.71 172.05 428.45 612.75 1060.62 410.23 1222.34 413.77 1062.17 509.71 1071.06 631.78 1192.23 635.19
00004564 00000099 1017.56 167.76 427.30 612.78 1057.59 407.80 1219.29 414.71 1056.23 507.33 1064.49 627.43 1185.81 633.66
00004565 00000100 1019.84 166.15 425.25 610.75 1053.17 406.83 1205.74 411.36 1049.07 500.59 1046.84 621.25 1171.78 625.53
00004566 00000101 1019.67 167.55 421.71 610.52 1051.53 405.87 1201.87 410.68 1045.55 501.23 1044.65 620.13 1168.18 624.95
00004567 00000102 1014.20 171.72 423.68 612.35 1056.20 401.95 1205.85 409.26 1040.09 505.17 1055.51 626.89 1174.43 631.81
00004568 00000103 1009.16 175.78 425.60 607.56 1050.47 412.08 1204.83 410.48 1037.36 503.18 1043.65 634.72 1173.67 632.20
00004569 00000104 1020.90 170.75 420.74 613.81 1053.54 406.41 1201.13 415.42 1043.43 509.09 1048.51 624.75 1169.07 632.61
00004570 00000105 1020.86 171.38 420.05 614.39 1054.35 406.46 1200.51 415.12 1042.75 508.82 1048.71 625.27 1168.17 632.75
00004571 00000106 1010.41 174.60 425.00 609.49 1053.01 411.13 1205.11 411.59 1037.26 504.15 1045.43 634.70 1172.21 633.88
00004572 00000107 1010.73 175.28 423.88 609.48 1053.21 410.86 1204.84 409.83 1037.41 501.97 1044.21 634.66 1171.32 632.66
00004573 00000108 1011.05 174.98 424.67 609.85 1053.03 410.76 1205.29 409.82 1037.91 502.14 1044.59 634.16 1172.55 632.15
00004574 00000109 1011.69 174.05 424.84 609.44 1054.38 410.41 1205.54 409.52 1038.31 501.66 1046.06 633.66 1172.24 631.66
00004575 00000110 1011.23 176.79 425.06 611.06 1054.90 410.99 1205.25 408.98 1038.32 501.33 1046.98 635.35 1172.53 632.64
00004576 00000111 1023.53 174.45 419.75 617.65 1056.74 408.05 1201.13 411.94 1045.96 505.23 1050.57 629.73 1165.61 633.16
00004577 00000112 1023.86 174.36 419.23 617.45 1057.00 408.05 1201.50 412.33 1046.88 505.39 1050.56 629.18 1165.70 633.01
00004578 00000113 1011.21 180.14 426.03 610.95 1056.85 411.36 1206.39 408.74 1040.26 500.56 1047.64 636.76 1172.01 633.78
00004579 00000114 1010.87 184.10 424.50 601.91 1057.72 409.57 1206.64 409.84 1042.04 501.36 1047.98 633.48 1171.95 632.68
00004580 00000115 1023.13 179.40 419.27 609.83 1056.38 407.12 1204.99 413.11 1048.81 506.32 1050.74 627.59 1169.33 632.80
00004581 00000116 1024.03 178.77 419.34 627.44 1060.03 407.89 1206.68 408.98 1052.12 506.25 1057.26 636.62 1173.71 637.68
00004582 00000117 1024.72 171.02 419.71 649.45 1065.40 408.10 1215.00 406.47 1062.62 507.22 1068.36 638.08 1192.94 636.19
00004583 00000118 1027.29 165.21 431.05 630.45 1071.65 409.04 1235.80 414.62 1076.97 510.27 1082.79 633.74 1217.55 638.10
00004584 DELETE   1037.06 162.29 434.83 619.52 1085.59 408.77 1263.83 412.04 1107.27 506.89 1089.08 626.97 1241.70 630.43
00004585 DELETE   1055.74 166.79 429.17 612.16 1105.67 405.16 1282.90 410.01 1135.43 512.31 1111.51 622.83 1268.61 627.83
00004586 DELETE   1057.77 179.43 435.73 618.77 1117.17 412.43 1308.77 410.09 1162.22 515.94 1128.10 634.49 1300.81 631.60
00004587 00000122 1064.84 181.60 435.69 633.71 1123.41 413.91 1317.52 404.59 1172.11 517.11 1140.64 647.45 1308.30 639.17
00004588 00000123 1065.41 186.83 432.05 635.80 1125.58 414.08 1316.70 406.58 1171.63 516.21 1141.33 651.26 1307.58 644.40
00004589 00000124 1060.48 188.15 433.37 648.68 1122.82 410.22 1308.26 405.39 1161.46 513.47 1136.00 647.34 1302.79 642.41
00004590 00000125 1064.07 181.01 424.59 634.48 1114.00 405.21 1288.00 405.87 1140.32 515.25 1127.06 640.65 1276.21 641.75
00004591 00000126 1061.39 178.42 419.96 629.63 1108.51 401.89 1274.67 409.07 1117.57 506.76 1111.58 634.09 1253.69 641.02
00004592 00000127 1052.82 174.86 419.26 620.15 1096.46 403.17 1265.14 412.14 1102.57 506.23 1093.91 629.94 1233.66 638.65
00004593 00000128 1042.69 174.49 430.01 628.54 1090.16 403.43 1256.02 413.45 1091.68 506.70 1085.90 631.15 1219.91 640.55
00004594 00000129 1038.48 177.42 432.68 626.82 1086.38 402.38 1251.67 414.40 1085.80 509.17 1081.70 632.73 1212.24 643.66
00004595 00000130 1042.31 189.55 429.09 614.96 1086.64 406.33 1250.19 418.72 1090.63 518.73 1085.39 638.37 1208.90 649.49
00004596 00000131 1047.94 189.23 431.48 621.34 1088.47 410.17 1256.38 425.86 1097.42 531.89 1090.08 645.46 1219.87 659.45
00004597 00000132 1052.64 189.97 424.32 618.43 1091.88 414.98 1257.79 433.03 1102.36 542.25 1098.06 647.72 1228.72 663.35
00004598 00000133 1054.72 196.06 420.21 614.05 1093.86 419.47 1257.14 435.27 1104.91 545.92 1101.09 651.07 1229.46 664.99
00004599 00000134 1051.14 198.35 423.14 612.09 1091.29 419.11 1255.81 435.52 1102.84 544.64 1097.72 650.06 1227.42 664.36
00004600 00000135 1044.64 200.80 423.49 611.52 1087.56 417.76 1255.12 437.14 1102.28 542.27 1093.71 649.08 1223.33 665.61
00004601 00000136 1040.26 191.27 422.63 619.15 1083.47 415.20 1248.62 434.35 1093.92 538.25 1088.51 646.26 1213.80 662.61
00004602 00000137 1035.23 192.07 426.97 619.49 1079.17 410.35 1242.18 429.72 1086.79 535.59 1085.35 644.14 1207.57 660.58
00004603 00000138 1033.82 188.15 423.76 624.23 1076.76 411.14 1238.80 428.95 1083.04 532.99 1082.92 644.68 1204.11 659.88
00004604 00000139 1033.93 188.72 421.17 620.94 1075.60 411.00 1237.46 428.82 1082.53 533.44 1082.98 644.37 1202.94 659.48
00004605 00000140 1034.09 188.78 420.52 620.48 1075.75 412.65 1236.82 429.86 1083.04 534.37 1083.38 645.13 1203.13 659.77
00004606 00000141 1034.16 192.22 417.65 617.91 1076.10 415.98 1235.31 432.06 1083.53 536.71 1084.19 647.46 1203.30 661.03
00004607 00000142 1031.70 193.33 420.11 617.65 1074.23 420.03 1235.38 434.57 1083.87 539.67 1083.92 651.35 1205.35 663.57
00004608 00000143 1031.70 196.35 419.79 614.33 1073.37 420.85 1233.96 435.22 1081.97 542.57 1083.99 653.73 1204.41 665.59
00004609 00000144 1031.57 195.30 419.70 611.31 1073.09 421.99 1233.32 437.58 1081.91 543.64 1083.30 654.26 1202.66 667.06
00004610 00000145 1031.32 196.48 422.17 611.79 1072.10 422.49 1233.07 437.69 1080.90 544.99 1083.12 654.99 1202.67 667.48
00004611 00000146 1032.11 198.87 420.63 611.02 1072.34 423.47 1233.74 438.38 1081.51 545.75 1083.66 655.61 1203.59 667.93
00004612 00000147 1032.83 196.69 421.51 609.97 1072.47 422.55 1233.21 438.86 1082.29 545.86 1083.19 654.38 1202.61 667.86
00004613 00000148 1032.28 198.13 422.34 608.47 1072.23 422.44 1234.95 438.36 1084.16 546.53 1084.22 655.38 1204.34 668.54
00004614 00000149 1030.14 198.36 423.17 611.00 1072.31 421.94 1234.18 438.37 1083.15 545.78 1083.45 653.31 1205.08 666.90
00004615 00000150 1028.82 198.54 421.56 609.55 1070.91 424.32 1232.18 437.50 1079.59 543.54 1082.00 654.29 1203.00 665.09
00004616 00000151 1026.47 191.06 427.72 614.57 1067.18 422.48 1229.28 436.74 1072.56 541.25 1077.98 652.06 1197.84 663.87
00004617 00000152 1020.26 183.78 427.35 623.60 1065.15 422.21 1224.39 436.24 1066.39 533.86 1071.85 650.97 1186.17 662.86
00004618 00000153 1016.21 192.57 428.30 619.16 1062.28 424.33 1220.07 436.48 1063.85 535.66 1070.76 654.66 1182.14 664.63
00004619 00000154 1016.49 190.78 427.52 614.62 1062.21 425.09 1223.61 436.21 1069.45 537.99 1072.89 655.88 1186.70 665.07
00004620 00000155 1020.37 195.54 431.19 610.83 1063.09 428.38 1229.10 437.12 1073.91 544.07 1077.78 659.26 1198.42 666.45
00004621 00000156 1022.39 196.17 432.37 611.56 1067.59 429.58 1234.58 438.41 1084.78 549.69 1085.33 658.62 1212.58 665.93
00004622 00000157 1023.53 193.37 434.18 623.59 1071.22 430.47 1237.07 438.93 1088.98 549.97 1088.66 659.39 1216.91 666.52
00004623 00000158 1023.51 190.19 428.32 620.79 1070.94 427.56 1235.41 437.19 1087.60 547.27 1087.65 656.56 1214.30 664.60
00004624 00000159 1020.83 186.75 425.05 623.81 1066.50 428.78 1230.86 437.61 1079.77 544.89 1082.29 656.23 1206.63 663.73
00004625 00000160 1014.08 185.75 431.89 618.49 1061.22 425.22 1225.71 438.20 1070.83 542.67 1075.19 654.17 1197.84 664.64
00004626 00000161 1010.63 189.95 436.38 613.02 1056.29 426.15 1220.45 438.91 1064.27 540.58 1068.38 652.10 1188.72 662.49
00004627 00000162 1010.23 187.50 434.04 615.36 1056.66 425.65 1219.96 438.26 1063.56 538.32 1067.08 650.80 1187.42 661.12
