Video ID: 	A2KEQDraEYA
H: 	1080
W: 	1920
FPS: 	25.0

FRAME INDEX X0 Y0 W H [Landmarks (5 Points)]

00002995 00000000 1066.40 160.75 465.01 738.27 1220.28 441.60 1436.58 440.26 1357.52 583.77 1244.89 701.86 1428.99 700.77
00002996 00000001 1062.61 161.40 462.85 736.79 1215.12 442.30 1429.80 441.53 1350.35 584.57 1237.78 701.45 1421.18 701.09
00002997 00000002 1059.54 162.09 462.04 739.80 1209.44 445.12 1423.51 442.43 1343.66 587.54 1233.09 704.38 1417.09 702.47
00002998 00000003 1055.81 164.37 463.30 736.34 1205.54 444.49 1421.01 442.45 1339.52 586.07 1227.95 703.27 1413.37 701.86
00002999 00000004 1054.09 163.08 464.47 736.87 1203.63 443.59 1418.82 442.66 1337.08 584.99 1225.27 702.14 1410.99 701.58
00003000 00000005 1052.18 161.69 466.95 737.11 1201.35 441.42 1417.32 442.76 1332.70 583.46 1220.32 699.54 1408.18 700.82
00003001 00000006 1044.63 162.35 472.18 734.42 1197.87 444.17 1410.76 442.92 1325.11 583.55 1220.40 705.16 1399.70 701.97
00003002 00000007 1039.02 161.04 470.56 736.37 1184.92 445.67 1401.37 445.08 1310.75 586.06 1206.90 705.63 1390.99 703.03
00003003 00000008 1029.28 165.08 469.33 726.62 1156.03 445.13 1380.14 444.61 1275.52 585.02 1178.29 703.68 1366.23 701.80
00003004 DELETE   1010.00 166.38 479.03 726.64 1121.50 449.41 1339.51 452.17 1216.63 587.32 1135.61 696.40 1321.01 699.18
00003005 DELETE   992.13 168.60 481.48 719.60 1087.44 448.29 1305.30 451.11 1171.38 594.47 1103.72 699.90 1283.96 703.31
00003006 00000011 985.18 163.08 479.42 728.81 1058.13 455.21 1275.88 454.01 1131.37 596.42 1082.68 706.75 1265.09 706.11
00003007 00000012 975.80 179.83 479.21 714.59 1043.18 456.48 1243.29 448.28 1106.63 595.18 1075.01 706.17 1246.07 699.03
00003008 00000013 970.81 178.38 473.87 715.46 1035.54 456.56 1229.39 444.14 1095.39 595.12 1071.94 707.65 1238.95 696.58
00003009 00000014 965.06 175.78 473.37 716.04 1027.18 458.28 1220.37 436.05 1089.80 592.56 1071.59 711.66 1235.12 692.51
00003010 00000015 959.64 174.51 477.14 715.80 1023.06 459.66 1217.48 430.78 1089.29 592.43 1075.47 713.65 1237.35 688.64
00003011 00000016 952.88 177.72 484.04 709.82 1018.26 461.91 1213.67 426.63 1087.76 590.48 1078.08 714.02 1241.91 683.23
00003012 00000017 947.21 176.61 486.99 707.97 1014.40 463.31 1208.25 425.69 1084.25 589.05 1077.80 712.93 1240.47 680.17
00003013 00000018 945.26 175.46 483.93 709.18 1012.39 461.39 1204.38 424.68 1079.63 584.76 1073.38 711.31 1234.65 679.50
00003014 00000019 945.58 170.57 482.45 715.36 1011.71 456.80 1204.83 423.43 1076.60 582.56 1068.99 711.52 1228.96 682.87
00003015 00000020 949.58 169.37 481.58 719.59 1014.60 452.60 1207.04 424.69 1075.14 582.40 1066.49 710.20 1225.42 686.32
00003016 00000021 875.24 177.40 339.72 509.95 921.65 365.40 1054.32 355.08 961.59 457.83 955.52 548.94 1066.32 541.86
00003017 00000022 874.53 176.11 338.62 513.81 920.51 363.73 1054.65 356.58 959.54 457.82 952.12 551.61 1062.39 547.26
00003018 00000023 874.54 172.40 338.31 522.81 920.65 361.38 1054.88 359.18 956.94 458.09 949.04 552.34 1059.05 551.96
00003019 00000024 876.58 173.78 338.58 523.73 921.43 360.68 1055.60 360.58 955.83 458.04 948.34 553.65 1057.94 554.95
00003020 00000025 877.40 173.65 338.37 525.01 922.07 361.28 1055.42 361.79 954.62 457.44 948.43 554.59 1057.80 556.38
00003021 00000026 877.47 174.88 338.77 523.71 922.80 363.32 1055.17 363.66 955.08 460.15 949.21 555.84 1057.63 557.52
00003022 00000027 876.67 175.34 340.03 521.79 922.79 366.03 1054.58 365.87 954.91 464.52 949.89 556.88 1057.42 558.09
00003023 00000028 876.90 176.75 340.79 518.32 923.70 366.22 1055.60 365.88 956.58 465.32 951.09 556.09 1057.66 557.27
00003024 00000029 876.53 174.67 341.49 516.92 924.16 363.78 1057.36 363.65 958.60 463.25 949.59 553.44 1057.73 554.94
00003025 00000030 876.46 173.06 341.92 516.15 924.78 361.10 1058.85 362.27 959.84 460.13 947.39 549.06 1057.96 551.59
00003026 00000031 877.13 171.55 341.11 515.38 925.13 359.40 1060.29 360.63 960.74 458.00 946.24 546.65 1057.76 549.20
00003027 00000032 876.95 172.39 342.02 513.13 925.87 359.27 1061.91 361.47 962.43 458.64 945.52 546.08 1057.50 549.40
00003028 00000033 877.80 173.32 340.87 511.32 926.56 358.80 1062.64 361.30 963.92 459.54 945.35 545.45 1057.11 549.08
00003029 00000034 877.44 172.04 341.24 511.38 926.56 358.07 1063.87 360.23 965.37 459.35 945.83 545.68 1058.05 548.96
00003030 00000035 877.78 171.59 340.91 511.02 926.90 357.68 1065.07 358.56 967.11 457.35 946.93 545.52 1059.87 547.69
00003031 00000036 878.92 169.94 341.25 514.47 928.26 355.87 1068.71 356.16 970.97 454.43 949.60 546.61 1061.66 548.39
00003032 00000037 879.69 166.22 342.10 513.28 929.60 353.96 1072.83 354.42 974.30 452.46 949.60 543.37 1063.97 545.22
00003033 00000038 884.71 164.63 339.43 510.51 934.31 352.22 1076.44 353.92 978.52 453.91 951.36 540.45 1063.63 543.66
00003034 00000039 890.17 158.53 338.43 518.05 941.65 352.87 1087.55 358.02 986.89 453.56 954.64 540.58 1070.55 547.28
00003035 00000040 895.63 157.25 339.42 523.10 950.59 349.14 1099.18 356.40 996.94 449.85 962.91 543.32 1077.53 552.16
00003036 00000041 898.95 153.48 339.16 526.00 955.28 344.44 1103.53 348.77 1004.53 445.73 969.18 545.95 1077.89 553.01
00003037 00000042 899.90 150.88 340.79 526.54 958.51 344.55 1110.13 348.88 1012.09 447.46 974.80 549.49 1081.93 556.48
00003038 00000043 901.20 151.96 341.17 528.68 962.02 347.73 1114.28 353.31 1019.33 454.46 980.58 555.27 1086.26 562.70
00003039 00000044 903.23 151.94 342.72 532.17 967.31 351.93 1120.38 357.15 1026.00 457.85 985.63 558.38 1092.55 565.49
00003040 00000045 893.09 151.87 352.18 540.18 967.35 354.71 1126.21 356.18 1027.17 458.39 989.84 563.30 1097.05 566.54
00003041 00000046 895.30 152.88 351.64 540.00 968.97 356.41 1128.40 358.54 1030.16 460.45 990.66 562.82 1101.06 566.57
00003042 00000047 897.64 153.49 351.41 539.13 971.08 356.20 1131.01 360.03 1031.96 461.33 990.61 561.63 1103.27 566.77
00003043 00000048 897.92 154.15 352.05 537.88 972.77 357.61 1132.90 361.44 1034.17 460.32 991.65 560.32 1105.75 565.43
00003044 00000049 899.85 152.95 351.11 537.15 974.93 355.77 1134.42 361.19 1036.47 458.81 991.65 555.88 1109.00 562.43
00003045 00000050 900.38 152.44 350.78 533.92 976.15 354.10 1135.48 359.64 1038.06 455.39 992.23 551.36 1110.45 558.19
00003046 00000051 903.21 155.70 349.29 527.16 981.72 355.12 1140.15 364.26 1047.39 452.75 989.86 545.31 1114.50 553.99
00003047 00000052 904.01 155.73 347.42 524.50 983.82 354.41 1140.69 363.59 1047.97 451.24 990.67 542.41 1115.33 550.99
00003048 00000053 903.56 154.56 348.05 525.25 984.41 353.76 1141.13 363.08 1048.70 450.41 991.19 541.40 1115.63 550.06
00003049 00000054 902.89 154.12 348.76 525.82 983.32 353.36 1140.45 362.53 1048.09 450.14 990.44 541.11 1115.76 549.63
00003050 00000055 907.95 149.71 349.88 528.47 976.54 350.14 1141.04 354.39 1045.28 452.75 992.01 546.89 1119.55 552.26
00003051 00000056 907.42 152.18 350.04 528.53 977.31 352.47 1142.18 356.71 1047.36 455.67 992.12 548.60 1121.24 554.01
00003052 00000057 909.23 151.33 348.41 532.78 979.10 355.42 1143.57 360.42 1049.37 461.10 993.26 551.74 1123.67 557.46
00003053 00000058 904.21 152.86 347.46 534.90 980.90 357.27 1139.11 363.03 1043.78 461.96 996.84 554.85 1118.48 561.58
00003054 00000059 903.50 152.23 348.63 535.59 982.17 356.93 1140.08 363.11 1046.07 461.73 998.13 554.38 1118.65 561.53
00003055 00000060 902.05 152.12 349.53 536.04 981.85 357.30 1140.30 363.20 1045.70 460.51 998.53 556.47 1115.13 563.30
00003056 00000061 901.56 151.89 347.48 537.33 980.90 359.93 1138.93 363.10 1044.32 461.19 1000.33 559.67 1114.59 564.19
00003057 00000062 909.64 152.92 346.28 534.33 981.79 358.21 1142.47 365.12 1049.22 465.94 994.50 554.59 1119.68 562.05
00003058 00000063 909.62 154.13 345.94 533.58 982.50 357.93 1142.49 365.19 1049.59 466.75 993.61 554.50 1117.86 562.54
00003059 00000064 900.67 154.80 346.12 538.21 980.46 356.89 1138.72 362.44 1041.82 458.81 997.29 559.64 1110.76 566.27
00003060 00000065 907.33 153.90 347.16 529.06 979.14 356.31 1142.84 363.22 1048.20 463.18 991.77 553.05 1118.79 560.63
00003061 00000066 903.73 153.51 347.77 526.15 976.26 357.21 1140.25 364.23 1045.33 462.80 989.18 552.40 1117.19 560.29
00003062 00000067 900.98 154.65 343.83 524.37 970.46 358.51 1129.72 366.15 1036.16 461.70 983.34 548.57 1112.03 557.16
00003063 00000068 898.80 156.58 341.07 524.00 966.00 359.57 1124.04 365.97 1030.43 459.74 976.11 546.20 1106.46 554.23
00003064 00000069 891.44 161.25 345.70 522.14 960.88 361.04 1121.22 368.09 1025.45 461.52 971.74 547.86 1101.29 556.28
00003065 00000070 888.94 160.52 345.79 522.28 959.30 362.99 1119.86 369.09 1024.79 462.17 970.18 548.47 1099.50 555.95
00003066 00000071 888.20 157.97 344.11 524.41 959.78 361.80 1118.34 364.85 1027.67 462.06 973.09 549.17 1101.34 554.06
00003067 00000072 889.54 155.72 344.36 526.49 960.74 358.50 1121.05 361.74 1030.45 461.38 975.63 550.00 1103.77 554.73
00003068 00000073 889.15 155.81 345.88 526.82 962.73 357.08 1124.96 360.52 1035.52 461.26 979.08 551.24 1106.33 555.93
00003069 00000074 890.03 155.87 346.55 528.45 966.26 355.56 1128.69 360.86 1039.47 460.39 981.39 550.84 1108.33 557.08
00003070 00000075 890.73 154.73 347.95 529.19 968.51 355.04 1132.09 360.90 1042.89 458.71 983.61 550.07 1111.29 556.67
00003071 00000076 891.53 153.92 350.72 531.65 971.00 355.40 1136.74 360.76 1047.70 458.16 986.93 551.52 1114.87 557.55
00003072 00000077 893.29 154.85 352.20 532.14 974.39 356.82 1141.17 361.15 1053.02 459.09 991.25 554.17 1119.25 559.12
00003073 00000078 897.96 152.57 350.00 537.39 978.38 360.43 1144.73 365.40 1055.73 464.71 993.21 558.09 1124.19 563.33
00003074 00000079 900.74 152.18 349.57 538.90 984.85 361.78 1147.85 368.57 1062.34 470.23 998.53 559.71 1127.73 566.01
00003075 00000080 904.07 151.31 347.21 539.05 989.15 362.76 1149.87 372.65 1066.85 471.80 1000.34 557.49 1130.94 566.05
00003076 00000081 904.59 151.14 348.74 538.18 993.04 362.29 1153.58 374.94 1072.37 475.13 1002.54 556.35 1133.89 566.89
00003077 00000082 905.53 151.83 348.11 537.75 994.35 363.12 1154.76 376.41 1073.68 475.99 1003.09 556.34 1135.49 567.40
00003078 00000083 905.65 153.39 347.29 536.96 994.67 364.32 1153.50 377.38 1072.87 477.16 1003.10 556.52 1134.76 567.44
00003079 00000084 904.26 156.72 346.61 538.16 989.40 367.31 1147.05 378.13 1062.18 475.79 997.47 557.45 1129.67 566.87
00003080 00000085 898.56 159.98 347.68 535.70 978.57 367.25 1141.27 375.13 1048.07 471.96 988.60 558.90 1122.99 566.35
00003081 00000086 893.05 162.22 344.32 531.77 968.32 367.75 1127.48 372.69 1036.32 467.21 981.49 556.33 1110.79 562.19
00003082 00000087 884.82 166.83 344.41 525.17 956.07 366.91 1112.59 371.56 1019.48 467.29 969.39 555.05 1095.06 561.25
00003083 00000088 877.39 170.19 345.59 521.99 947.21 370.37 1098.82 375.07 1006.45 470.16 961.34 557.98 1083.31 563.69
00003084 00000089 874.54 171.45 344.71 521.34 941.90 373.98 1091.11 378.64 998.19 475.89 955.24 561.52 1076.14 567.13
00003085 00000090 873.27 173.08 345.78 521.23 939.92 374.91 1089.42 380.79 995.41 478.15 953.76 563.25 1073.17 569.90
00003086 00000091 872.92 171.61 346.98 521.35 940.29 373.21 1089.16 379.45 996.24 475.80 953.97 561.50 1072.08 568.36
00003087 00000092 872.65 166.83 347.64 522.93 939.86 368.44 1090.14 372.86 999.00 466.56 955.33 557.93 1073.55 563.14
00003088 00000093 873.45 163.92 346.97 524.26 939.92 364.29 1089.90 367.09 1001.91 462.73 957.27 556.44 1074.31 560.24
00003089 00000094 867.78 153.64 350.02 532.56 938.54 364.99 1090.61 367.24 1000.99 464.30 957.35 555.42 1074.44 559.35
00003090 00000095 864.85 153.27 351.70 533.99 937.23 365.79 1089.30 367.45 1000.88 464.52 957.62 557.03 1074.36 560.33
00003091 00000096 867.07 159.62 350.56 532.41 936.64 364.47 1088.92 367.20 1002.19 466.30 956.24 561.46 1072.81 565.04
00003092 00000097 866.27 160.89 351.73 533.91 936.47 365.44 1090.41 370.05 1000.85 468.28 953.35 562.86 1071.34 568.05
00003093 00000098 865.95 162.12 352.60 535.30 936.07 365.68 1091.12 371.39 1000.03 468.09 951.27 563.05 1071.32 569.23
00003094 00000099 865.10 162.76 353.50 538.52 936.75 365.24 1091.77 372.42 1000.17 467.97 951.67 563.39 1070.97 570.83
00003095 00000100 864.29 161.55 354.05 541.88 936.01 364.94 1091.11 372.08 999.67 468.40 951.37 564.99 1070.74 572.41
00003096 00000101 863.83 159.68 353.54 543.91 935.87 366.17 1090.87 373.94 998.98 471.62 950.46 566.33 1070.40 574.26
00003097 00000102 864.54 161.22 354.21 541.99 936.75 367.34 1091.27 374.37 999.49 472.17 951.90 566.88 1070.83 574.24
00003098 00000103 867.71 163.51 353.29 539.94 939.55 369.22 1094.75 376.18 1001.52 473.19 953.86 567.22 1074.46 574.64
00003099 00000104 872.35 166.18 351.49 538.61 943.65 371.05 1098.32 378.64 1003.00 475.33 956.78 568.69 1077.24 576.89
00003100 00000105 878.40 168.37 348.96 536.20 948.71 372.65 1104.55 381.01 1006.48 478.22 959.03 568.84 1081.38 578.03
00003101 00000106 883.27 170.54 348.04 535.61 952.59 375.12 1111.27 383.27 1008.61 481.00 961.40 570.60 1086.51 579.79
00003102 00000107 887.32 169.18 347.13 539.20 958.22 374.67 1117.48 383.79 1015.14 484.17 964.69 571.39 1090.66 581.34
00003103 00000108 891.30 167.72 345.53 540.07 964.10 372.87 1122.92 383.49 1022.26 486.16 969.16 571.26 1094.73 582.35
00003104 00000109 894.29 164.91 344.99 543.62 970.37 371.01 1130.27 383.51 1031.24 485.49 974.28 570.73 1100.43 583.07
00003105 00000110 896.21 161.73 345.77 545.61 973.81 369.18 1135.34 381.61 1037.47 485.54 976.96 571.23 1104.45 583.42
00003106 00000111 895.74 157.83 347.01 548.04 973.88 368.48 1136.20 379.30 1040.85 483.51 979.69 571.55 1106.88 582.13
00003107 00000112 893.88 158.35 348.02 547.79 971.85 368.71 1134.72 377.71 1039.88 482.26 979.95 571.87 1106.87 580.86
00003108 00000113 892.04 160.07 348.26 548.29 970.02 369.04 1131.74 377.91 1036.90 482.57 977.75 572.45 1103.94 581.54
00003109 00000114 890.58 160.94 348.12 549.60 969.66 369.41 1130.60 378.86 1036.27 483.66 976.96 573.26 1102.49 582.85
00003110 00000115 889.94 160.55 348.64 551.71 969.83 369.89 1130.61 379.70 1036.58 484.46 977.16 574.16 1102.46 583.88
00003111 00000116 888.86 160.47 349.71 551.70 969.68 370.46 1130.44 379.94 1037.29 484.75 977.48 574.76 1102.70 584.15
00003112 00000117 887.69 159.87 350.34 552.61 969.37 370.60 1129.81 380.60 1037.41 485.54 977.23 574.83 1101.96 584.58
00003113 00000118 886.42 160.29 351.45 552.00 969.29 371.04 1129.03 381.37 1037.55 486.02 977.35 574.44 1101.65 584.41
00003114 00000119 884.28 159.56 353.15 552.78 967.96 371.88 1128.02 382.05 1037.45 487.22 977.43 575.15 1101.31 584.87
00003115 00000120 882.87 160.09 354.29 550.78 967.25 372.99 1127.85 382.50 1038.17 488.57 978.57 575.88 1102.14 584.97
00003116 00000121 881.53 162.18 355.01 548.68 966.13 375.39 1127.17 383.89 1038.20 490.60 979.28 576.96 1103.84 585.09
00003117 00000122 879.91 163.01 356.22 549.89 964.20 378.94 1125.71 385.89 1037.84 494.90 980.49 579.60 1105.30 586.12
00003118 00000123 875.38 163.48 359.43 553.28 962.09 381.59 1123.03 387.13 1038.09 500.19 980.55 584.39 1102.61 589.69
00003119 00000124 872.77 164.93 359.14 551.55 960.32 385.06 1121.93 389.38 1037.76 505.19 982.37 589.66 1100.54 593.89
CROP_BBOX: 671 0 1724 1052
