Video ID: 	10eF75HDhco
H: 	1080
W: 	1920
FPS: 	25.0

FRAME INDEX X0 Y0 W H [Landmarks (5 Points)]

00001151 00000000 863.87 167.46 475.95 684.44 925.68 439.18 1114.25 444.12 964.43 597.77 957.80 664.15 1150.47 665.16
00001152 00000001 865.16 167.03 480.22 678.87 925.10 432.83 1113.68 439.58 960.04 591.89 957.85 657.88 1150.83 660.48
00001153 00000002 865.57 166.38 476.42 671.31 926.17 424.82 1113.72 435.15 957.49 584.02 955.63 646.84 1147.70 652.82
00001154 DELETE   868.36 154.57 466.01 671.15 927.81 413.65 1114.86 425.01 956.74 563.81 947.25 634.11 1139.76 641.60
00001155 DELETE   867.72 133.67 462.65 687.51 928.57 401.65 1119.76 413.60 959.17 545.30 939.27 632.49 1129.02 641.73
00001156 00000005 871.46 144.12 462.18 676.28 930.55 396.71 1126.26 408.32 962.85 538.83 938.70 629.14 1131.22 638.55
00001157 DELETE   879.09 133.64 454.59 690.74 938.38 401.40 1131.60 407.06 967.44 533.65 944.99 632.02 1136.21 636.74
00001158 DELETE   888.80 127.78 451.48 702.69 947.03 403.24 1139.44 405.44 975.23 538.32 956.23 636.18 1151.23 637.51
00001159 DELETE   896.64 120.62 452.42 709.17 952.28 400.23 1143.84 402.29 978.34 534.98 963.26 634.18 1156.25 634.91
00001160 00000009 899.82 128.04 450.41 698.92 957.78 394.52 1148.10 400.30 980.18 535.31 968.91 631.14 1161.78 634.47
00001161 00000010 904.96 135.40 451.03 691.81 961.66 391.68 1154.06 400.29 984.14 539.49 975.20 631.28 1167.87 636.72
00001162 00000011 908.77 137.24 452.19 689.24 964.43 391.98 1158.14 400.13 990.48 540.53 978.76 632.27 1170.09 637.59
00001163 00000012 911.49 140.17 457.46 684.51 967.11 391.36 1162.64 399.66 995.12 540.32 982.07 632.11 1172.67 637.51
00001164 00000013 912.83 135.50 455.80 688.47 968.11 391.39 1164.61 400.31 997.19 540.84 982.95 631.34 1173.73 637.19
00001165 00000014 914.73 138.23 455.57 686.71 969.51 392.43 1165.18 400.14 999.70 539.15 984.32 634.92 1169.98 640.17
00001166 00000015 913.80 129.03 458.28 697.78 967.91 394.56 1166.86 399.47 1003.20 538.96 985.07 643.55 1164.70 646.97
00001167 00000016 915.46 123.30 459.53 707.51 967.15 395.15 1171.36 399.13 1006.32 537.67 983.99 659.91 1144.17 664.18
00001168 00000017 920.06 117.68 455.83 713.65 965.07 391.79 1171.74 400.29 1003.30 542.44 981.01 666.88 1131.89 675.88
00001169 00000018 923.61 125.91 454.20 703.14 965.65 393.17 1173.25 400.05 1007.98 542.91 983.73 670.97 1128.00 678.49
00001170 00000019 921.51 120.95 455.04 710.79 967.07 393.85 1177.36 402.18 1011.91 545.99 985.46 671.31 1132.74 680.09
00001171 00000020 922.99 122.86 457.05 702.00 969.99 397.50 1180.38 404.66 1015.08 542.54 987.05 667.27 1134.62 674.89
00001172 00000021 910.09 127.96 472.33 681.88 980.17 401.21 1181.31 411.02 1025.00 541.01 1000.57 657.74 1140.15 666.06
00001173 00000022 926.94 120.06 453.37 694.15 974.31 400.66 1176.02 408.99 1016.03 541.54 991.89 657.23 1139.92 665.12
00001174 00000023 923.82 120.83 452.47 698.78 973.20 400.82 1173.10 407.88 1013.25 539.50 991.58 653.06 1149.23 659.08
00001175 00000024 921.92 129.63 457.67 704.20 974.03 408.85 1167.29 411.28 1008.18 544.21 994.16 655.81 1160.37 657.07
00001176 00000025 921.71 133.95 460.11 708.49 974.57 415.22 1162.29 415.99 999.76 552.30 999.47 659.35 1168.64 658.30
00001177 00000026 921.11 136.84 460.90 707.59 974.09 417.58 1160.08 416.77 996.39 554.00 1000.21 660.48 1170.32 658.16
00001178 00000027 920.55 132.73 460.22 712.55 971.95 417.82 1154.21 415.50 990.58 553.15 999.00 660.35 1166.75 656.65
00001179 00000028 919.15 133.66 460.02 705.69 968.36 418.71 1150.66 415.31 989.17 550.50 995.39 660.60 1158.61 656.37
00001180 00000029 918.78 137.98 460.81 696.84 964.95 419.79 1145.35 415.60 984.95 554.41 995.57 665.78 1149.26 661.45
00001181 00000030 916.66 129.01 459.43 699.63 961.66 417.92 1144.15 412.80 985.15 550.79 990.34 664.16 1141.66 659.65
00001182 00000031 914.53 134.53 458.69 699.40 959.15 418.16 1142.88 411.25 984.18 547.81 987.50 669.78 1135.65 664.57
00001183 00000032 914.31 131.76 457.37 708.31 959.74 421.02 1140.33 413.27 983.02 550.10 987.18 675.40 1132.48 669.69
00001184 00000033 914.30 132.55 457.68 709.76 960.48 422.29 1137.46 415.77 979.67 555.66 989.64 678.27 1133.60 673.18
00001185 00000034 911.23 147.71 464.15 697.43 958.76 426.16 1137.82 420.32 979.90 568.79 995.15 676.93 1148.39 671.26
00001186 00000035 909.47 153.59 464.24 693.94 956.63 431.27 1133.66 424.62 976.80 577.80 998.36 677.19 1154.96 670.19
00001187 00000036 904.20 157.56 465.23 692.20 950.83 435.02 1130.31 425.56 974.41 581.05 992.66 679.89 1155.29 670.49
00001188 00000037 898.32 148.90 468.31 699.99 944.29 434.84 1125.67 427.49 967.92 580.23 984.23 678.40 1149.95 670.98
00001189 00000038 892.77 151.85 470.69 693.08 939.01 433.41 1121.79 428.59 964.91 582.37 979.43 676.49 1144.50 671.49
00001190 00000039 888.33 159.80 476.09 683.33 935.64 431.01 1120.15 428.89 964.42 583.60 975.58 675.55 1140.18 673.04
00001191 00000040 883.85 165.47 469.03 674.48 931.52 432.52 1125.00 437.38 969.89 584.69 970.00 673.96 1138.87 677.34
00001192 00000041 882.32 178.28 468.58 662.76 931.90 433.87 1123.59 437.97 970.47 585.93 972.42 673.12 1140.60 675.46
00001193 00000042 880.27 179.17 472.05 660.89 932.53 434.74 1123.41 438.70 971.44 583.00 971.22 673.46 1135.08 676.18
00001194 00000043 883.04 170.41 470.60 669.95 934.50 434.91 1124.63 438.58 970.64 583.97 971.89 679.45 1130.06 682.54
00001195 00000044 886.17 172.49 472.79 662.51 936.82 435.72 1125.15 438.34 972.55 583.30 973.55 683.38 1122.17 686.46
00001196 00000045 888.27 163.04 468.68 671.36 935.45 438.85 1123.87 436.98 971.48 580.14 966.68 690.33 1106.28 691.03
00001197 00000046 889.37 160.41 465.95 678.10 935.90 439.61 1124.38 440.43 968.73 583.97 966.37 693.15 1101.91 696.07
00001198 00000047 885.93 162.67 470.84 674.94 933.61 443.27 1121.90 444.92 966.81 585.78 962.24 693.12 1101.19 696.63
00001199 00000048 883.00 163.05 469.79 672.26 931.11 444.67 1119.27 445.61 965.51 587.66 960.06 692.43 1101.39 695.31
00001200 00000049 883.85 169.69 469.54 678.09 936.91 443.50 1116.82 444.59 963.94 585.10 970.23 690.06 1113.36 691.96
00001201 00000050 882.93 167.38 468.17 680.70 934.54 442.51 1115.57 445.51 962.54 588.35 969.37 686.18 1123.09 688.80
00001202 00000051 881.86 171.75 468.01 672.71 933.71 443.57 1115.95 445.71 963.52 586.73 968.29 684.83 1120.50 686.88
00001203 00000052 880.40 171.60 469.05 670.92 933.01 444.70 1114.96 443.38 963.89 584.13 968.30 686.09 1115.11 685.70
00001204 00000053 877.99 172.42 470.61 675.85 931.41 443.94 1113.62 441.58 961.53 585.10 965.47 690.77 1111.98 689.67
00001205 00000054 876.56 178.68 469.53 672.30 929.57 441.83 1110.02 440.88 959.43 587.75 966.47 690.18 1113.79 689.92
00001206 00000055 872.49 180.56 469.06 663.16 924.12 437.35 1105.86 439.77 956.70 587.00 962.53 682.15 1117.79 683.74
00001207 00000056 869.99 173.11 472.69 674.41 923.12 438.47 1102.11 433.70 955.40 585.44 965.52 682.56 1118.80 677.77
00001208 00000057 868.36 179.67 467.20 653.82 921.19 438.31 1102.90 437.29 957.84 581.53 960.53 677.93 1108.56 677.07
00001209 00000058 863.97 175.22 475.95 663.22 918.88 439.61 1097.63 435.11 953.04 583.65 958.47 688.19 1093.51 685.00
00001210 00000059 863.69 182.47 471.48 654.35 917.22 439.95 1097.89 436.37 953.76 585.45 956.34 689.64 1088.23 687.38
00001211 00000060 864.17 174.57 469.74 665.10 919.09 439.69 1098.65 434.55 955.65 584.70 959.94 689.65 1096.80 686.10
00001212 00000061 864.32 172.41 471.54 665.24 919.37 438.05 1101.55 433.44 956.88 585.71 960.85 684.36 1108.12 680.77
00001213 00000062 867.75 172.89 469.48 666.50 919.72 437.51 1104.92 434.99 957.59 583.26 960.76 684.75 1113.68 682.43
00001214 00000063 865.10 172.83 479.50 666.04 920.76 438.70 1102.60 432.76 957.52 585.16 965.72 690.93 1103.50 686.59
00001215 00000064 867.12 178.60 476.79 661.33 922.31 439.83 1103.48 436.14 958.41 587.95 966.18 691.45 1103.26 688.99
00001216 00000065 869.91 166.61 473.52 676.63 922.07 442.99 1108.92 439.81 959.11 591.65 962.12 691.78 1114.07 689.47
00001217 00000066 874.17 169.43 473.23 684.19 923.64 445.09 1110.14 445.43 955.21 594.61 961.33 690.00 1122.15 690.00
00001218 00000067 875.24 174.79 473.38 680.20 925.59 447.44 1113.36 449.71 958.11 601.06 962.67 691.60 1126.90 692.94
00001219 00000068 875.50 176.11 471.92 681.94 928.49 444.57 1114.46 447.56 959.64 597.33 963.01 692.37 1121.09 694.91
00001220 00000069 872.10 170.59 478.65 682.49 925.72 439.78 1113.01 443.55 957.86 592.52 957.82 690.93 1108.11 694.88
00001221 00000070 870.95 169.78 478.30 677.12 923.55 442.09 1112.15 441.91 957.72 591.66 959.85 693.78 1104.06 694.98
00001222 00000071 868.84 178.00 477.90 666.52 920.49 442.20 1110.21 441.68 957.79 592.66 958.27 694.51 1102.67 695.12
00001223 00000072 870.96 179.68 475.40 660.26 920.01 446.16 1110.25 443.13 960.14 593.67 958.35 694.46 1108.16 693.07
00001224 00000073 875.80 166.91 474.03 689.80 926.83 449.16 1112.57 448.68 956.11 596.58 963.46 698.86 1119.07 698.71
00001225 00000074 871.49 167.47 480.80 696.42 924.30 452.40 1113.02 449.76 956.46 602.41 961.88 707.48 1117.07 705.66
00001226 00000075 870.71 165.33 480.44 696.43 924.65 452.36 1113.93 449.04 959.78 599.80 961.68 707.83 1112.93 705.76
00001227 00000076 868.01 167.21 482.02 693.15 924.10 450.07 1113.84 448.62 960.95 599.85 961.76 703.26 1115.20 702.59
00001228 00000077 866.09 171.68 480.18 685.04 922.68 446.72 1110.15 446.18 959.90 595.92 960.36 695.26 1115.15 695.16
00001229 00000078 865.05 169.93 479.80 683.35 920.03 445.77 1107.54 445.62 959.22 595.35 961.14 688.35 1121.94 687.71
00001230 00000079 868.80 173.60 478.96 681.80 924.23 454.99 1105.44 449.10 958.47 596.24 967.33 686.32 1132.07 679.35
00001231 00000080 868.97 177.47 481.70 680.06 925.10 456.03 1103.58 451.26 955.79 597.46 967.69 685.04 1134.78 678.55
00001232 00000081 868.81 180.15 482.49 678.71 923.78 457.14 1104.45 450.03 956.74 599.25 966.54 684.06 1138.09 675.21
00001233 00000082 870.30 185.59 474.80 667.03 921.95 450.74 1106.72 453.21 956.70 599.16 960.04 681.13 1130.01 681.95
00001234 00000083 871.49 189.43 474.80 663.51 921.69 451.78 1104.68 453.03 955.31 601.23 962.23 682.04 1132.99 681.76
00001235 00000084 872.74 183.61 473.63 670.47 923.39 451.75 1105.04 452.99 956.01 599.45 962.78 681.08 1134.63 680.69
00001236 00000085 873.53 181.65 471.52 673.13 923.12 452.73 1106.95 455.27 956.90 602.31 961.35 680.79 1135.00 681.48
00001237 00000086 875.26 185.82 470.93 671.42 924.39 452.62 1106.62 454.66 956.17 604.67 963.51 681.39 1137.83 681.45
00001238 00000087 876.39 183.88 469.18 674.01 925.18 453.42 1108.08 455.84 956.82 606.38 963.57 681.53 1138.98 681.90
00001239 00000088 877.03 182.34 469.24 677.56 925.99 453.12 1107.72 455.43 956.46 608.59 965.35 682.18 1140.53 682.24
00001240 00000089 875.94 186.89 470.31 675.25 924.17 453.54 1107.30 454.59 955.98 611.24 965.30 684.12 1141.11 683.10
00001241 00000090 874.32 187.15 470.72 675.27 922.32 453.08 1106.25 454.93 954.73 614.20 964.76 684.23 1141.38 683.84
00001242 00000091 871.61 189.60 472.72 673.11 920.50 453.17 1105.16 455.66 953.70 615.29 962.57 683.98 1139.07 684.13
00001243 00000092 869.34 188.10 473.31 675.12 920.31 452.11 1103.76 456.55 952.27 615.49 961.90 683.18 1137.58 684.91
00001244 00000093 865.53 191.94 475.10 670.10 918.27 452.55 1101.60 458.03 950.60 617.11 959.84 682.35 1135.06 685.05
00001245 00000094 862.75 188.97 474.69 674.45 917.89 454.63 1098.02 457.19 951.05 615.93 959.67 683.94 1133.79 684.26
00001246 00000095 859.24 178.23 480.98 688.14 914.57 464.75 1094.09 457.21 949.67 615.66 959.60 687.31 1139.75 676.92
00001247 00000096 859.65 173.38 475.80 691.73 915.05 465.62 1088.87 459.40 945.97 614.32 958.89 686.76 1134.99 677.33
00001248 00000097 860.20 169.95 471.26 699.20 912.11 467.54 1085.06 458.74 941.23 615.41 957.10 688.67 1135.30 676.73
00001249 00000098 857.30 162.91 471.15 706.31 910.40 469.27 1085.80 460.42 941.07 617.45 957.03 689.86 1136.28 677.81
00001250 00000099 859.97 169.99 467.08 700.63 912.32 468.46 1081.63 463.35 936.23 620.70 960.04 688.86 1136.56 679.49
00001251 00000100 859.09 177.97 466.71 691.55 911.77 468.30 1084.23 465.43 939.55 621.55 959.58 689.15 1136.51 681.83
00001252 00000101 859.61 184.72 469.88 687.13 912.04 470.57 1084.50 466.74 939.78 623.55 960.23 691.81 1137.36 683.59
00001253 00000102 860.62 179.23 469.50 696.43 912.54 472.94 1085.21 467.78 941.61 626.54 959.67 693.87 1139.67 684.35
00001254 00000103 859.62 181.70 470.42 692.63 912.23 472.90 1085.93 468.05 942.25 627.55 959.73 692.94 1140.66 683.62
00001255 00000104 859.02 190.95 470.66 678.97 911.01 465.20 1087.37 468.74 943.70 630.35 952.83 686.91 1131.88 686.76
00001256 00000105 858.06 190.64 471.08 679.16 910.66 465.27 1086.20 467.03 943.19 630.30 953.75 685.71 1132.70 684.00
00001257 00000106 855.61 184.54 473.57 686.65 908.61 465.52 1085.43 465.48 941.88 630.40 953.56 685.68 1134.47 682.19
00001258 00000107 854.95 188.73 474.58 678.95 912.40 464.42 1086.85 473.15 937.12 628.37 959.41 680.86 1132.91 682.23
00001259 00000108 853.28 195.38 474.85 674.33 910.33 464.86 1083.52 473.01 932.74 630.04 959.60 684.23 1130.14 685.31
00001260 00000109 851.82 199.88 473.43 665.84 907.65 469.72 1077.48 473.78 929.43 631.30 960.81 688.08 1125.87 685.98
00001261 00000110 849.27 197.20 473.87 673.21 904.08 470.45 1074.04 473.79 925.53 633.80 960.34 691.03 1124.46 688.37
00001262 00000111 849.39 200.69 472.87 672.40 901.83 473.42 1070.00 473.29 922.10 635.62 961.36 695.23 1122.55 690.01
00001263 00000112 848.61 206.96 471.89 663.08 900.30 475.10 1068.81 474.23 920.88 636.03 959.58 695.82 1119.57 690.36
00001264 00000113 847.14 200.94 473.15 670.00 899.50 473.87 1067.42 473.33 920.99 635.82 960.22 694.55 1120.77 689.06
00001265 00000114 847.38 202.07 472.97 666.92 899.41 472.26 1068.93 472.80 921.40 635.05 959.59 692.08 1121.51 687.40
00001266 00000115 847.38 200.24 472.77 668.83 899.93 470.22 1070.05 472.25 922.22 634.44 958.53 689.64 1122.94 685.93
00001267 00000116 847.76 200.98 473.34 669.47 900.12 471.61 1069.91 473.21 921.76 635.47 959.40 690.45 1123.81 686.42
00001268 00000117 848.23 206.00 472.19 664.79 901.01 474.28 1068.34 474.92 921.22 636.50 960.85 692.24 1122.63 687.54
00001269 00000118 848.99 209.52 470.34 659.91 900.95 476.64 1066.73 475.97 920.69 637.77 962.59 694.90 1120.66 689.44
00001270 00000119 848.41 211.57 470.79 657.75 900.96 479.36 1065.47 478.61 920.53 639.91 965.12 695.56 1122.56 689.97
00001271 00000120 849.38 217.85 467.68 653.06 900.85 480.54 1065.88 479.13 921.31 642.56 965.20 696.28 1124.36 690.23
00001272 00000121 850.16 217.77 467.23 652.65 901.56 480.24 1065.96 478.49 920.95 641.13 965.55 696.37 1124.26 690.04
00001273 00000122 849.95 214.47 465.20 656.25 901.85 479.90 1064.03 477.40 920.07 638.62 966.33 695.58 1123.21 688.53
00001274 00000123 849.77 216.95 463.90 653.87 899.71 479.96 1063.29 476.58 919.21 638.33 964.02 694.91 1122.37 687.21
00001275 00000124 849.51 211.63 463.00 657.07 899.53 480.51 1060.70 476.31 918.17 637.89 965.52 693.46 1122.83 684.94
00001276 00000125 847.45 210.12 463.69 659.53 897.67 482.08 1058.23 474.03 916.44 635.79 965.28 695.11 1121.59 683.64
00001277 00000126 838.78 206.89 465.21 664.32 887.74 484.97 1050.20 466.26 911.69 627.67 965.31 705.84 1121.05 685.51
00001278 00000127 836.72 212.13 465.99 659.78 887.15 484.66 1048.83 467.71 911.53 629.25 964.78 704.33 1120.91 685.47
00001279 00000128 835.93 215.89 465.44 654.15 885.97 486.01 1047.15 468.26 911.05 629.74 963.67 703.91 1119.81 684.26
00001280 00000129 835.51 212.94 465.65 657.62 885.07 487.48 1048.44 468.68 912.38 629.66 961.90 704.19 1120.20 683.79
00001281 00000130 835.48 212.48 465.16 659.48 884.21 488.78 1047.56 467.50 911.76 628.82 961.87 706.31 1120.00 683.77
00001282 00000131 836.97 208.34 463.78 665.04 885.53 488.60 1047.94 466.35 912.49 628.27 964.59 707.50 1121.45 684.03
00001283 00000132 836.78 209.39 466.05 662.85 886.13 487.12 1049.79 466.71 914.23 627.89 964.73 706.75 1121.72 684.97
00001284 00000133 836.67 214.06 466.43 656.04 887.10 486.53 1050.17 466.41 915.06 627.21 965.43 704.87 1121.84 683.46
00001285 00000134 836.56 212.24 466.48 659.17 887.07 486.90 1050.96 466.17 916.17 627.52 965.36 704.61 1123.34 682.77
00001286 00000135 836.87 208.49 466.20 661.96 887.15 486.75 1050.15 465.35 915.56 626.92 965.73 704.26 1123.24 681.63
00001287 00000136 836.23 211.95 466.29 658.93 887.18 486.65 1050.00 466.12 916.33 627.71 965.83 703.46 1123.70 681.70
00001288 00000137 835.69 212.42 466.00 656.34 885.44 487.01 1049.15 467.21 914.88 628.97 964.73 703.79 1122.48 682.58
00001289 00000138 834.94 218.36 466.29 652.00 885.31 488.43 1047.58 467.22 914.54 629.50 965.40 705.14 1122.36 682.84
00001290 00000139 834.50 216.04 466.52 654.82 884.98 489.89 1047.69 467.11 915.61 629.83 965.64 705.50 1123.67 681.88
00001291 00000140 833.35 220.16 467.91 653.84 883.57 490.22 1046.67 467.67 914.33 632.21 964.98 705.82 1125.96 682.42
00001292 00000141 831.81 223.33 469.67 650.09 883.07 491.72 1044.67 469.13 914.28 633.87 966.26 706.24 1125.58 682.91
00001293 00000142 831.57 222.74 469.80 650.86 882.60 491.89 1044.99 469.98 913.74 634.82 965.72 706.84 1125.46 684.17
00001294 00000143 831.21 226.94 470.31 646.37 882.18 493.35 1044.48 472.75 912.64 637.92 965.87 707.68 1125.31 686.13
00001295 00000144 831.93 225.26 470.06 646.31 883.41 492.40 1046.70 472.10 915.30 635.97 965.75 705.73 1126.20 684.55
00001296 00000145 837.87 220.20 466.36 650.43 885.42 492.33 1047.67 469.45 915.34 632.54 968.23 706.93 1127.17 683.39
00001297 00000146 838.32 213.21 465.20 658.55 886.80 491.46 1050.64 468.02 917.23 633.65 969.32 706.58 1131.27 682.41
00001298 00000147 838.77 208.60 467.64 660.62 890.28 489.49 1053.90 467.76 920.25 630.84 971.44 704.04 1132.11 681.09
00001299 00000148 840.61 207.60 468.61 660.18 892.58 487.03 1057.27 469.53 922.26 632.60 972.07 701.39 1133.85 681.79
00001300 00000149 847.97 213.58 461.87 649.42 900.76 487.53 1061.43 477.61 927.49 640.93 973.27 692.03 1132.13 678.36
00001301 00000150 840.47 212.28 468.21 658.43 892.09 488.92 1055.97 470.97 921.31 634.83 973.04 702.59 1135.76 682.67
00001302 00000151 842.28 217.85 466.29 653.25 891.61 488.45 1056.07 473.30 920.27 637.27 972.02 702.51 1136.34 685.13
00001303 00000152 844.26 220.83 463.93 646.32 901.45 489.40 1062.00 477.10 934.03 642.99 965.91 693.42 1134.62 677.84
00001304 00000153 845.60 220.30 462.58 647.55 901.93 489.86 1063.29 477.72 933.54 643.80 964.95 694.61 1134.73 679.08
00001305 00000154 845.61 223.47 462.49 645.63 902.65 491.27 1063.31 478.90 934.02 644.65 966.67 695.85 1134.81 680.16
00001306 00000155 843.80 222.22 463.47 647.26 900.83 490.80 1063.79 479.71 933.64 647.73 966.56 697.98 1134.50 683.36
00001307 00000156 842.09 218.07 464.99 654.11 890.20 491.65 1054.82 478.07 917.11 644.97 972.97 709.83 1134.13 693.76
00001308 00000157 841.31 222.10 466.20 651.72 889.23 494.08 1052.44 479.01 914.38 646.48 972.22 711.29 1132.88 694.09
00001309 00000158 837.94 218.77 467.99 658.67 886.97 497.74 1049.03 481.20 913.50 647.41 968.83 711.28 1131.16 693.01
00001310 00000159 835.79 217.08 469.87 668.33 885.65 499.60 1045.80 485.00 911.18 653.30 969.57 715.75 1130.54 699.17
00001311 00000160 833.26 218.62 473.43 670.61 884.60 499.98 1045.66 490.01 909.85 656.68 967.23 717.63 1126.82 705.20
00001312 00000161 832.65 218.91 472.19 671.12 883.15 501.96 1043.57 491.48 907.72 655.39 964.20 719.19 1120.96 706.26
00001313 00000162 832.04 224.39 472.75 666.46 880.14 500.91 1041.54 489.80 904.06 654.92 961.23 720.18 1118.77 706.73
00001314 00000163 833.97 223.68 472.90 661.59 885.54 497.34 1042.40 497.82 906.70 663.06 962.45 709.21 1111.39 704.89
00001315 00000164 830.16 216.44 474.40 662.78 880.38 494.86 1039.04 495.28 901.00 659.64 956.69 708.13 1105.29 704.03
00001316 00000165 827.49 215.32 473.49 660.07 877.29 497.85 1030.77 496.44 895.46 658.32 954.64 709.25 1097.48 703.97
00001317 00000166 825.77 216.77 471.34 658.56 874.83 497.74 1029.95 496.81 894.62 659.47 948.53 710.64 1093.36 706.18
00001318 00000167 821.52 218.65 471.03 650.80 870.04 496.78 1027.96 494.89 894.42 656.98 942.52 710.09 1087.66 705.24
