Video ID: 	M9SAzpwNuxY
H: 	1080
W: 	1920
FPS: 	25.0

FRAME INDEX X0 Y0 W H [Landmarks (5 Points)]

00013744 00000000 692.03 100.66 355.25 489.61 802.86 282.79 975.20 311.83 893.00 349.40 801.45 457.74 940.06 482.17
00013745 00000001 693.88 103.85 353.35 490.44 805.50 286.33 980.41 315.61 898.67 354.00 802.32 462.48 943.41 487.87
00013746 00000002 695.10 110.88 356.19 491.77 814.43 291.73 986.77 324.10 909.83 364.08 807.44 468.26 946.75 496.77
00013747 00000003 697.56 114.97 358.28 488.87 819.94 294.35 993.47 328.17 917.19 365.99 812.97 469.26 954.22 499.05
00013748 00000004 699.59 120.80 362.62 489.41 833.53 301.92 998.57 336.21 922.05 376.50 820.67 467.35 958.20 495.55
00013749 00000005 703.72 118.07 360.32 495.95 841.16 302.97 1008.72 343.13 932.77 381.57 824.36 471.18 965.49 504.23
00013750 DELETE   707.69 119.03 364.22 509.00 846.73 310.16 1012.34 346.60 938.95 389.46 838.45 484.62 971.60 514.44
00013751 00000007 707.41 121.10 367.72 522.98 851.61 316.15 1017.38 349.85 945.64 401.07 843.50 497.77 973.33 525.57
00013752 00000008 707.56 123.31 371.45 523.60 854.35 322.47 1026.76 358.47 954.69 407.90 848.60 504.62 982.75 534.39
00013753 00000009 710.56 128.48 372.98 516.79 856.28 328.31 1034.23 365.28 960.80 411.71 850.81 506.82 991.88 537.87
00013754 00000010 710.59 128.86 374.39 520.91 858.36 331.28 1035.23 367.83 964.50 415.81 853.36 510.46 993.52 541.45
00013755 00000011 710.69 129.43 373.04 526.66 859.24 333.24 1032.37 366.45 966.17 417.71 857.16 516.08 992.62 544.37
00013756 00000012 709.61 131.01 373.23 526.87 858.45 332.18 1033.61 366.74 966.22 419.94 853.56 514.86 992.66 544.43
00013757 00000013 709.06 132.84 372.71 525.52 858.97 333.89 1033.56 367.83 968.01 421.03 853.95 516.21 992.35 545.37
00013758 00000014 707.96 132.87 372.37 525.04 858.20 335.35 1033.41 368.29 968.64 421.72 855.19 517.28 993.66 545.50
00013759 00000015 709.43 134.30 371.14 523.48 858.32 337.23 1033.71 367.47 970.00 425.37 857.85 520.90 994.75 547.11
00013760 00000016 710.30 138.52 370.37 521.73 858.22 340.17 1034.65 369.03 971.16 430.18 857.71 524.45 995.21 549.70
00013761 00000017 716.04 152.79 365.64 511.69 860.03 337.37 1031.07 366.65 971.90 435.50 854.67 528.51 989.38 552.78
00013762 00000018 716.29 155.30 366.05 510.58 860.73 339.43 1031.78 369.03 972.05 437.08 854.55 529.95 990.17 554.52
00013763 00000019 717.72 155.55 367.45 510.97 862.84 339.56 1034.06 369.40 974.75 436.25 857.04 530.38 993.31 555.17
00013764 00000020 720.47 157.11 367.14 511.15 865.48 341.03 1036.95 371.98 977.72 434.47 860.41 530.35 997.66 556.20
00013765 00000021 724.11 158.17 365.00 512.51 868.07 342.98 1039.35 374.92 980.19 434.89 863.71 531.72 1000.63 558.48
00013766 00000022 726.46 159.50 364.39 511.72 869.30 345.09 1040.66 376.50 981.50 436.53 865.36 533.18 1002.84 559.68
00013767 00000023 728.30 161.55 364.17 511.68 870.66 347.20 1042.71 377.21 983.64 437.42 867.94 534.85 1006.77 560.35
00013768 00000024 730.23 162.90 364.66 512.46 870.81 349.00 1043.39 376.75 983.66 438.78 870.03 537.75 1008.80 561.38
00013769 00000025 731.15 162.70 364.29 514.92 871.19 349.53 1043.48 377.10 983.78 441.45 869.92 539.00 1009.20 562.58
00013770 00000026 731.80 161.97 364.41 517.10 872.90 350.48 1044.49 379.46 984.72 443.48 870.28 539.72 1009.03 564.50
00013771 00000027 731.99 163.58 362.58 516.36 874.17 352.16 1044.90 381.86 986.61 444.51 870.92 540.52 1009.20 566.05
00013772 00000028 732.21 164.89 363.05 517.78 874.69 353.53 1045.77 382.49 988.55 446.61 873.08 543.33 1010.87 568.17
00013773 00000029 730.03 167.00 363.84 517.68 873.80 355.24 1044.93 384.14 988.50 446.38 872.75 544.26 1010.59 568.97
00013774 00000030 726.70 167.22 365.65 518.49 872.47 356.32 1043.73 386.29 986.80 447.29 869.90 544.73 1008.08 570.23
00013775 00000031 722.95 169.06 365.64 517.63 870.11 357.38 1040.87 387.71 983.86 448.35 866.70 544.94 1005.02 570.58
00013776 00000032 719.30 170.61 367.72 518.52 868.85 359.04 1040.17 388.41 984.84 450.21 867.64 547.97 1005.47 572.71
00013777 00000033 718.98 172.62 367.47 520.09 869.52 361.80 1039.63 388.85 987.56 451.33 871.58 551.62 1007.26 574.64
00013778 00000034 719.53 173.82 367.88 522.17 871.10 363.46 1040.49 390.27 990.45 450.39 875.48 554.03 1009.82 576.91
00013779 00000035 718.70 175.26 365.37 521.80 873.22 370.73 1038.77 395.76 993.36 452.42 879.16 555.19 1011.13 576.74
00013780 00000036 719.74 173.94 366.68 522.73 876.33 375.77 1043.09 400.25 998.78 454.72 882.00 556.90 1016.14 578.30
00013781 DELETE   721.35 172.97 364.39 524.10 877.51 372.77 1044.53 395.20 1001.87 454.06 885.24 556.32 1019.36 575.84
00013782 00000038 724.55 172.20 363.47 523.55 879.37 369.46 1046.55 390.94 1004.31 451.41 888.91 553.96 1022.90 572.36
00013783 00000039 726.92 168.56 364.55 523.56 882.07 366.37 1050.54 386.61 1009.67 448.13 896.66 553.32 1028.80 570.30
00013784 00000040 728.62 166.90 362.32 525.35 884.64 365.44 1052.03 383.63 1014.56 447.66 905.76 555.39 1034.16 569.98
00013785 00000041 730.40 164.57 361.69 530.47 889.14 367.61 1053.58 384.35 1019.23 450.38 911.79 559.47 1037.30 572.82
00013786 00000042 731.93 165.33 362.85 529.67 892.78 371.03 1057.05 385.29 1025.20 450.83 916.26 561.00 1042.79 572.46
00013787 00000043 735.25 168.84 363.02 527.02 896.68 373.90 1060.84 387.68 1028.87 451.69 918.67 562.74 1046.07 574.15
00013788 00000044 738.53 169.53 363.21 528.18 901.84 376.15 1063.68 388.19 1035.65 452.27 922.83 563.87 1050.95 574.14
00013789 00000045 742.89 169.55 364.31 528.48 906.76 377.20 1069.22 387.24 1041.58 453.96 927.89 565.80 1057.17 574.59
00013790 00000046 746.83 169.29 364.15 529.51 911.34 376.31 1072.99 386.19 1047.44 452.53 932.58 565.82 1062.52 574.86
00013791 00000047 749.92 167.70 364.52 530.51 916.96 374.04 1076.98 387.58 1053.19 451.98 937.11 564.34 1065.68 576.54
00013792 00000048 753.41 166.10 363.33 533.25 922.31 374.28 1080.47 389.65 1057.30 452.72 939.63 564.12 1067.58 577.88
00013793 00000049 755.47 165.02 366.80 534.87 926.96 373.69 1084.96 389.02 1061.75 454.64 943.45 565.30 1070.01 578.83
00013794 00000050 750.21 170.66 372.77 532.33 926.47 373.71 1075.87 386.18 1053.24 460.39 951.57 563.18 1065.91 573.63
00013795 00000051 751.39 171.65 373.68 529.93 928.23 373.90 1078.74 387.32 1055.50 461.85 950.82 563.53 1066.36 574.86
00013796 00000052 752.15 171.92 373.56 529.52 928.44 374.79 1080.22 388.31 1056.73 462.01 950.96 563.59 1068.12 575.03
00013797 00000053 753.58 172.20 374.42 527.65 927.99 376.45 1082.15 390.59 1056.26 462.29 951.56 563.75 1070.72 575.54
00013798 00000054 751.81 175.74 375.54 525.10 927.40 388.86 1083.71 404.63 1056.07 463.94 951.33 563.37 1074.17 576.61
00013799 00000055 752.88 176.46 373.42 525.11 927.59 391.33 1084.63 406.63 1057.07 465.34 951.86 564.62 1075.75 577.49
00013800 00000056 751.37 178.57 373.83 523.41 926.18 389.08 1085.60 404.02 1058.37 466.09 951.52 565.95 1077.12 578.47
00013801 00000057 754.07 178.10 372.23 522.73 926.41 387.68 1084.99 403.02 1056.36 466.36 950.02 565.85 1075.16 578.88
00013802 00000058 753.16 178.34 372.56 522.03 925.89 387.04 1083.38 401.63 1055.41 467.37 949.66 566.34 1073.58 578.79
00013803 00000059 754.42 177.44 371.81 522.30 926.67 385.86 1083.58 399.44 1056.07 467.25 949.79 566.61 1073.15 578.25
00013804 00000060 754.99 177.74 371.81 522.41 927.52 385.01 1084.47 399.16 1056.63 467.40 950.15 567.14 1073.11 579.18
00013805 00000061 755.21 177.35 370.51 523.41 925.71 386.53 1082.85 400.47 1055.13 466.70 949.62 567.13 1072.74 579.07
00013806 00000062 755.01 177.53 370.08 523.80 924.98 387.58 1080.95 400.74 1054.42 467.43 949.09 567.86 1071.80 579.30
00013807 00000063 760.44 169.62 364.42 530.48 925.17 384.42 1088.16 393.58 1059.36 465.91 943.07 573.48 1075.13 581.80
00013808 00000064 759.58 172.06 363.64 528.87 923.42 385.95 1086.93 394.60 1058.20 466.11 942.19 574.46 1074.61 582.38
00013809 00000065 758.84 174.06 363.38 525.71 921.06 386.48 1086.78 393.76 1056.04 467.24 941.02 575.42 1073.85 582.13
00013810 00000066 757.61 174.57 364.38 525.54 919.37 387.22 1085.66 393.75 1054.84 466.94 940.53 575.79 1073.67 581.86
00013811 00000067 757.10 174.34 364.12 525.14 918.67 386.49 1085.14 393.72 1053.72 466.42 939.74 575.37 1072.46 582.01
00013812 00000068 756.52 173.70 363.88 525.19 917.87 386.00 1084.20 392.96 1053.07 466.03 939.44 574.80 1072.02 581.27
00013813 00000069 756.28 173.35 363.97 525.05 917.66 386.50 1083.53 392.82 1052.85 466.51 939.58 574.91 1071.66 580.83
00013814 00000070 756.13 173.50 364.16 524.79 917.23 386.85 1083.95 393.32 1052.83 466.54 939.60 575.44 1071.84 581.41
00013815 00000071 756.71 173.94 363.86 524.59 918.50 386.92 1084.37 393.65 1054.22 466.54 940.70 575.33 1072.45 581.55
00013816 00000072 757.44 174.17 363.60 524.44 919.14 386.54 1084.86 392.77 1054.66 466.48 941.43 575.59 1073.14 581.44
00013817 00000073 756.94 173.22 364.41 525.48 919.25 386.63 1085.26 393.46 1054.36 467.22 940.78 575.71 1072.52 582.04
00013818 00000074 757.15 171.04 360.64 526.91 919.64 394.27 1083.13 399.08 1052.42 468.63 938.61 576.05 1071.11 580.86
00013819 00000075 756.37 172.35 360.20 527.68 918.77 395.28 1080.97 400.51 1051.53 468.74 938.23 576.90 1069.60 582.09
00013820 00000076 756.42 174.24 362.54 530.45 917.89 392.30 1081.00 398.93 1051.24 467.36 934.88 576.47 1068.23 582.99
00013821 00000077 755.13 175.70 362.97 531.98 918.70 392.03 1080.45 398.96 1054.15 467.57 935.31 576.36 1069.34 583.19
00013822 00000078 755.63 177.17 362.35 530.25 919.17 390.63 1081.58 397.32 1054.93 468.47 935.05 576.39 1069.72 583.23
00013823 00000079 756.08 176.42 362.97 528.35 918.19 389.36 1081.70 394.44 1053.75 468.47 934.54 575.39 1070.17 580.88
00013824 00000080 755.52 176.06 361.82 525.33 917.98 389.89 1080.60 393.82 1052.86 468.30 933.63 573.00 1069.28 577.60
00013825 00000081 754.90 175.61 360.86 523.61 918.11 389.99 1079.09 392.60 1052.14 466.89 936.64 573.05 1069.25 576.30
00013826 00000082 753.94 175.78 359.51 521.43 918.33 389.16 1077.49 391.04 1051.86 466.43 940.75 574.50 1069.28 576.80
00013827 00000083 753.69 174.12 359.46 522.81 917.15 388.11 1076.16 389.84 1050.72 465.69 942.04 574.95 1069.16 577.08
00013828 00000084 753.07 172.95 359.56 524.11 916.03 388.31 1075.69 389.08 1049.92 466.09 941.21 575.23 1069.21 576.56
00013829 00000085 752.51 173.67 359.93 523.40 915.38 388.09 1074.91 388.42 1049.09 465.66 941.21 575.45 1068.49 576.44
00013830 00000086 752.47 173.96 359.90 523.23 915.51 387.92 1075.17 389.06 1049.60 465.26 941.37 575.01 1068.85 576.62
00013831 00000087 752.64 174.14 360.64 523.57 916.10 388.05 1075.10 388.65 1049.81 465.63 942.33 575.24 1069.23 576.36
00013832 00000088 752.68 174.21 360.66 523.88 916.32 388.08 1075.83 388.57 1050.13 465.90 942.70 575.94 1069.60 576.92
00013833 00000089 751.89 173.84 361.10 524.57 916.50 389.06 1075.70 389.38 1050.76 466.56 942.67 576.22 1069.51 577.11
00013834 00000090 751.82 174.06 361.58 525.24 916.93 389.83 1076.11 389.92 1051.55 467.50 942.82 576.83 1069.84 577.51
00013835 00000091 751.56 174.77 362.02 525.15 916.94 390.16 1076.10 390.44 1051.40 467.99 942.76 577.08 1069.75 577.87
00013836 00000092 752.30 174.53 361.28 524.87 917.18 390.04 1076.20 390.31 1051.61 468.10 943.31 577.26 1069.90 578.07
00013837 00000093 752.38 174.75 361.44 524.96 917.24 390.04 1076.27 390.52 1051.70 467.95 943.13 577.04 1069.96 578.04
00013838 00000094 752.96 175.20 360.89 524.10 917.47 390.18 1076.83 390.34 1051.88 468.27 943.40 577.22 1070.41 577.97
00013839 00000095 754.21 176.14 360.53 523.85 918.64 390.44 1077.24 390.91 1052.50 468.62 943.99 577.33 1070.83 578.33
00013840 00000096 755.40 176.05 361.17 524.02 920.10 390.99 1078.46 391.95 1053.54 469.61 945.33 577.97 1071.53 579.31
00013841 00000097 756.38 177.58 362.01 523.96 921.33 391.31 1079.29 391.99 1054.05 470.11 946.32 578.91 1072.17 580.10
00013842 00000098 758.12 177.85 361.22 525.53 922.78 390.86 1080.47 392.82 1054.79 469.99 946.17 579.22 1072.61 581.60
00013843 00000099 759.65 179.09 361.62 526.86 925.15 392.21 1081.87 394.34 1056.43 471.99 946.45 579.59 1073.27 582.17
00013844 00000100 759.95 177.78 362.24 528.63 926.65 393.36 1083.28 395.97 1057.69 472.81 947.18 579.88 1074.05 582.79
00013845 00000101 753.62 184.13 369.04 519.89 923.49 394.04 1072.55 395.18 1050.21 472.78 956.89 573.57 1069.44 574.92
00013846 00000102 756.80 177.51 364.09 521.91 921.05 390.03 1079.10 388.91 1054.02 469.21 949.12 578.58 1073.87 577.89
00013847 00000103 754.13 175.69 363.98 518.22 911.76 389.59 1074.25 384.71 1046.04 465.21 942.94 576.46 1071.02 572.85
00013848 00000104 752.53 173.20 362.89 517.26 904.84 388.50 1068.95 381.55 1038.49 462.93 936.83 573.86 1067.21 568.82
00013849 00000105 751.15 174.78 363.08 516.46 903.25 389.73 1068.41 380.63 1037.89 463.41 935.41 574.64 1067.20 567.73
00013850 00000106 749.50 175.70 362.71 517.90 900.05 391.90 1065.83 380.15 1035.81 465.19 933.38 576.52 1066.02 567.42
CROP_BBOX: 416 0 1350 901
