Video ID: 	W1d-IsNpqNM
H: 	1080
W: 	1920
FPS: 	29.97002997002997

FRAME INDEX X0 Y0 W H [Landmarks (5 Points)]

00004826 00000000 638.35 288.60 390.07 508.73 725.97 430.34 919.36 417.42 811.69 485.63 748.76 631.13 927.30 622.21
00004827 DELETE   640.48 283.31 390.92 514.96 728.36 428.73 921.28 418.90 813.90 481.32 748.73 630.13 926.95 623.92
00004828 DELETE   640.24 279.06 392.00 521.10 730.57 425.23 924.40 418.83 817.38 479.78 748.26 628.10 927.77 624.57
00004829 00000003 638.71 276.58 395.10 522.81 730.07 424.58 926.42 417.51 820.75 481.58 750.25 629.18 931.47 624.88
00004830 00000004 638.13 272.14 394.60 526.73 730.56 424.42 927.07 419.01 822.43 480.09 751.56 629.09 932.04 626.06
00004831 00000005 635.91 268.30 393.52 529.47 731.19 425.14 926.75 421.65 823.33 483.05 754.73 632.62 927.80 630.96
00004832 00000006 636.03 269.80 390.55 522.26 733.98 428.39 924.99 424.45 823.73 487.45 758.80 633.23 922.33 630.84
00004833 00000007 636.19 270.57 390.64 515.72 735.24 431.42 924.16 424.96 823.17 490.28 760.89 634.97 918.67 630.31
00004834 00000008 630.88 271.15 397.88 507.41 729.79 432.19 921.34 425.80 815.77 490.51 753.17 629.95 916.24 624.74
00004835 00000009 627.12 275.51 393.75 502.42 725.11 434.42 914.96 427.24 809.83 493.43 746.20 633.46 906.99 627.22
00004836 00000010 624.38 281.69 394.81 500.17 722.20 435.45 912.34 427.05 808.83 496.72 744.99 636.54 904.77 628.99
00004837 00000011 621.09 291.16 399.14 500.43 718.82 429.43 912.88 413.94 807.45 491.32 740.79 646.75 899.41 633.87
00004838 00000012 619.72 291.51 397.48 500.53 715.75 431.66 907.14 414.78 801.35 491.29 736.33 646.85 896.79 633.12
00004839 00000013 617.99 290.07 398.84 500.82 713.06 432.06 904.06 414.01 798.88 490.00 736.36 646.52 896.67 631.71
00004840 00000014 616.45 285.54 397.28 501.85 709.83 434.49 900.72 416.37 794.23 496.05 735.15 647.39 892.62 632.68
00004841 00000015 614.66 277.02 394.38 511.03 708.50 437.92 901.10 427.44 792.18 500.63 734.43 643.55 893.18 634.19
00004842 00000016 613.16 281.89 397.94 514.35 705.87 435.61 894.74 418.60 789.82 501.32 733.06 650.41 886.09 636.98
00004843 00000017 610.42 277.86 397.02 521.00 702.63 436.31 891.29 420.53 787.34 500.77 728.43 651.78 880.57 639.37
00004844 00000018 609.42 277.20 397.68 520.71 701.32 436.55 891.41 420.76 786.06 500.03 726.25 651.99 882.22 639.52
00004845 00000019 609.51 273.60 392.64 515.98 700.18 439.56 893.71 426.03 785.93 501.06 728.16 647.32 886.54 635.88
00004846 00000020 607.42 279.94 396.84 508.30 697.58 438.35 891.21 424.06 785.80 500.20 716.52 646.50 882.09 635.50
00004847 00000021 603.87 279.64 397.84 503.44 691.19 432.11 899.10 427.00 792.29 503.28 709.07 640.99 883.74 637.03
00004848 00000022 604.61 279.14 397.19 507.66 690.46 433.96 897.55 428.33 791.70 501.95 708.73 642.36 884.53 637.81
00004849 00000023 604.06 275.68 398.82 521.48 693.37 437.84 890.00 423.99 785.13 497.99 714.87 651.85 884.79 641.41
00004850 00000024 603.71 277.08 400.65 522.10 693.06 437.91 890.45 422.58 782.49 500.39 716.23 654.15 887.06 642.67
00004851 00000025 603.27 276.83 401.64 522.73 692.43 437.06 890.46 422.06 781.63 500.58 715.51 653.73 888.48 642.57
00004852 00000026 603.58 274.25 404.33 525.55 692.65 437.69 891.10 422.44 780.59 499.97 715.73 654.93 889.78 643.82
00004853 00000027 604.34 279.77 403.82 521.59 691.83 439.32 890.46 422.64 780.01 499.49 714.62 656.37 892.63 644.06
00004854 00000028 603.10 278.14 405.81 523.23 691.17 439.61 889.75 422.70 779.40 499.17 714.57 656.24 892.59 643.71
00004855 00000029 603.65 286.14 405.51 503.70 686.75 440.52 897.11 428.13 787.04 503.28 714.05 655.98 888.06 645.46
00004856 00000030 602.09 281.17 407.39 503.59 688.34 441.08 897.74 427.92 785.28 504.57 717.87 655.23 883.96 643.78
00004857 00000031 604.13 289.12 403.99 492.94 687.06 444.15 897.31 429.37 785.38 504.23 714.86 656.90 887.19 644.04
00004858 00000032 604.50 295.03 398.34 487.06 694.08 450.39 890.98 431.23 784.25 502.81 722.00 652.78 888.21 635.99
00004859 00000033 602.78 293.05 399.90 512.31 693.16 440.68 886.50 430.25 780.64 503.55 714.34 655.61 874.69 647.35
00004860 00000034 604.70 299.87 394.31 504.93 688.69 440.77 887.41 424.62 777.82 493.68 712.73 654.50 880.18 641.79
00004861 00000035 604.82 300.72 397.07 516.07 687.55 442.77 888.25 424.45 778.70 491.75 710.81 659.29 884.25 645.22
00004862 00000036 604.12 298.17 397.85 517.44 687.53 442.63 889.11 424.83 779.27 491.96 710.89 659.00 885.48 645.16
00004863 00000037 603.66 296.49 401.97 531.29 691.61 439.17 887.56 424.66 782.58 499.60 713.19 661.65 888.69 650.70
00004864 00000038 604.77 294.83 400.66 532.02 692.04 439.24 887.96 425.12 781.28 499.87 712.74 661.67 888.65 651.10
00004865 00000039 604.16 293.24 401.03 532.28 691.48 438.72 887.23 424.93 780.12 501.04 712.71 660.84 887.45 650.36
00004866 00000040 604.70 293.56 395.80 520.81 687.00 441.01 889.19 423.85 778.04 492.32 709.82 658.00 884.56 644.60
00004867 00000041 604.29 294.27 395.81 519.79 687.86 440.93 889.02 424.47 778.32 492.87 710.06 658.02 883.00 645.21
00004868 00000042 603.72 295.07 396.31 519.12 688.10 440.51 889.82 425.52 777.98 493.71 708.99 658.01 881.00 646.51
00004869 00000043 603.02 294.81 396.16 518.56 687.64 439.57 889.12 424.89 777.56 494.76 708.17 656.38 880.47 645.03
00004870 00000044 603.07 292.38 396.13 519.12 686.85 438.48 889.78 424.27 778.43 496.21 708.28 655.27 882.03 644.21
00004871 00000045 604.32 291.72 395.08 512.80 687.00 439.16 890.29 425.60 777.59 495.07 708.81 653.90 882.76 643.22
00004872 00000046 604.60 290.44 395.42 513.07 687.14 439.02 890.32 425.84 777.27 495.92 709.31 653.78 882.18 643.46
00004873 00000047 605.14 284.49 400.57 515.78 692.09 439.11 889.94 427.45 777.03 504.70 710.62 658.18 881.32 649.94
00004874 00000048 603.39 284.61 401.49 513.44 690.99 442.71 888.28 429.33 775.05 503.80 710.49 660.60 877.19 650.61
00004875 00000049 603.91 285.26 399.90 510.84 691.41 442.72 887.79 430.08 775.10 506.57 710.51 659.59 874.54 650.34
00004876 00000050 605.00 283.89 394.42 509.35 684.76 444.79 887.12 431.81 767.27 499.57 708.67 658.92 878.01 647.76
00004877 00000051 603.16 294.83 398.05 495.71 681.50 441.74 892.93 430.62 780.93 506.63 709.15 658.75 881.35 649.31
00004878 00000052 603.34 296.70 397.76 494.00 681.07 442.58 892.25 431.13 779.90 507.19 708.63 659.00 880.80 649.29
00004879 00000053 602.62 287.54 391.77 504.46 682.62 445.98 884.78 432.58 765.92 500.26 706.41 658.39 876.65 646.83
00004880 00000054 602.59 292.87 390.36 499.94 683.12 447.32 882.73 433.87 764.87 502.69 706.53 659.00 874.64 647.71
00004881 00000055 602.33 293.13 390.43 501.38 682.58 448.40 882.39 434.08 764.06 502.87 706.05 659.61 874.95 647.53
00004882 00000056 601.29 295.34 391.30 498.45 681.92 449.13 881.29 433.66 763.73 502.65 705.50 659.67 874.66 646.64
00004883 00000057 600.57 297.88 392.38 498.12 682.05 449.49 880.83 433.94 763.91 504.12 704.55 658.83 873.87 645.75
00004884 00000058 600.01 297.45 393.16 497.85 681.52 449.86 880.74 434.55 763.39 504.69 703.53 658.94 873.41 646.05
00004885 00000059 599.85 297.79 392.86 497.23 681.36 449.35 880.55 433.21 763.32 503.30 703.69 658.36 874.04 644.75
00004886 00000060 600.70 296.45 391.26 497.52 682.08 449.61 880.85 434.91 763.20 503.96 702.45 657.94 872.41 645.78
00004887 00000061 600.67 297.43 391.12 496.91 681.10 450.08 880.06 435.04 762.01 504.64 701.11 658.17 872.55 645.70
00004888 00000062 599.68 302.99 391.21 491.25 679.93 451.55 878.28 435.60 761.51 504.61 699.73 658.44 872.24 645.55
00004889 00000063 600.44 304.28 391.09 491.83 680.09 451.74 878.19 435.58 761.34 504.36 699.61 658.01 872.61 644.95
00004890 00000064 599.55 304.20 392.51 491.36 679.76 451.14 877.84 436.05 761.08 504.17 697.71 656.76 871.26 644.74
00004891 00000065 599.75 304.99 391.77 486.62 680.59 450.40 877.83 436.18 762.58 504.75 698.72 654.79 869.87 643.33
00004892 00000066 600.07 305.14 390.88 485.61 680.38 451.94 877.22 436.23 762.10 504.83 700.15 656.40 869.50 643.62
00004893 00000067 601.05 307.42 389.84 481.98 680.17 451.83 876.48 435.95 760.87 504.26 700.93 656.05 869.50 643.10
00004894 00000068 600.42 308.66 390.13 477.00 679.27 452.71 875.36 435.83 759.89 504.46 701.34 655.09 869.99 641.23
00004895 00000069 599.97 311.24 389.37 475.85 678.35 452.96 873.68 434.22 759.60 504.74 701.99 654.14 871.35 638.53
00004896 00000070 600.21 311.32 390.30 476.19 678.27 453.78 874.45 435.11 760.40 503.83 701.63 654.14 873.11 638.60
00004897 00000071 599.89 309.26 389.24 478.04 678.35 454.35 873.38 434.67 759.75 505.76 703.16 654.30 871.96 637.77
00004898 00000072 597.58 308.67 389.13 478.89 675.00 455.33 869.80 433.54 756.34 507.42 700.72 655.41 867.95 637.45
00004899 00000073 595.86 309.08 390.55 479.75 673.23 455.50 868.77 433.00 755.83 507.67 699.29 655.69 867.39 637.66
00004900 00000074 596.63 307.06 389.98 478.05 671.81 456.47 868.42 432.52 754.69 506.79 699.66 655.56 868.81 635.94
00004901 00000075 595.87 309.15 390.05 476.74 671.44 456.38 867.28 433.43 753.48 506.53 698.96 656.21 866.77 637.36
00004902 00000076 595.55 309.48 389.65 477.12 670.53 456.40 866.41 433.82 752.38 506.12 697.22 655.76 864.87 637.50
00004903 00000077 594.24 312.07 389.98 473.39 670.15 457.85 863.69 436.02 751.49 506.35 697.31 654.43 863.49 637.05
00004904 DELETE   591.10 314.12 394.28 469.68 670.63 460.72 865.53 441.12 752.42 506.85 698.21 657.79 862.51 641.87
00004905 00000079 590.51 311.92 394.53 470.01 672.32 461.32 866.89 443.73 752.81 507.67 699.13 660.41 858.62 646.04
00004906 00000080 589.12 310.88 389.94 480.44 672.70 456.95 859.50 440.59 748.22 513.37 695.29 660.79 844.61 648.95
00004907 00000081 590.11 314.16 388.51 478.54 672.20 458.67 853.38 435.83 745.67 514.06 700.63 663.35 839.50 646.54
00004908 00000082 590.34 315.84 386.58 477.72 672.21 458.40 853.24 434.32 746.50 514.64 704.44 664.75 839.97 646.97
00004909 00000083 590.56 315.08 388.85 478.37 668.70 460.58 850.76 430.39 742.74 509.82 703.69 664.24 844.91 641.54
00004910 00000084 587.10 297.03 396.02 495.28 661.07 464.76 851.60 423.21 742.80 506.46 700.93 661.37 863.58 628.01
00004911 00000085 585.82 297.09 396.01 493.89 657.69 466.75 849.64 422.85 739.36 506.67 698.41 661.95 862.44 626.60
00004912 00000086 585.16 299.96 394.36 493.18 656.91 469.04 846.70 421.77 738.45 511.66 700.15 663.60 863.36 625.51
00004913 00000087 588.36 299.15 396.52 494.58 658.02 468.51 849.44 418.77 742.36 515.39 706.33 667.65 870.44 627.04
00004914 00000088 591.07 301.04 394.37 491.70 660.57 468.73 851.26 419.38 744.16 515.36 708.70 667.40 870.47 627.06
00004915 00000089 594.27 294.29 391.07 496.12 663.67 467.45 854.87 423.62 742.72 514.54 708.76 667.22 868.25 631.15
00004916 00000090 594.44 298.41 393.28 493.05 665.06 466.56 854.04 421.56 744.14 515.91 710.93 666.14 869.56 629.24
00004917 00000091 599.26 295.30 400.81 493.52 660.62 468.69 857.56 426.62 755.63 511.61 717.82 672.59 872.34 637.56
00004918 DELETE   606.04 311.28 394.44 475.94 663.54 472.09 859.24 427.60 759.66 508.24 724.76 676.09 879.16 638.64
00004919 00000093 606.51 314.75 393.34 482.56 664.44 472.72 865.60 430.35 760.53 511.35 727.27 680.78 880.59 644.97
00004920 00000094 607.19 313.39 394.05 495.26 667.88 468.34 866.52 427.92 762.74 510.43 727.14 681.89 879.76 647.62
00004921 00000095 610.81 312.97 391.16 491.08 665.99 466.85 864.47 424.59 759.71 511.60 725.29 680.14 879.38 644.48
00004922 DELETE   610.90 311.66 393.87 475.37 669.30 464.77 865.70 426.85 757.85 512.16 722.57 671.62 874.09 639.77
00004923 00000097 612.31 311.08 393.50 472.92 669.86 463.33 866.74 425.30 757.53 513.76 722.22 669.10 874.82 637.08
00004924 00000098 613.07 310.08 393.61 473.41 669.04 464.38 867.29 424.09 758.41 512.89 722.85 670.62 877.82 636.83
00004925 00000099 613.77 300.30 389.30 490.74 672.44 461.19 871.41 422.44 761.28 508.88 725.10 672.75 876.23 640.53
00004926 00000100 614.76 301.07 386.84 496.33 671.40 459.78 871.00 421.79 760.75 506.80 724.92 675.92 877.70 644.20
00004927 00000101 608.72 300.48 388.09 523.06 678.74 458.49 870.71 416.74 763.22 504.70 720.45 676.02 884.07 642.96
00004928 00000102 608.73 303.00 389.01 522.72 678.07 458.18 871.87 415.53 764.09 504.16 718.72 674.73 889.70 640.93
00004929 00000103 608.58 301.82 390.11 526.71 678.04 458.70 872.55 414.91 764.91 505.55 718.99 674.73 892.26 639.83
00004930 00000104 608.44 301.25 388.41 519.45 677.48 458.27 872.37 416.43 763.28 505.27 717.63 671.70 890.67 638.50
00004931 00000105 614.57 304.87 390.26 491.95 666.05 459.04 872.03 418.03 758.17 510.29 716.37 670.74 891.90 636.70
00004932 DELETE   612.37 300.32 391.79 494.27 664.72 457.51 872.30 416.80 757.39 509.16 714.70 670.45 890.59 636.98
00004933 00000107 608.59 295.28 392.96 496.91 661.44 456.86 869.59 415.05 757.35 507.85 711.16 668.63 888.72 634.58
00004934 DELETE   599.68 294.90 393.71 505.73 664.70 459.02 866.59 414.28 751.09 505.30 705.40 667.10 886.49 630.45
00004935 00000109 597.17 300.01 393.35 501.60 665.11 458.72 864.01 415.80 750.46 505.41 704.39 665.89 881.31 631.20
00004936 00000110 594.63 308.84 393.89 493.16 666.12 460.07 862.44 418.40 747.98 505.30 703.61 665.35 878.36 632.00
00004937 00000111 593.17 307.53 393.77 496.10 663.61 457.67 862.96 418.57 746.14 505.32 700.32 664.51 879.01 633.27
00004938 00000112 592.56 308.91 395.41 494.43 662.10 460.59 860.63 418.06 744.80 506.95 699.99 664.72 880.20 630.77
00004939 00000113 590.64 305.59 394.41 494.59 657.38 458.16 859.94 413.32 743.43 503.95 695.93 663.70 880.54 627.55
00004940 00000114 589.35 297.81 395.30 504.41 655.21 457.10 860.20 411.63 743.97 504.10 694.10 662.53 882.34 625.81
00004941 00000115 588.46 296.43 397.75 506.46 654.35 456.00 860.76 410.40 743.55 503.90 693.78 662.28 883.17 625.29
00004942 00000116 588.34 291.81 397.97 512.82 654.23 455.60 860.30 409.90 744.23 502.88 694.19 662.65 882.08 625.54
00004943 00000117 587.83 294.16 398.79 509.51 654.01 455.68 860.18 409.61 743.30 501.42 693.80 663.21 881.74 625.83
00004944 00000118 589.18 293.78 396.55 503.13 655.20 455.03 861.38 410.47 743.99 500.75 694.16 660.93 882.43 624.41
00004945 00000119 593.83 294.53 402.32 503.27 649.97 455.54 863.32 415.37 752.62 499.63 695.57 664.39 883.96 632.42
00004946 00000120 591.41 298.16 393.63 496.60 657.22 457.57 860.57 413.20 744.57 501.61 697.15 662.34 882.39 626.12
00004947 00000121 591.87 299.32 392.91 496.86 657.90 458.07 860.47 413.51 744.92 502.43 698.20 663.70 882.13 627.42
00004948 00000122 592.67 296.99 394.38 499.71 658.71 458.37 860.81 414.36 744.71 501.83 698.61 664.52 880.78 628.73
00004949 00000123 593.58 294.00 394.38 505.85 660.65 459.00 861.89 415.49 747.26 502.48 702.69 667.67 880.18 632.67
00004950 00000124 594.74 291.83 393.25 508.26 661.43 457.28 862.08 415.33 746.65 502.30 702.33 667.02 877.65 633.30
00004951 00000125 311.37 134.12 274.39 346.85
00004952 00000126 311.39 134.23 274.37 346.87
00004953 00000127 311.42 134.35 274.36 346.90
00004954 00000128 311.45 134.46 274.35 346.93
00004955 00000129 311.48 134.57 274.33 346.95
00004956 00000130 311.51 134.62 274.31 347.04
00004957 00000131 311.54 134.59 274.28 347.21
00004958 00000132 311.57 134.56 274.25 347.39
00004959 00000133 311.60 134.54 274.22 347.56
00004960 00000134 311.63 134.51 274.19 347.73
00004961 00000135 311.66 134.48 274.16 347.91
00004962 00000136 311.66 134.37 274.17 348.10
00004963 00000137 311.63 134.17 274.22 348.32
00004964 00000138 311.61 133.97 274.27 348.54
00004965 00000139 311.58 133.77 274.32 348.76
00004966 00000140 311.55 133.57 274.37 348.97
00004967 00000141 311.52 133.37 274.42 349.19
00004968 00000142 311.46 133.39 274.44 349.37
00004969 00000143 311.34 133.68 274.43 349.51
00004970 00000144 311.23 133.96 274.42 349.64
00004971 00000145 311.11 134.25 274.41 349.78
00004972 00000146 311.00 134.54 274.40 349.91
00004973 00000147 310.88 134.83 274.39 350.05
00004974 00000148 310.84 135.02 274.34 350.09
00004975 00000149 310.88 135.09 274.26 350.01
00004976 00000150 310.92 135.16 274.17 349.93
00004977 00000151 310.97 135.23 274.09 349.85
00004978 00000152 311.01 135.30 274.00 349.78
00004979 00000153 311.05 135.37 273.92 349.70
00004980 00000154 310.99 135.65 273.87 349.64
00004981 00000155 310.81 136.17 273.86 349.60
00004982 00000156 310.63 136.69 273.86 349.57
00004983 00000157 310.45 137.20 273.85 349.53
00004984 00000158 310.26 137.72 273.84 349.50
00004985 00000159 310.08 138.24 273.84 349.46
00004986 00000160 309.89 138.47 273.84 349.32
00004987 00000161 309.68 138.38 273.85 349.06
00004988 00000162 309.48 138.28 273.86 348.80
00004989 00000163 309.28 138.18 273.87 348.54
00004990 00000164 309.07 138.08 273.87 348.27
00004991 00000165 308.87 137.98 273.88 348.01
00004992 00000166 308.72 137.87 273.89 347.79
00004993 00000167 308.65 137.74 273.91 347.63
00004994 00000168 308.57 137.62 273.92 347.46
00004995 00000169 308.49 137.49 273.93 347.29
00004996 00000170 308.42 137.36 273.95 347.12
00004997 00000171 308.34 137.23 273.96 346.96
00004998 00000172 582.32 311.97 389.41 511.78 654.98 471.73 846.36 435.08 736.98 529.46 695.84 685.76 852.51 657.79
00004999 00000173 582.69 312.99 388.98 511.25 654.01 471.61 847.32 434.04 738.24 530.15 695.68 685.73 859.30 656.76
00005000 00000174 582.45 313.40 390.39 510.24 652.57 472.75 847.31 434.86 736.99 532.52 694.49 685.93 862.04 656.40
00005001 00000175 307.12 139.49 273.68 347.56
00005002 00000176 306.78 140.16 273.60 347.76
00005003 00000177 306.44 140.83 273.52 347.96
00005004 00000178 306.03 141.18 273.48 348.03
00005005 00000179 305.53 141.21 273.48 347.97
00005006 00000180 575.08 323.07 398.73 500.82 644.61 481.26 839.04 443.14 723.06 539.07 686.88 691.88 852.47 661.65
00005007 00000181 304.54 141.26 273.49 347.83
00005008 00000182 304.04 141.28 273.50 347.76
00005009 00000183 303.54 141.31 273.50 347.70
00005010 00000184 303.21 141.62 273.45 347.72
00005011 00000185 575.58 322.26 395.59 504.21 646.08 483.21 837.40 445.49 722.22 538.75 689.54 693.60 846.61 664.01
00005012 00000186 302.89 142.83 273.23 347.95
00005013 00000187 577.19 325.15 392.20 508.27 644.49 481.90 837.67 444.61 724.56 538.19 684.95 693.95 849.12 664.83
00005014 00000188 577.44 326.61 391.87 506.90 644.70 482.20 837.36 444.65 725.80 538.33 685.44 693.81 850.58 664.40
00005015 00000189 576.91 325.30 392.86 504.35 645.12 484.06 836.83 447.06 724.95 540.68 688.42 695.59 848.66 666.54
00005016 00000190 576.56 325.66 393.85 496.11 647.57 485.92 835.91 448.71 726.02 539.11 688.52 692.32 844.95 663.16
00005017 00000191 575.38 324.44 396.47 495.33 648.70 486.28 835.16 449.47 724.30 538.77 688.65 691.24 841.48 662.13
00005018 00000192 302.65 143.76 273.21 348.05
00005019 00000193 302.78 143.27 273.35 347.92
00005020 00000194 302.91 142.79 273.50 347.80
00005021 DELETE   303.04 142.31 273.65 347.68
00005022 00000196 303.23 142.33 273.67 347.59
00005023 00000197 581.59 331.12 390.90 499.36 652.75 483.36 842.15 445.62 733.57 542.06 694.66 692.37 855.70 662.75
00005024 00000198 583.28 330.92 392.27 501.21 653.96 483.30 841.94 443.95 735.31 541.39 695.84 691.12 859.16 660.23
00005025 00000199 582.11 325.81 394.09 499.49 653.40 484.94 845.11 445.43 735.01 540.08 696.02 691.86 860.04 660.31
00005026 00000200 583.63 325.62 391.56 496.77 653.96 484.96 846.28 446.96 736.59 537.89 694.57 690.31 859.88 660.11
00005027 00000201 583.54 326.10 393.43 494.11 656.58 483.70 845.04 447.81 734.45 535.63 694.89 687.31 851.04 659.12
00005028 00000202 583.73 323.24 395.34 492.85 656.75 484.34 847.39 448.45 736.15 534.44 693.43 684.96 854.64 656.69
00005029 00000203 304.86 145.02 273.23 346.87
00005030 00000204 304.98 144.93 273.26 346.57
00005031 00000205 305.11 144.84 273.30 346.27
00005032 00000206 305.23 144.75 273.33 345.98
00005033 00000207 305.36 144.66 273.37 345.68
00005034 00000208 305.49 144.45 273.34 345.46
00005035 00000209 305.63 144.10 273.26 345.30
00005036 00000210 305.76 143.76 273.18 345.14
00005037 00000211 305.90 143.42 273.10 344.98
00005038 00000212 306.04 143.08 273.01 344.83
00005039 00000213 306.17 142.74 272.93 344.67
00005040 00000214 306.28 143.08 272.81 344.62
00005041 00000215 306.36 144.05 272.65 344.68
00005042 00000216 306.44 145.02 272.49 344.73
