Video ID: 	eB1Tm9LWmHw
H: 	1080
W: 	1920
FPS: 	25.0

FRAME INDEX X0 Y0 W H [Landmarks (5 Points)]

00002945 00000000 669.14 218.27 450.97 603.50 875.85 421.46 1071.57 427.38 1040.98 506.59 929.05 655.05 1086.39 656.25
00002946 00000001 677.17 216.28 447.16 600.81 885.65 421.08 1078.91 429.68 1048.91 509.92 935.47 655.34 1088.99 659.13
00002947 00000002 682.93 219.47 449.75 603.50 889.80 425.30 1080.73 431.23 1052.15 516.05 937.25 658.21 1091.73 659.93
00002948 00000003 685.81 223.77 452.11 608.54 896.56 436.98 1086.92 443.97 1057.04 530.08 938.90 668.31 1093.61 671.33
00002949 00000004 691.31 228.85 450.11 614.55 903.62 447.00 1095.87 458.19 1066.73 542.65 940.53 675.73 1096.37 682.40
00002950 DELETE   685.46 230.13 458.47 626.97 914.86 456.96 1093.95 468.74 1071.37 568.83 948.99 686.69 1093.96 695.09
00002951 00000006 689.24 236.88 461.69 636.77 921.13 469.32 1103.20 480.06 1079.97 585.63 956.20 707.06 1100.07 714.61
00002952 00000007 691.64 251.29 465.29 630.61 922.77 477.10 1109.11 487.31 1084.56 599.57 960.95 722.76 1101.74 730.59
00002953 00000008 695.91 268.70 463.47 623.41 925.44 483.47 1118.91 493.64 1089.54 606.60 963.29 730.08 1110.81 735.51
00002954 00000009 699.75 271.83 461.37 626.51 926.76 492.09 1118.46 500.25 1089.61 614.15 965.10 738.56 1111.94 742.54
00002955 00000010 702.06 274.61 458.63 624.89 926.52 497.83 1117.19 503.58 1087.68 619.06 966.62 741.68 1110.76 743.82
00002956 00000011 700.22 275.08 459.92 624.92 925.97 498.47 1117.37 504.57 1087.97 619.21 965.96 741.57 1110.51 744.02
00002957 00000012 700.39 274.25 459.39 624.77 924.54 498.13 1116.37 503.09 1086.29 618.24 965.76 741.55 1110.87 743.03
00002958 00000013 698.75 271.84 460.32 627.70 923.13 495.66 1115.39 502.07 1085.36 616.19 965.31 741.44 1110.79 743.90
00002959 00000014 697.71 269.06 459.93 628.53 921.78 493.60 1114.10 498.51 1085.31 613.92 965.60 741.29 1111.33 742.46
00002960 00000015 695.59 270.08 459.38 628.45 918.21 493.14 1111.05 498.57 1081.35 612.61 962.77 740.01 1108.95 741.64
00002961 00000016 691.54 272.04 460.87 624.92 915.60 494.12 1108.64 498.05 1080.23 613.85 960.33 740.25 1106.56 740.79
00002962 00000017 689.21 270.79 462.16 627.78 911.89 494.50 1106.31 497.64 1076.51 613.37 958.57 740.10 1105.83 739.87
00002963 00000018 685.81 276.04 463.50 623.76 908.20 494.66 1103.77 498.48 1072.84 613.74 955.15 739.69 1103.06 740.12
00002964 00000019 684.76 276.78 462.60 624.36 906.69 494.71 1101.40 498.68 1070.24 614.57 953.28 740.69 1100.96 741.29
00002965 00000020 691.70 287.21 454.27 609.31 905.71 499.94 1098.91 499.18 1070.84 610.76 950.28 747.41 1097.57 744.57
00002966 00000021 689.32 287.93 455.68 610.25 904.06 498.18 1098.88 497.96 1069.71 610.90 949.06 748.25 1096.91 745.68
00002967 00000022 687.53 289.72 456.78 606.62 902.54 496.78 1096.58 494.68 1067.65 609.13 948.92 747.93 1096.15 743.75
00002968 00000023 685.27 288.40 456.76 607.31 899.06 495.96 1094.99 493.89 1064.00 608.09 946.26 747.72 1094.42 743.28
00002969 00000024 685.17 286.59 456.03 609.48 898.27 494.08 1093.85 491.00 1063.57 606.03 945.97 746.33 1094.34 740.98
00002970 00000025 685.08 287.32 455.53 607.65 896.71 492.05 1093.03 488.51 1062.46 604.89 944.02 744.57 1093.86 738.95
00002971 00000026 684.37 286.95 454.70 606.48 896.29 489.99 1091.96 486.16 1061.81 604.38 943.25 743.09 1092.95 737.34
00002972 00000027 685.23 285.22 452.97 605.91 895.99 487.71 1091.71 484.10 1060.46 602.84 941.30 740.62 1091.84 735.15
00002973 00000028 683.80 283.87 452.81 603.03 894.49 486.47 1090.84 481.49 1059.54 602.56 939.98 739.27 1091.11 732.86
00002974 00000029 683.20 282.13 452.30 604.18 894.29 483.55 1090.11 480.59 1058.05 600.44 938.26 736.08 1089.42 731.31
00002975 00000030 682.33 279.72 451.74 602.92 893.25 481.92 1089.22 479.43 1056.94 598.30 936.59 734.43 1087.57 730.08
00002976 00000031 680.72 278.88 452.03 600.08 890.73 480.01 1088.18 477.29 1053.53 597.73 934.15 732.69 1085.91 728.16
00002977 00000032 681.28 276.37 449.58 600.27 890.86 477.31 1088.02 476.00 1051.96 595.65 932.29 729.90 1083.79 726.52
00002978 00000033 681.06 273.93 448.32 601.94 890.87 474.94 1087.94 474.64 1052.04 593.23 931.67 727.75 1083.54 725.17
00002979 00000034 682.05 270.85 447.35 605.15 891.15 471.82 1087.04 472.38 1051.01 589.60 930.53 724.52 1083.08 722.58
00002980 00000035 681.22 262.46 449.73 616.45 892.24 469.77 1083.41 469.42 1051.46 582.28 930.23 719.64 1083.20 716.84
00002981 00000036 676.70 253.28 454.10 623.56 889.79 468.71 1079.85 468.21 1047.68 578.64 925.72 714.61 1080.09 711.59
00002982 00000037 672.28 246.28 458.37 630.70 887.03 462.30 1075.58 461.09 1047.23 571.02 919.74 706.30 1078.79 703.00
00002983 00000038 671.23 245.44 460.19 626.66 887.05 456.35 1072.98 457.13 1046.96 563.22 915.76 697.90 1074.49 696.76
00002984 00000039 671.92 240.88 460.36 632.19 887.93 453.99 1073.79 457.57 1049.83 559.52 912.81 694.29 1072.87 695.63
00002985 00000040 673.53 243.93 461.33 630.86 887.44 452.82 1077.62 458.73 1051.03 560.82 908.47 693.48 1073.97 696.89
00002986 00000041 678.46 247.48 459.15 628.07 890.46 455.90 1081.01 461.29 1052.07 566.49 909.84 695.24 1076.21 698.64
00002987 00000042 676.26 236.60 469.01 642.20 899.58 457.18 1082.65 473.90 1054.98 572.04 918.72 695.32 1076.08 709.00
00002988 00000043 686.31 255.65 457.58 630.83 902.49 467.12 1090.44 478.21 1057.94 576.78 922.77 707.03 1082.99 714.69
00002989 00000044 688.41 264.72 458.51 625.98 906.72 471.44 1095.83 480.69 1064.61 585.62 929.93 713.09 1088.20 719.25
00002990 00000045 683.66 258.00 469.99 637.31 906.22 473.53 1099.79 486.22 1067.49 595.17 935.69 719.57 1091.62 729.85
00002991 00000046 685.61 258.21 470.23 643.66 905.73 475.36 1097.47 486.49 1064.57 599.20 936.02 723.83 1090.56 732.97
00002992 00000047 684.37 261.85 471.18 645.36 904.41 477.33 1096.05 485.91 1066.83 601.54 931.82 727.04 1089.31 734.56
00002993 00000048 680.92 265.17 473.11 642.37 901.26 477.85 1093.64 485.93 1065.16 602.58 929.15 727.18 1086.95 734.45
00002994 00000049 687.46 279.77 459.60 623.76 900.79 479.71 1092.89 484.94 1059.07 598.20 924.33 724.68 1086.92 728.27
00002995 00000050 687.26 284.03 458.20 620.81 899.69 480.88 1093.51 485.92 1058.06 601.70 922.28 727.44 1086.45 730.97
00002996 00000051 686.40 290.16 459.19 616.56 897.65 482.77 1093.59 488.29 1055.68 603.14 920.69 729.36 1086.28 733.16
00002997 00000052 686.88 291.68 458.09 615.47 896.23 485.03 1092.14 488.35 1054.44 604.11 922.18 731.90 1086.35 733.63
00002998 00000053 683.11 292.13 459.15 614.63 894.43 486.37 1091.92 488.71 1054.47 604.59 922.91 734.09 1086.64 734.75
00002999 00000054 683.18 292.32 458.22 612.58 892.45 486.38 1091.28 488.44 1052.90 604.80 924.37 735.98 1087.40 736.17
00003000 00000055 683.68 291.03 456.20 612.90 889.55 486.86 1090.19 488.53 1050.11 605.10 923.00 737.63 1086.17 737.39
00003001 00000056 685.49 288.18 452.74 612.74 888.44 486.92 1090.01 489.17 1049.14 606.24 921.77 739.01 1085.06 739.24
00003002 00000057 684.80 286.56 452.90 613.85 888.29 486.42 1090.48 491.12 1048.20 607.23 921.90 738.91 1084.35 740.91
00003003 00000058 680.17 286.63 455.21 613.09 887.01 487.02 1089.69 493.06 1047.42 607.43 920.11 738.63 1083.50 741.65
00003004 00000059 678.65 286.80 456.15 612.63 885.22 486.64 1088.79 492.46 1045.61 608.76 919.60 739.37 1082.73 742.07
00003005 00000060 676.39 285.12 456.95 612.94 885.10 486.51 1087.84 493.00 1045.13 609.23 919.71 738.57 1080.83 741.65
00003006 00000061 675.91 284.74 455.69 609.84 883.38 485.78 1085.98 490.50 1043.54 608.59 919.50 737.87 1079.81 739.43
00003007 00000062 675.75 284.69 455.43 609.27 883.48 485.36 1085.41 490.50 1043.33 607.96 919.25 737.35 1079.18 739.27
00003008 00000063 675.86 284.64 454.96 610.16 883.47 485.70 1085.37 491.24 1043.16 607.73 918.62 737.19 1078.85 739.45
00003009 00000064 676.56 284.28 454.43 610.78 884.08 485.96 1085.45 491.00 1043.75 607.20 920.19 738.09 1079.24 739.85
00003010 00000065 677.14 284.31 453.81 609.49 883.76 486.13 1084.91 490.64 1043.24 606.88 920.20 737.49 1079.43 738.78
00003011 00000066 676.94 283.19 454.62 611.34 883.38 485.68 1085.38 489.51 1043.83 606.32 920.17 737.89 1080.30 738.65
00003012 00000067 676.69 285.99 454.93 608.86 882.52 484.94 1084.48 488.99 1042.98 605.35 920.13 736.81 1080.79 737.69
00003013 00000068 675.18 284.54 456.09 610.60 881.34 484.28 1082.30 487.32 1041.80 603.24 920.06 735.70 1080.78 735.54
00003014 00000069 675.98 284.51 454.69 610.61 881.02 483.26 1080.31 485.86 1039.66 601.99 920.69 734.95 1078.84 734.30
00003015 00000070 674.21 282.46 455.98 612.89 878.60 482.87 1077.06 483.57 1036.71 600.51 919.89 734.74 1077.94 732.47
00003016 00000071 673.88 280.94 456.24 615.81 877.48 480.37 1076.23 480.88 1035.09 599.61 920.60 735.46 1077.68 732.75
00003017 00000072 674.13 276.43 455.32 620.92 876.94 476.07 1076.75 478.21 1033.62 598.67 919.65 734.01 1075.86 732.50
00003018 00000073 671.16 274.68 454.63 620.05 875.64 471.18 1073.30 473.42 1031.65 593.07 919.69 729.36 1072.58 727.84
00003019 00000074 669.89 266.17 452.60 622.87 875.53 465.64 1071.25 469.17 1030.70 584.63 917.17 722.00 1071.33 721.50
00003020 00000075 657.97 252.02 457.77 631.80 869.91 458.52 1059.77 456.81 1028.16 571.55 911.84 713.36 1064.90 708.55
00003021 00000076 652.00 242.37 458.04 628.02 863.45 445.32 1059.05 449.61 1025.71 558.01 904.44 699.44 1057.18 700.19
00003022 00000077 642.52 227.30 461.23 625.37 848.60 436.04 1045.50 449.13 1003.88 544.59 893.01 678.90 1044.06 688.26
00003023 DELETE   632.34 222.82 464.53 628.58 828.89 429.87 1035.74 445.65 985.06 533.88 870.55 672.05 1032.29 683.65
00003024 DELETE   626.70 219.93 465.82 624.45 816.94 426.67 1027.85 444.93 963.37 532.00 850.03 668.15 1011.82 681.73
00003025 00000080 624.26 222.08 466.21 618.69 813.98 424.67 1028.45 450.63 958.00 531.47 838.00 662.67 1004.42 682.91
00003026 00000081 627.38 221.09 467.48 621.40 823.36 426.00 1033.16 451.24 968.82 537.43 848.48 665.94 1009.85 685.53
00003027 DELETE   636.55 226.40 464.35 615.34 841.91 431.28 1045.86 451.12 992.90 544.70 875.68 670.31 1030.54 685.53
00003028 DELETE   648.87 232.56 459.03 607.91 850.95 435.80 1056.47 448.84 1006.62 550.65 887.58 672.71 1048.09 681.88
00003029 00000084 659.86 234.43 450.92 609.95 857.75 437.59 1064.56 450.78 1015.39 549.10 896.09 674.73 1060.12 683.45
00003030 00000085 659.80 235.07 451.69 611.75 858.64 437.35 1062.44 450.66 1014.03 548.84 896.02 675.37 1056.33 684.38
00003031 00000086 653.35 235.61 455.55 617.63 855.59 437.46 1054.45 451.75 1009.96 552.76 886.78 676.67 1045.76 687.14
00003032 00000087 650.75 235.54 457.47 616.73 851.44 437.02 1052.44 454.46 1003.21 554.00 878.34 676.83 1039.63 690.31
00003033 00000088 651.72 235.73 456.53 616.61 852.51 437.59 1053.37 453.91 1005.82 554.06 879.40 675.53 1042.68 687.82
00003034 00000089 659.32 237.30 452.11 613.70 861.31 433.68 1061.72 449.17 1017.41 545.94 893.71 674.06 1055.15 685.21
00003035 00000090 665.33 234.89 453.20 611.03 871.00 434.70 1067.99 447.08 1026.13 539.29 907.36 672.82 1066.10 680.92
00003036 00000091 668.34 233.96 453.70 610.94 872.79 434.45 1069.66 444.02 1029.15 535.66 909.92 670.21 1071.70 675.78
00003037 00000092 666.31 234.31 451.43 602.17 866.08 434.41 1065.14 442.15 1024.46 533.18 908.54 668.53 1068.96 672.57
00003038 00000093 658.27 233.44 455.58 599.49 853.59 435.48 1059.80 441.76 1014.69 536.50 898.38 667.68 1064.57 670.39
00003039 00000094 648.34 232.21 457.65 604.67 847.82 436.60 1053.88 449.05 1005.08 544.38 884.85 667.69 1051.42 676.07
00003040 00000095 647.31 232.56 458.22 603.53 846.16 436.71 1053.78 451.49 1002.08 546.28 880.33 668.08 1046.53 678.74
00003041 00000096 650.30 234.31 456.18 601.55 848.92 436.24 1055.88 449.53 1006.57 544.41 885.16 667.79 1052.81 676.98
00003042 00000097 660.68 236.05 452.90 601.06 857.12 434.70 1061.13 443.65 1016.26 537.79 900.61 669.71 1064.90 674.54
00003043 00000098 664.87 235.99 453.01 601.45 868.49 434.19 1067.37 444.01 1026.22 535.14 910.45 670.38 1069.65 676.12
00003044 00000099 665.73 234.55 452.54 604.01 869.45 435.56 1067.85 445.98 1027.57 536.51 910.69 670.49 1069.55 676.70
00003045 00000100 661.91 234.05 453.60 607.83 860.38 435.95 1063.05 444.37 1019.19 539.43 905.01 673.65 1067.32 678.21
00003046 00000101 649.63 235.73 455.73 609.58 851.83 439.05 1054.35 450.74 1009.92 550.73 889.70 675.79 1051.32 683.89
00003047 00000102 637.53 234.52 463.76 611.87 841.69 443.94 1045.50 456.68 997.05 559.94 870.83 679.12 1034.88 688.63
00003048 00000103 631.17 240.88 465.81 614.48 826.26 448.61 1033.80 464.50 975.68 565.58 847.23 683.45 1019.60 696.48
00003049 00000104 628.88 242.69 467.85 622.16 821.87 448.67 1032.58 470.41 969.03 568.98 835.36 685.97 1013.54 704.17
00003050 00000105 631.79 239.60 467.93 622.27 828.72 445.04 1037.84 464.95 977.82 567.44 842.38 684.58 1018.28 701.10
00003051 DELETE   638.79 239.74 465.51 610.91 846.20 443.95 1047.01 459.05 997.70 562.46 868.34 678.15 1032.28 690.12
00003052 00000107 647.43 237.89 460.66 610.36 853.45 440.47 1058.24 454.48 1011.73 556.66 883.63 676.57 1050.39 687.05
00003053 00000108 650.32 237.26 457.90 607.16 854.47 440.52 1059.03 453.87 1013.26 552.59 887.07 674.32 1052.63 683.99
00003054 00000109 644.69 238.68 460.29 604.27 849.36 440.23 1054.11 454.42 1006.23 553.42 880.84 673.61 1045.97 684.36
00003055 00000110 641.30 236.99 461.83 603.64 843.31 440.09 1047.96 459.38 995.09 552.24 873.36 673.19 1033.55 688.16
00003056 00000111 640.48 236.36 462.34 606.24 844.71 438.83 1049.45 460.90 995.28 553.72 869.93 673.93 1030.78 691.43
00003057 00000112 646.33 239.37 459.51 602.02 850.33 439.05 1052.13 459.69 998.98 553.03 876.41 672.79 1035.14 689.17
00003058 00000113 654.18 239.96 453.74 606.51 857.54 436.63 1058.27 453.16 1012.79 549.21 889.41 673.88 1048.68 686.41
00003059 00000114 661.01 237.71 451.76 605.43 862.32 435.09 1063.84 450.23 1019.16 540.19 900.00 670.85 1059.33 681.44
00003060 00000115 660.75 237.37 451.45 602.59 860.97 432.91 1064.47 446.97 1019.47 535.60 900.80 667.77 1063.94 677.15
00003061 00000116 655.87 238.74 453.20 596.26 854.26 430.98 1059.40 446.80 1012.38 533.83 890.90 661.42 1056.74 672.15
00003062 00000117 654.93 237.35 454.31 594.92 850.21 430.06 1057.44 447.40 1006.63 533.92 883.78 660.51 1051.42 672.74
00003063 00000118 656.28 238.06 455.22 599.28 853.10 429.21 1057.53 447.14 1008.10 535.06 884.35 662.19 1050.61 675.10
00003064 00000119 663.98 237.79 452.08 601.94 862.20 427.84 1064.26 448.62 1016.54 533.98 893.22 664.92 1055.03 680.21
00003065 00000120 667.59 236.72 452.78 607.04 867.01 432.20 1069.13 448.50 1021.20 537.38 897.29 667.83 1061.75 679.43
00003066 00000121 665.01 241.16 455.70 606.93 866.59 435.00 1067.81 450.19 1020.75 543.56 895.76 670.88 1060.09 681.64
00003067 00000122 666.54 247.44 449.99 608.92 870.60 440.16 1065.42 454.83 1025.25 553.98 891.46 681.93 1049.45 692.24
00003068 00000123 665.89 248.70 452.20 617.99 870.33 445.15 1066.06 460.72 1021.89 563.08 888.76 687.28 1049.53 698.14
00003069 00000124 665.17 253.88 456.12 621.73 873.61 452.37 1069.37 468.68 1024.41 572.74 891.50 694.08 1053.69 705.26
00003070 00000125 664.72 265.64 461.01 616.56 878.54 459.53 1073.98 476.03 1026.79 581.89 898.02 706.22 1055.49 717.35
00003071 00000126 670.26 265.04 458.68 621.74 881.70 460.76 1077.85 477.04 1029.78 586.84 902.46 711.24 1060.08 722.19
00003072 00000127 673.31 266.28 457.34 622.64 883.64 462.96 1080.54 479.75 1031.53 588.96 907.01 715.43 1063.75 726.61
00003073 00000128 673.67 267.05 456.25 621.45 883.67 463.53 1080.45 479.91 1031.55 589.35 906.88 715.71 1063.69 726.50
00003074 00000129 672.49 265.91 456.67 621.72 883.65 463.23 1079.58 479.17 1031.79 588.45 906.88 714.50 1063.88 724.89
00003075 00000130 670.98 266.60 456.45 617.46 882.25 463.14 1077.59 476.56 1031.43 587.32 906.17 712.83 1062.72 721.06
00003076 00000131 671.15 265.12 454.81 616.28 881.56 463.61 1076.42 476.00 1031.23 587.51 905.95 711.16 1062.04 718.61
00003077 00000132 669.61 269.71 454.59 609.98 880.74 464.48 1075.25 475.86 1031.23 587.34 905.33 710.49 1061.44 717.21
00003078 00000133 666.24 272.99 456.07 604.73 877.49 464.57 1073.64 475.61 1028.27 588.99 902.69 710.26 1060.04 716.58
00003079 00000134 664.68 272.39 455.17 602.96 876.22 465.26 1071.70 475.51 1026.98 589.13 900.49 709.37 1057.87 715.26
00003080 00000135 662.50 272.38 455.99 602.27 875.40 465.12 1071.21 476.76 1026.21 589.56 899.05 708.99 1057.11 715.97
00003081 00000136 661.80 274.37 456.77 599.38 874.48 464.27 1071.22 477.15 1025.32 589.30 898.85 708.28 1057.03 716.16
00003082 00000137 660.37 274.77 458.03 600.20 873.97 463.57 1070.66 477.02 1025.09 588.29 899.21 708.50 1057.12 716.82
00003083 00000138 659.64 272.89 457.93 601.44 873.26 462.74 1069.75 476.28 1024.85 586.98 899.34 708.67 1056.90 717.06
00003084 00000139 658.14 270.88 459.74 605.48 872.36 461.48 1068.80 474.31 1024.65 584.26 899.19 708.99 1056.48 716.77
00003085 00000140 657.67 268.19 461.18 609.23 870.56 461.38 1068.13 472.65 1023.23 582.30 898.37 709.35 1056.49 715.70
00003086 00000141 657.40 268.02 461.58 608.97 870.21 461.02 1068.20 472.16 1023.17 581.72 898.24 709.41 1056.58 715.55
00003087 00000142 659.06 267.22 460.07 609.93 871.65 460.82 1068.78 471.99 1023.75 581.76 899.09 709.52 1057.09 715.73
00003088 00000143 659.63 267.53 460.07 609.43 871.93 460.37 1068.70 471.13 1023.79 581.55 900.13 709.97 1057.20 715.80
00003089 00000144 658.88 267.62 460.82 609.53 871.75 460.16 1068.96 470.63 1024.53 581.70 900.09 709.95 1057.44 715.62
00003090 00000145 659.06 269.87 460.95 607.93 871.81 460.10 1068.67 470.17 1025.09 581.56 900.81 709.79 1057.77 715.10
00003091 00000146 658.62 270.86 461.01 605.37 872.80 462.96 1067.55 473.09 1025.62 581.63 900.30 709.04 1056.55 714.49
00003092 00000147 655.85 280.41 464.13 592.93 865.75 467.55 1066.19 482.54 1017.75 581.96 892.46 702.40 1056.98 711.62
00003093 00000148 655.67 277.73 462.18 590.13 865.94 464.99 1065.13 483.94 1017.14 577.29 891.57 697.99 1055.24 710.69
00003094 00000149 657.15 265.25 457.35 598.69 863.35 460.69 1063.17 479.23 1014.92 571.94 889.78 694.14 1052.36 706.50
00003095 00000150 653.29 258.06 455.93 603.62 859.58 456.94 1060.33 471.28 1015.34 570.12 887.98 693.35 1050.66 702.46
00003096 00000151 642.51 242.26 463.42 616.13 850.12 458.27 1050.22 469.88 1008.19 566.28 879.09 687.45 1042.28 696.74
00003097 00000152 636.38 236.71 466.83 619.26 843.60 455.02 1046.14 467.49 1000.70 566.57 872.36 685.02 1035.68 694.86
00003098 00000153 635.56 232.57 465.78 626.24 839.05 455.20 1041.21 465.81 994.32 567.15 868.57 685.00 1033.40 693.05
00003099 00000154 633.55 234.43 465.90 627.71 837.19 456.81 1038.58 465.60 993.68 567.82 870.58 688.79 1034.33 695.24
00003100 00000155 630.68 239.39 466.40 628.76 832.81 460.71 1032.89 469.35 988.93 567.69 869.62 694.93 1030.49 701.41
00003101 00000156 626.33 240.81 468.80 630.85 828.66 462.81 1028.81 472.99 983.48 570.63 866.25 699.44 1025.19 707.23
00003102 00000157 626.14 245.36 467.86 626.89 825.96 464.16 1027.71 476.14 979.83 573.71 861.51 703.11 1020.90 712.64
00003103 00000158 624.95 249.17 467.40 621.36 826.36 465.25 1027.88 479.09 979.18 577.08 860.52 703.55 1017.41 714.80
00003104 00000159 624.99 253.74 466.47 613.63 827.81 466.33 1029.95 479.56 980.97 581.21 862.94 703.74 1018.98 714.73
00003105 00000160 624.30 252.43 464.83 611.57 826.90 466.41 1030.92 480.34 980.91 580.86 861.73 700.99 1019.74 712.42
00003106 00000161 622.08 247.24 463.72 609.98 822.67 462.64 1028.63 476.75 979.34 570.90 857.12 691.87 1020.54 703.12
00003107 00000162 620.20 239.59 464.20 613.16 821.34 454.40 1022.64 464.88 976.18 561.39 857.47 683.38 1019.00 691.62
00003108 00000163 619.92 233.35 464.31 614.43 820.67 446.78 1021.84 456.73 975.33 551.16 860.16 677.51 1020.21 684.90
00003109 00000164 620.45 230.38 463.08 615.07 820.23 446.87 1021.76 458.18 975.20 546.62 861.08 675.25 1022.04 683.52
00003110 00000165 618.77 242.56 465.58 601.59 820.68 451.53 1024.35 468.11 978.80 543.38 860.70 672.73 1023.67 685.43
00003111 00000166 619.66 242.38 467.10 606.35 822.39 455.41 1024.53 468.29 979.88 548.76 860.34 677.90 1023.31 687.79
