Video ID: 	JFMS4cQINOI
H: 	1080
W: 	1920
FPS: 	29.97002997002997

FRAME INDEX X0 Y0 W H [Landmarks (5 Points)]

00015918 00000000 914.09 130.89 537.99 728.82 1038.28 448.25 1285.55 422.68 1166.33 547.06 1089.12 691.77 1293.33 670.53
00015919 00000001 922.24 126.57 538.74 736.94 1062.62 447.30 1308.36 415.87 1195.62 541.48 1113.27 700.40 1312.13 672.73
00015920 00000002 928.68 117.14 539.96 751.82 1075.08 451.10 1318.99 416.25 1212.30 539.06 1124.08 699.70 1330.38 669.76
00015921 00000003 930.76 124.65 538.34 743.89 1079.36 452.58 1321.45 416.03 1219.97 541.79 1132.20 698.65 1339.20 667.30
00015922 00000004 930.01 120.62 537.28 750.05 1079.67 453.62 1320.55 415.62 1222.25 544.43 1134.67 701.83 1340.74 669.19
00015923 00000005 926.35 124.54 536.73 746.62 1075.08 458.16 1315.45 420.74 1215.20 548.24 1129.32 705.85 1332.17 673.47
00015924 00000006 915.02 131.69 544.80 737.10 1056.09 461.30 1296.97 425.75 1192.01 557.86 1120.96 705.10 1314.92 676.04
00015925 00000007 909.19 138.44 542.33 743.85 1040.27 461.30 1280.91 427.66 1169.51 564.20 1101.32 711.67 1294.37 684.37
00015926 00000008 900.28 143.98 546.30 742.38 1025.12 465.80 1266.33 435.57 1145.81 567.49 1081.87 716.63 1267.18 691.63
00015927 DELETE   893.76 153.78 534.99 727.92 1006.89 470.67 1237.87 441.33 1109.99 572.17 1059.40 722.10 1225.46 698.43
00015928 DELETE   883.76 156.70 526.72 726.08 979.77 471.09 1212.20 450.24 1074.96 576.23 1029.39 726.20 1189.40 708.95
00015929 DELETE   880.50 166.77 520.01 709.60 968.14 469.36 1184.03 452.60 1038.62 571.81 1004.93 713.05 1151.04 700.56
00015930 00000012 867.37 165.09 522.29 710.14 942.23 469.85 1156.96 452.90 1005.41 574.92 975.46 715.31 1126.89 703.48
00015931 DELETE   850.63 166.59 531.36 707.98 923.71 468.71 1132.59 451.78 981.34 570.82 958.91 713.57 1106.93 700.90
00015932 DELETE   841.39 178.93 531.81 689.46 905.56 458.61 1116.65 444.91 953.24 566.43 939.48 706.48 1098.44 699.25
00015933 00000015 825.23 170.89 538.85 691.08 898.39 455.57 1108.22 441.22 952.81 566.47 935.52 703.13 1083.92 691.90
00015934 00000016 827.70 168.21 533.03 689.26 893.77 452.01 1100.79 439.40 940.95 563.59 925.45 699.00 1076.07 689.39
00015935 00000017 828.47 161.50 525.52 687.10 893.22 448.70 1096.58 434.94 938.08 558.73 923.37 693.45 1074.76 683.15
00015936 00000018 820.44 151.06 535.97 699.98 890.71 442.47 1094.24 429.64 934.95 552.00 923.78 687.68 1076.51 677.89
00015937 00000019 824.56 148.68 533.24 693.02 896.47 438.20 1103.62 426.80 943.14 546.20 926.54 680.40 1082.36 672.43
00015938 00000020 822.57 149.87 541.77 691.21 900.96 434.74 1111.25 421.48 953.28 540.55 934.32 677.91 1091.39 668.20
00015939 00000021 830.43 141.33 542.65 703.37 904.81 432.18 1115.87 417.47 956.73 534.50 936.89 676.68 1098.79 666.10
00015940 00000022 839.44 141.31 540.56 696.60 909.64 430.86 1126.70 416.99 965.15 531.33 939.37 675.11 1105.60 665.42
00015941 00000023 849.49 142.56 534.54 693.03 917.38 429.48 1134.16 415.78 973.20 528.98 945.77 672.66 1110.11 663.40
00015942 00000024 854.27 138.47 530.97 696.81 921.90 426.91 1135.96 410.90 977.26 526.90 951.00 669.49 1115.01 658.42
00015943 00000025 857.19 136.81 533.23 696.85 924.44 426.85 1139.54 409.14 981.16 525.82 955.79 668.07 1121.10 655.76
00015944 00000026 859.54 136.37 531.76 695.33 926.77 423.81 1140.42 407.09 981.87 523.72 958.70 665.15 1122.91 653.67
00015945 00000027 859.90 134.40 533.41 697.09 924.92 421.82 1139.02 405.81 978.78 523.13 955.62 665.14 1120.26 654.32
00015946 00000028 848.13 132.20 538.43 698.66 915.74 418.71 1131.90 404.13 969.04 520.21 944.74 665.08 1108.56 655.17
00015947 00000029 834.87 139.26 537.45 690.71 906.48 415.90 1118.63 405.07 956.68 524.44 935.34 663.54 1095.44 656.41
00015948 00000030 836.22 139.13 527.54 690.25 901.47 413.53 1104.16 408.42 939.48 524.09 924.82 661.12 1079.83 658.68
00015949 00000031 819.69 132.24 532.97 693.83 884.48 414.97 1087.66 408.95 920.71 527.53 912.77 663.51 1066.51 660.35
00015950 00000032 807.41 140.09 542.40 689.90 874.52 416.58 1078.32 413.62 908.88 532.18 901.31 665.13 1055.88 664.58
00015951 00000033 806.66 145.30 540.32 687.16 866.02 414.14 1066.37 416.48 893.61 535.73 891.16 664.66 1040.99 668.51
00015952 00000034 809.56 136.70 534.16 699.87 863.57 413.37 1058.45 418.94 886.83 542.36 888.59 666.12 1038.81 672.20
00015953 00000035 809.19 144.75 535.80 696.99 865.18 416.15 1059.33 422.40 888.37 545.90 889.85 667.52 1039.48 674.04
00015954 00000036 805.51 146.78 543.26 695.92 872.09 422.14 1069.28 426.56 898.37 548.38 897.39 670.45 1047.41 675.38
00015955 00000037 803.68 149.62 545.82 695.44 879.40 425.53 1078.75 426.60 910.08 550.55 907.39 673.70 1057.85 675.41
00015956 00000038 820.83 150.53 534.89 700.46 888.76 428.66 1091.22 425.76 926.86 552.85 919.49 680.22 1073.21 678.43
00015957 00000039 822.26 150.93 540.76 706.59 899.84 438.88 1106.86 433.14 948.26 559.14 932.86 688.31 1086.13 684.10
00015958 00000040 838.03 160.66 537.82 706.88 910.54 452.44 1120.82 444.07 963.16 565.88 941.61 700.90 1100.59 694.53
00015959 00000041 833.75 170.34 546.31 706.81 912.30 464.27 1130.86 449.96 977.40 578.19 953.26 715.15 1116.68 704.40
00015960 00000042 838.94 182.56 537.62 706.76 915.63 478.15 1136.65 459.30 986.39 591.12 961.67 732.12 1126.31 718.10
00015961 00000043 843.95 175.96 536.33 728.71 919.63 482.41 1140.34 465.93 989.04 605.53 966.78 740.89 1134.37 728.40
00015962 00000044 846.01 177.68 538.60 731.51 923.19 482.49 1144.13 466.95 991.66 609.41 970.92 745.13 1140.39 732.63
00015963 00000045 846.90 177.43 540.38 721.06 924.63 483.08 1147.88 466.36 996.87 607.24 971.91 740.39 1142.77 727.37
00015964 00000046 851.27 181.57 537.04 709.70 927.09 479.37 1153.92 465.46 1001.14 602.77 971.71 735.65 1139.53 725.50
00015965 00000047 854.27 167.99 534.21 718.74 934.76 471.69 1158.78 459.13 1007.99 591.78 970.94 728.48 1135.21 719.70
00015966 00000048 859.23 172.12 526.93 706.83 939.82 466.24 1160.24 452.74 1012.89 579.67 975.30 720.03 1134.61 709.80
00015967 00000049 859.76 163.20 530.45 708.94 945.01 452.81 1164.18 435.56 1018.83 562.45 984.46 710.93 1136.90 697.77
00015968 00000050 868.03 148.64 524.66 717.43 952.98 440.65 1169.37 426.76 1021.00 549.03 988.78 699.26 1136.13 689.02
00015969 00000051 871.06 138.88 527.68 727.99 957.14 427.16 1175.23 416.40 1021.04 534.55 991.27 687.71 1141.55 679.91
00015970 00000052 869.98 129.86 535.10 755.37 955.52 413.77 1178.90 399.94 1020.50 524.64 990.73 689.87 1158.71 678.61
00015971 00000053 868.79 114.63 538.60 762.90 954.80 410.49 1185.24 391.70 1023.75 517.88 985.50 680.84 1176.17 665.79
00015972 00000054 874.70 115.86 539.73 749.48 958.24 402.92 1189.38 388.95 1027.77 511.55 986.38 661.65 1184.58 650.39
00015973 00000055 885.98 110.98 537.30 736.44 961.56 396.71 1190.80 380.92 1026.77 499.41 990.45 652.73 1183.69 640.87
00015974 00000056 894.27 110.84 531.28 721.42 965.61 390.80 1197.45 377.58 1033.69 488.61 991.64 643.28 1183.58 634.15
00015975 00000057 902.22 102.67 525.84 714.07 971.87 386.74 1204.61 375.82 1043.34 482.70 994.03 636.42 1184.97 631.34
00015976 00000058 909.44 100.81 527.15 711.44 979.31 381.53 1209.89 371.11 1049.35 482.75 1001.07 633.08 1189.85 628.48
00015977 00000059 911.17 99.68 530.66 714.33 990.15 388.11 1217.29 375.36 1060.26 490.70 1011.39 637.98 1189.22 629.04
00015978 00000060 912.66 100.01 531.59 717.63 993.49 393.23 1221.45 377.20 1066.08 492.70 1017.24 642.21 1194.53 630.74
00015979 00000061 914.57 105.53 534.25 718.64 997.15 396.71 1224.61 380.38 1068.91 495.78 1023.49 646.19 1200.30 634.09
00015980 00000062 920.44 112.93 528.99 728.18 1003.58 392.43 1225.33 381.58 1068.53 499.08 1032.90 648.74 1202.37 642.14
00015981 00000063 920.70 113.59 534.53 739.34 1005.01 399.04 1227.99 384.91 1072.77 508.37 1038.73 661.38 1205.03 651.44
00015982 00000064 921.91 120.38 532.92 728.18 1005.64 406.50 1230.65 391.37 1076.58 512.06 1040.79 665.43 1205.24 655.06
00015983 00000065 926.14 127.02 531.24 719.47 1007.03 410.74 1234.43 398.41 1077.40 516.22 1041.49 668.27 1202.81 660.26
00015984 00000066 926.48 131.38 531.32 719.72 1008.67 414.20 1234.38 401.35 1077.67 520.71 1042.70 673.01 1203.59 664.44
00015985 00000067 922.93 135.43 532.70 721.65 1008.88 414.37 1234.93 403.21 1078.96 523.79 1041.94 677.71 1203.25 669.98
00015986 00000068 918.95 138.59 534.02 721.39 1008.48 417.35 1233.70 406.25 1079.00 526.46 1041.53 679.54 1202.38 671.72
00015987 00000069 917.35 141.22 534.82 720.67 1007.03 419.34 1231.81 409.18 1076.93 529.16 1038.83 681.46 1200.71 674.36
00015988 00000070 913.42 138.40 536.60 727.13 1003.72 419.96 1229.06 409.16 1073.77 530.13 1035.68 685.03 1198.60 677.44
00015989 00000071 909.92 137.95 537.06 728.11 998.97 418.76 1225.28 408.08 1070.09 529.45 1031.24 684.50 1197.61 676.96
00015990 00000072 909.90 135.11 537.30 727.46 996.89 416.94 1221.50 405.12 1066.57 527.71 1028.41 681.67 1196.10 673.39
00015991 00000073 907.18 134.42 538.73 727.52 993.42 413.84 1219.36 401.39 1064.41 525.39 1026.48 679.82 1195.01 671.12
00015992 00000074 903.34 129.21 539.55 726.90 990.98 412.76 1218.97 398.34 1065.75 521.87 1024.71 677.22 1193.03 667.16
00015993 00000075 901.77 124.74 538.70 722.37 990.19 409.41 1220.53 395.69 1066.81 517.93 1024.77 670.04 1192.46 660.72
00015994 00000076 907.19 120.89 533.66 717.64 991.82 406.64 1224.92 393.75 1070.72 510.58 1023.86 664.43 1196.30 656.30
00015995 00000077 914.89 119.75 530.83 710.12 996.42 399.36 1227.08 390.11 1071.21 510.70 1023.63 656.08 1200.90 651.56
00015996 00000078 910.82 109.56 532.22 714.69 1000.30 395.38 1231.06 385.75 1076.93 503.25 1022.68 651.16 1198.26 644.70
00015997 00000079 915.61 107.58 530.92 715.07 1004.17 390.21 1234.67 380.71 1081.29 496.08 1024.64 646.25 1201.58 639.51
00015998 00000080 913.84 102.27 532.77 719.38 1003.97 382.78 1235.38 371.85 1083.90 491.35 1028.66 643.07 1207.18 635.01
00015999 00000081 913.41 101.24 531.18 712.08 1004.05 379.75 1237.51 369.28 1086.11 487.05 1028.98 638.28 1206.76 630.70
00016000 00000082 910.86 100.14 531.73 714.64 1002.32 381.17 1232.92 367.67 1082.74 482.77 1028.40 636.15 1207.14 626.21
00016001 00000083 906.84 96.34 534.32 726.30 999.97 378.91 1229.44 364.80 1078.87 481.36 1025.99 634.79 1208.53 624.15
00016002 00000084 903.87 100.22 536.12 722.80 995.81 380.97 1228.22 366.96 1076.38 484.86 1021.49 636.22 1209.88 625.26
00016003 00000085 904.42 102.35 534.57 719.14 993.23 383.69 1225.68 370.06 1072.94 488.15 1018.18 637.15 1208.22 626.60
00016004 00000086 904.63 103.96 533.18 716.15 991.51 389.24 1224.11 372.52 1072.93 491.74 1018.26 640.89 1209.25 628.07
00016005 00000087 905.39 103.82 533.29 714.91 992.28 391.94 1223.58 375.66 1072.66 494.42 1019.13 641.42 1210.12 629.22
00016006 00000088 909.72 105.10 533.84 714.49 994.92 395.50 1224.98 378.27 1074.03 497.76 1021.62 643.86 1211.86 631.01
00016007 00000089 914.72 108.04 531.52 715.56 999.28 396.12 1228.28 380.96 1076.01 499.98 1024.45 645.70 1213.62 634.18
00016008 00000090 920.61 108.29 529.90 717.80 1006.67 395.47 1232.98 380.20 1082.26 498.83 1034.34 645.03 1214.46 633.77
00016009 00000091 926.57 107.38 530.58 720.20 1012.67 394.30 1238.52 381.97 1086.17 501.14 1037.66 645.15 1215.26 636.24
00016010 00000092 935.71 108.30 522.45 718.93 1019.06 395.75 1240.22 386.18 1088.50 505.44 1043.45 649.61 1210.84 642.98
00016011 00000093 942.31 116.21 521.07 716.28 1022.30 401.36 1243.82 390.44 1092.59 510.27 1048.87 655.40 1213.93 647.69
00016012 00000094 946.87 119.54 520.23 716.28 1025.89 405.26 1247.19 394.65 1097.43 513.25 1053.06 658.80 1217.00 651.37
00016013 00000095 948.08 118.78 524.53 719.52 1030.13 407.04 1252.93 396.76 1102.33 516.05 1060.39 663.04 1219.14 655.41
00016014 00000096 947.78 114.64 530.92 724.67 1032.11 408.54 1258.46 397.57 1104.96 518.97 1063.13 665.49 1223.26 657.19
00016015 00000097 946.24 122.81 535.43 719.05 1032.68 405.14 1265.05 391.56 1107.47 520.28 1063.68 668.83 1235.40 659.59
00016016 00000098 949.88 124.76 532.94 714.86 1036.68 404.63 1266.74 391.43 1111.06 519.82 1066.51 667.43 1237.06 658.73
00016017 00000099 952.38 125.37 534.21 716.44 1040.18 402.65 1268.90 391.71 1112.80 517.63 1068.29 666.17 1237.65 659.33
00016018 00000100 954.68 123.91 534.36 715.93 1042.53 400.85 1271.32 391.18 1115.74 515.17 1070.63 663.60 1238.58 658.00
00016019 00000101 957.80 125.63 531.55 708.22 1043.21 397.81 1275.26 389.40 1118.45 509.28 1069.50 659.57 1240.84 655.38
00016020 00000102 958.85 120.32 528.86 712.56 1043.89 393.61 1274.66 385.24 1117.93 505.16 1070.14 654.77 1241.15 650.60
00016021 00000103 958.74 122.19 529.98 705.61 1042.84 387.05 1276.51 380.30 1117.30 497.50 1069.18 649.71 1241.38 646.82
00016022 00000104 959.63 119.05 528.36 703.19 1041.79 383.76 1274.70 376.54 1114.48 490.04 1065.39 645.01 1241.36 642.00
00016023 00000105 955.19 115.80 528.67 705.48 1040.61 381.35 1270.30 373.06 1112.38 487.72 1064.12 641.47 1239.00 637.55
00016024 00000106 957.24 111.88 521.10 708.56 1043.05 382.11 1263.61 376.57 1111.11 486.76 1064.88 636.81 1224.15 633.48
00016025 00000107 952.79 101.37 521.19 712.98 1040.90 380.65 1258.45 374.55 1108.52 483.99 1063.93 632.97 1220.56 628.96
00016026 00000108 948.00 93.95 525.42 715.36 1040.72 377.27 1260.37 371.99 1106.17 475.23 1059.39 628.13 1217.92 624.84
00016027 00000109 945.88 91.81 526.03 716.58 1040.15 370.26 1256.46 368.50 1102.48 471.62 1057.60 621.64 1213.00 621.28
00016028 00000110 945.58 84.43 529.44 723.08 1038.95 362.98 1256.22 361.27 1100.44 466.87 1057.02 618.02 1212.92 617.77
00016029 00000111 944.71 80.73 529.90 727.92 1035.11 359.53 1252.73 355.13 1095.89 462.74 1054.37 616.43 1211.26 614.11
00016030 00000112 946.00 77.03 528.71 728.88 1034.80 361.90 1254.17 354.49 1096.59 459.97 1054.48 616.38 1213.57 611.65
00016031 00000113 946.43 80.68 528.15 723.98 1036.09 360.69 1256.36 354.22 1098.14 459.03 1055.71 614.86 1215.30 610.88
00016032 00000114 946.97 83.77 526.97 721.33 1036.20 360.85 1255.84 354.57 1098.21 458.23 1055.34 613.93 1215.92 610.06
00016033 00000115 946.61 85.19 528.01 720.06 1036.25 361.09 1256.49 353.84 1099.60 459.58 1055.66 615.12 1216.47 610.52
00016034 00000116 946.93 86.42 530.59 718.11 1039.81 362.56 1259.07 357.22 1102.46 462.17 1058.45 614.53 1218.73 611.37
00016035 00000117 949.36 85.28 528.25 721.24 1041.39 367.71 1260.49 360.53 1105.75 467.51 1062.67 621.12 1220.24 616.31
00016036 00000118 951.29 87.65 526.35 718.06 1043.43 371.63 1259.27 363.35 1107.72 470.00 1066.74 623.65 1219.96 617.82
00016037 00000119 953.48 89.38 525.32 718.30 1044.71 373.97 1260.56 365.20 1108.77 471.41 1067.04 625.81 1221.46 619.56
00016038 00000120 950.45 90.80 530.57 720.26 1040.75 376.38 1263.88 360.52 1109.13 476.93 1065.91 632.48 1232.78 620.86
00016039 00000121 952.63 94.75 531.93 720.08 1041.10 375.00 1265.13 360.03 1109.13 477.96 1067.21 634.57 1233.52 623.55
00016040 00000122 957.24 93.47 530.77 721.71 1042.30 372.53 1266.64 360.97 1110.30 473.31 1065.43 631.12 1237.75 625.12
00016041 00000123 957.12 96.41 531.54 720.23 1042.70 372.32 1268.59 363.93 1111.23 474.29 1063.54 630.82 1236.84 627.37
00016042 00000124 957.05 99.62 531.89 720.94 1042.75 374.98 1267.35 365.86 1110.52 477.02 1064.65 633.54 1236.28 629.43
00016043 00000125 957.11 103.45 530.36 720.85 1042.87 379.10 1267.89 369.59 1111.79 479.60 1065.61 636.43 1238.15 631.72
00016044 00000126 957.36 105.60 529.86 721.03 1042.79 381.79 1268.08 373.22 1110.35 483.30 1064.17 638.26 1237.23 634.28
00016045 00000127 954.72 108.50 533.25 721.94 1042.96 382.58 1269.27 375.79 1110.45 483.81 1063.67 639.91 1235.13 637.24
00016046 00000128 955.16 113.14 532.96 721.41 1042.39 384.30 1268.04 375.22 1109.48 485.83 1067.06 644.75 1235.21 640.00
00016047 00000129 953.15 115.10 534.32 723.29 1041.75 385.55 1263.91 375.59 1106.45 490.42 1069.44 647.22 1237.33 641.38
00016048 00000130 953.76 115.71 531.46 719.70 1037.92 386.77 1262.13 376.56 1102.80 496.09 1065.40 648.12 1239.79 641.95
00016049 00000131 953.80 117.20 530.80 721.88 1034.61 390.99 1261.46 380.56 1101.18 501.06 1060.17 650.28 1241.84 643.38
00016050 00000132 953.00 119.33 528.75 718.84 1031.04 397.31 1259.68 385.38 1098.65 508.20 1056.62 654.60 1245.31 646.26
00016051 00000133 952.59 119.23 530.26 721.68 1028.61 400.03 1257.91 387.63 1096.87 512.63 1053.85 658.24 1242.91 649.58
00016052 00000134 954.44 112.52 522.09 725.47 1028.65 403.80 1249.86 393.39 1095.36 509.30 1049.06 653.87 1227.53 645.74
00016053 00000135 947.95 112.71 521.51 724.52 1023.54 402.27 1244.47 392.99 1089.70 509.43 1043.12 651.55 1223.10 644.87
00016054 00000136 940.94 114.05 524.04 719.23 1016.31 400.95 1238.18 392.25 1083.17 509.33 1036.83 649.27 1221.19 643.04
00016055 00000137 933.93 108.03 524.87 721.71 1012.57 400.15 1232.53 390.47 1078.77 508.21 1033.99 646.81 1217.35 640.17
00016056 00000138 929.16 110.15 526.57 717.96 1007.64 399.58 1227.30 387.97 1074.62 507.74 1030.61 646.40 1214.09 638.12
00016057 00000139 926.54 108.68 528.83 717.40 1006.23 399.61 1226.91 387.58 1074.45 507.82 1030.13 646.63 1212.66 638.17
00016058 00000140 928.44 112.91 526.51 711.44 1007.09 399.06 1227.55 387.78 1075.22 506.63 1030.28 644.95 1211.90 637.23
00016059 00000141 930.23 110.23 525.39 712.19 1008.81 397.62 1227.85 387.28 1075.83 504.36 1031.03 642.44 1210.59 635.61
00016060 00000142 932.15 111.47 525.31 710.56 1010.16 395.37 1230.61 386.20 1076.61 502.46 1031.24 641.21 1212.19 635.04
00016061 00000143 932.56 107.57 525.81 713.49 1010.39 393.25 1232.88 383.73 1077.42 498.47 1030.71 639.99 1211.37 633.59
00016062 00000144 930.90 106.21 526.66 712.14 1009.98 392.71 1233.31 381.79 1077.97 495.74 1031.00 639.24 1210.91 631.64
00016063 00000145 930.36 106.73 526.39 710.32 1009.76 390.79 1233.10 380.66 1077.91 495.12 1030.24 638.23 1208.85 631.33
00016064 00000146 929.09 104.99 528.13 712.33 1008.55 390.72 1232.91 380.75 1077.10 495.33 1028.96 637.73 1208.85 630.98
00016065 00000147 929.43 106.90 526.71 710.54 1009.46 389.72 1232.45 380.09 1077.14 494.34 1030.36 636.39 1209.54 629.76
00016066 00000148 929.76 107.21 527.34 711.40 1010.18 388.48 1232.22 378.05 1077.40 493.28 1031.74 636.63 1210.32 629.21
00016067 00000149 931.96 104.78 525.97 713.75 1012.70 386.43 1232.14 376.37 1078.46 491.44 1034.67 635.79 1209.98 628.65
00016068 00000150 931.87 105.87 525.91 712.97 1013.95 383.58 1233.18 373.61 1079.93 489.28 1035.69 634.96 1209.94 627.97
00016069 00000151 933.51 106.31 524.83 712.85 1015.24 384.80 1234.70 375.34 1081.12 489.42 1036.47 635.12 1210.03 628.68
00016070 00000152 933.17 106.11 524.79 715.17 1014.55 387.04 1234.95 377.30 1081.85 491.87 1035.88 636.68 1209.64 629.99
00016071 00000153 933.44 108.43 524.77 711.50 1013.13 388.27 1236.18 379.44 1080.96 495.28 1034.22 638.13 1211.11 632.19
00016072 00000154 934.95 111.17 524.88 711.90 1012.29 391.56 1236.55 383.01 1079.09 496.53 1032.04 640.29 1211.06 634.53
00016073 00000155 935.91 109.86 524.28 713.33 1012.61 394.52 1235.79 386.82 1077.81 497.54 1030.97 641.71 1208.64 636.73
00016074 00000156 938.75 108.34 519.44 719.41 1016.86 394.29 1232.66 385.48 1077.60 493.65 1033.77 641.88 1204.25 636.14
00016075 00000157 934.89 103.35 525.74 728.25 1019.42 385.98 1232.32 376.66 1079.83 488.25 1039.90 642.90 1202.31 636.19
00016076 00000158 930.57 98.51 533.49 727.30 1019.07 377.64 1238.04 372.11 1081.66 482.41 1038.69 637.60 1202.82 634.14
00016077 00000159 931.02 100.49 530.87 717.82 1020.57 378.60 1238.31 370.34 1085.17 480.45 1043.32 634.20 1204.73 628.71
00016078 00000160 931.59 101.07 530.76 717.85 1020.69 380.15 1240.01 370.53 1085.86 478.32 1043.39 635.08 1206.32 628.51
00016079 00000161 927.11 95.83 530.50 729.70 1019.17 379.69 1238.70 367.56 1086.18 476.22 1042.86 637.79 1205.09 628.86
00016080 00000162 923.85 97.07 528.82 725.79 1014.66 380.00 1234.60 366.25 1083.40 475.29 1038.74 637.64 1201.11 627.42
00016081 00000163 918.98 94.23 532.44 727.29 1007.10 384.04 1229.54 368.09 1075.46 475.68 1031.60 639.23 1196.48 627.34
00016082 00000164 908.88 98.17 536.11 731.88 996.68 378.25 1226.09 363.31 1068.77 467.70 1030.05 639.67 1200.05 630.83
