Video ID: 	4m6V-d5kpNk
H: 	2160
W: 	3840
FPS: 	23.976023976023978

FRAME INDEX X0 Y0 W H [Landmarks (5 Points)]

00001668 00000000 1493.48 284.65 594.33 840.86 1608.50 606.92 1863.55 587.02 1703.69 703.42 1645.31 900.71 1826.27 887.51
00001669 00000001 1495.17 283.18 592.43 840.97 1610.68 606.28 1865.87 585.87 1706.62 704.31 1648.54 901.12 1829.75 887.22
00001670 00000002 1495.02 281.18 592.74 834.26 1607.38 608.10 1859.20 588.47 1701.58 707.39 1644.26 901.62 1825.78 888.67
00001671 DELETE   1494.70 276.93 591.49 836.65 1603.37 609.62 1851.76 591.49 1694.69 710.06 1635.34 900.86 1814.39 890.27
00001672 00000004 1489.76 282.19 594.65 833.94 1595.07 612.85 1846.66 597.03 1683.06 710.22 1622.40 899.90 1804.50 891.55
00001673 DELETE   1483.48 283.86 603.65 828.63 1587.93 615.67 1837.80 600.66 1669.60 715.28 1613.23 901.35 1794.92 893.84
00001674 00000006 1480.55 285.96 605.76 831.11 1580.40 615.89 1829.72 602.22 1655.49 719.12 1603.74 902.93 1785.71 896.90
00001675 00000007 1476.74 286.95 603.89 831.02 1576.68 614.20 1822.34 604.15 1648.80 719.40 1599.96 900.50 1774.13 898.10
00001676 00000008 1475.32 288.40 600.67 843.06 1574.78 609.54 1816.13 603.89 1644.32 722.09 1583.55 900.64 1760.89 902.48
00001677 DELETE   1474.89 283.14 599.09 850.16 1575.92 611.70 1810.60 608.90 1635.23 730.61 1580.01 907.35 1752.34 911.35
00001678 00000010 1472.11 285.00 595.95 844.59 1569.48 613.70 1809.95 618.21 1628.39 739.49 1571.70 909.04 1747.04 918.13
00001679 DELETE   1473.27 282.63 590.14 844.94 1565.27 620.94 1801.98 624.61 1618.35 745.72 1564.81 916.36 1730.38 924.54
00001680 00000012 1470.71 288.04 586.65 845.04 1561.21 629.87 1793.04 635.51 1610.63 757.52 1561.39 921.96 1722.36 931.17
00001681 00000013 1469.95 296.87 585.30 856.00 1559.40 637.65 1784.34 642.65 1600.56 769.56 1557.43 932.26 1716.72 940.62
00001682 DELETE   1469.60 332.05 582.53 829.84 1555.76 653.09 1776.01 655.23 1590.92 778.37 1552.91 955.15 1716.42 961.10
00001683 DELETE   1459.41 353.90 579.67 833.74 1542.03 684.00 1766.05 678.23 1588.87 809.97 1561.41 984.50 1725.84 984.27
00001684 00000016 1449.44 356.82 581.53 829.04 1529.59 701.40 1749.57 697.47 1566.86 835.04 1552.22 999.12 1711.91 999.90
00001685 DELETE   1439.67 366.19 582.29 818.31 1518.11 702.52 1734.72 699.76 1550.01 842.45 1540.65 1000.92 1698.44 1002.21
00001686 00000018 1433.47 357.36 576.55 812.40 1515.31 694.66 1728.41 689.04 1547.43 823.06 1530.91 981.01 1686.63 981.15
00001687 DELETE   1434.17 343.87 583.98 814.60 1514.58 668.90 1734.87 662.52 1551.66 799.61 1531.71 963.96 1687.20 963.74
00001688 DELETE   1440.54 320.62 587.92 827.23 1523.38 661.70 1752.07 653.20 1565.20 784.74 1538.22 952.43 1694.53 950.91
00001689 00000021 1444.28 326.03 588.54 832.49 1524.20 661.14 1756.99 649.43 1565.41 791.26 1547.60 965.10 1710.46 960.52
00001690 00000022 1445.97 347.13 587.11 843.77 1530.99 679.54 1758.87 663.69 1574.66 807.40 1561.84 986.61 1727.90 978.96
00001691 00000023 1444.73 354.24 588.90 841.12 1532.10 689.59 1757.74 679.94 1573.76 823.25 1560.54 989.76 1732.39 985.83
00001692 00000024 1443.11 356.55 593.23 844.13 1530.34 690.88 1764.83 681.62 1576.35 823.22 1552.52 987.00 1739.67 983.73
00001693 00000025 1443.47 351.10 595.15 843.06 1531.26 689.18 1769.38 681.37 1579.06 820.10 1549.77 978.74 1744.12 976.40
00001694 00000026 1444.94 342.49 596.86 848.32 1532.85 691.69 1774.19 685.00 1583.56 819.88 1548.50 980.77 1741.99 979.65
00001695 00000027 1442.71 351.32 600.71 840.43 1535.46 697.53 1779.85 698.88 1588.89 837.33 1547.85 988.04 1740.01 992.78
00001696 00000028 1448.36 356.71 595.56 844.95 1537.47 706.63 1776.32 710.41 1583.33 849.27 1545.93 994.68 1740.42 1000.81
00001697 00000029 1445.58 359.07 594.52 846.55 1535.92 706.61 1771.35 711.46 1578.56 849.12 1546.72 999.28 1733.29 1006.53
00001698 DELETE   1449.48 343.90 585.26 846.60 1537.04 693.06 1766.10 696.20 1577.51 830.27 1550.64 990.55 1721.05 996.78
00001699 00000031 1460.71 346.93 576.63 828.83 1546.77 676.01 1768.66 684.76 1584.66 809.83 1548.45 968.80 1710.82 979.37
00001700 00000032 1464.26 342.26 580.84 838.74 1545.39 676.83 1776.59 680.00 1593.63 804.79 1552.17 968.52 1724.70 974.96
00001701 DELETE   1464.69 352.11 583.74 832.64 1544.60 679.87 1787.17 685.95 1595.99 815.85 1551.85 975.96 1737.68 983.85
00001702 00000034 1471.83 372.48 580.90 810.74 1559.62 693.68 1787.31 705.73 1602.17 826.78 1558.65 978.76 1744.78 992.12
00001703 00000035 1470.32 378.48 580.64 817.43 1560.12 699.40 1784.19 712.90 1596.85 838.22 1561.26 985.87 1742.87 999.78
00001704 00000036 1474.00 375.60 579.85 834.08 1564.26 701.15 1783.77 712.33 1599.93 841.21 1570.22 993.32 1744.68 1004.92
00001705 00000037 1473.82 368.98 581.05 837.52 1567.10 700.89 1787.64 714.58 1606.22 841.69 1571.68 994.85 1741.53 1008.54
00001706 00000038 1474.77 363.87 583.81 848.25 1569.42 699.54 1791.23 716.19 1607.51 845.50 1571.97 996.71 1748.11 1012.17
00001707 00000039 1475.28 367.67 587.89 851.17 1570.39 700.78 1797.23 714.18 1617.90 849.80 1575.61 1003.13 1754.10 1015.90
00001708 00000040 1475.25 371.25 589.16 851.75 1566.45 704.61 1800.20 716.60 1620.68 855.37 1574.62 1008.72 1754.29 1020.48
00001709 00000041 1470.79 369.72 593.74 856.66 1566.16 708.84 1801.89 719.47 1623.30 855.38 1572.34 1010.01 1755.73 1020.97
00001710 00000042 1472.36 369.62 591.55 850.04 1566.00 705.66 1804.34 718.14 1621.80 854.57 1568.60 1008.63 1753.56 1020.89
00001711 00000043 1476.67 367.44 590.21 853.23 1571.37 704.59 1811.07 720.54 1627.17 849.58 1573.01 1005.48 1758.21 1020.72
00001712 00000044 1483.43 365.61 593.41 859.81 1578.09 704.78 1824.39 718.78 1646.86 850.47 1591.67 1009.94 1766.06 1024.04
00001713 00000045 1492.82 371.03 595.62 855.93 1589.75 710.93 1838.40 723.97 1660.51 857.58 1603.95 1014.18 1788.91 1027.17
00001714 00000046 1493.92 375.91 598.33 852.03 1598.09 718.39 1847.84 728.33 1673.72 863.00 1612.34 1016.45 1806.48 1027.11
00001715 00000047 1496.12 372.54 597.22 858.08 1602.74 719.29 1855.00 727.70 1682.50 863.51 1616.17 1017.72 1817.36 1027.41
00001716 00000048 1495.83 374.17 597.92 853.37 1604.66 719.79 1858.56 729.25 1685.93 865.65 1616.21 1016.93 1822.07 1027.42
00001717 00000049 1496.06 376.24 597.43 857.16 1605.57 720.02 1859.22 731.12 1685.33 869.01 1613.38 1017.36 1827.82 1028.82
00001718 00000050 1497.14 379.65 599.95 860.48 1606.61 722.49 1861.50 734.06 1684.43 871.82 1614.09 1018.97 1831.14 1030.58
00001719 00000051 1500.49 386.87 598.16 856.33 1611.21 733.36 1866.01 745.59 1689.29 886.83 1615.82 1025.63 1829.24 1037.68
00001720 00000052 1502.89 392.66 599.81 862.85 1612.86 737.62 1871.25 751.62 1690.74 892.11 1615.80 1032.01 1832.09 1045.26
00001721 00000053 1505.37 391.53 600.45 877.59 1615.63 742.43 1868.75 756.07 1690.82 895.17 1620.81 1035.24 1831.59 1048.17
00001722 00000054 1506.57 396.74 597.84 879.24 1614.75 744.15 1866.36 757.48 1689.24 899.62 1621.89 1040.67 1827.94 1053.17
00001723 00000055 1506.70 411.41 597.42 860.63 1612.50 746.77 1857.81 758.87 1688.40 895.71 1626.64 1039.76 1821.11 1052.65
00001724 00000056 1503.77 404.89 598.86 867.23 1605.31 743.00 1856.33 756.59 1682.54 896.25 1618.98 1039.49 1815.97 1053.71
00001725 00000057 1499.49 398.91 593.82 862.70 1605.69 740.08 1854.49 759.43 1673.78 897.14 1604.30 1036.48 1804.36 1054.36
00001726 00000058 1497.11 387.35 592.28 852.84 1601.02 740.21 1846.73 758.70 1664.78 894.54 1597.13 1031.95 1788.17 1049.41
00001727 00000059 1492.01 395.39 600.56 841.79 1593.05 736.16 1840.84 758.51 1665.20 889.21 1593.52 1023.30 1782.95 1045.25
00001728 00000060 1490.82 385.08 600.33 853.09 1591.22 728.00 1842.01 755.42 1657.85 882.90 1587.42 1022.93 1784.97 1046.31
00001729 00000061 1491.62 390.86 599.21 841.01 1589.96 735.86 1838.45 756.10 1662.32 888.43 1592.43 1023.39 1782.09 1043.91
00001730 00000062 1494.06 382.73 597.73 852.92 1593.57 730.16 1841.98 754.67 1661.20 885.28 1593.49 1024.65 1786.38 1045.69
00001731 00000063 1490.80 380.89 602.24 851.02 1590.74 730.22 1841.85 753.30 1660.46 883.64 1592.04 1022.09 1786.13 1042.32
00001732 00000064 1484.57 382.28 602.58 853.97 1584.28 725.76 1835.54 750.10 1651.93 881.09 1585.65 1022.07 1782.10 1043.38
00001733 00000065 1480.21 382.56 597.84 848.43 1577.32 721.40 1823.27 748.26 1639.19 880.61 1578.49 1018.91 1768.47 1041.83
00001734 00000066 1479.41 378.38 598.37 862.24 1574.40 722.69 1825.00 747.41 1637.63 880.26 1578.84 1023.31 1772.17 1044.61
00001735 00000067 1478.11 398.61 604.31 841.52 1571.68 737.18 1823.79 751.33 1644.10 888.03 1585.77 1025.31 1778.26 1040.09
00001736 00000068 1478.71 406.49 605.28 836.44 1574.08 740.75 1826.58 754.66 1647.42 891.35 1588.04 1027.81 1783.60 1042.35
00001737 00000069 1476.73 403.30 604.43 836.86 1573.81 740.29 1825.78 754.05 1648.82 891.73 1587.87 1027.36 1783.21 1041.79
00001738 00000070 1472.68 389.64 604.47 847.43 1573.21 729.76 1827.23 751.66 1644.33 887.88 1579.14 1025.53 1777.27 1044.84
00001739 00000071 1470.83 382.66 598.26 848.64 1569.89 724.84 1818.80 749.18 1635.14 885.11 1573.13 1021.92 1767.37 1042.92
00001740 00000072 1470.06 381.72 600.71 845.79 1567.01 721.99 1814.69 747.54 1629.37 880.96 1568.11 1018.81 1761.32 1040.85
00001741 00000073 1470.73 379.82 597.63 847.83 1566.70 718.06 1814.84 741.92 1629.05 877.13 1567.45 1017.22 1762.17 1037.89
00001742 00000074 1471.46 381.66 598.62 844.80 1569.49 716.67 1816.47 737.60 1633.90 873.26 1573.95 1016.01 1765.92 1034.64
00001743 00000075 1476.38 379.07 595.43 853.54 1572.70 713.57 1817.66 732.88 1635.43 869.83 1580.39 1016.27 1769.99 1033.41
00001744 00000076 1479.84 377.06 594.19 858.95 1571.44 711.14 1819.27 730.64 1632.26 867.80 1580.29 1014.84 1774.94 1031.90
00001745 00000077 1481.92 375.28 592.25 863.61 1571.29 708.47 1817.79 727.86 1630.00 865.66 1579.61 1016.50 1773.72 1033.47
00001746 00000078 1482.10 377.07 593.83 867.41 1572.75 710.61 1817.82 729.99 1629.05 867.25 1580.69 1016.55 1777.64 1033.28
00001747 00000079 1484.34 380.80 595.73 875.77 1577.74 717.15 1822.16 736.72 1633.30 871.82 1583.29 1017.27 1787.32 1033.63
00001748 00000080 1484.27 394.84 605.52 860.89 1580.18 728.81 1829.48 741.91 1649.90 876.55 1594.34 1017.46 1796.48 1031.23
00001749 00000081 1492.49 398.39 604.01 861.44 1591.73 731.97 1837.53 744.36 1660.83 877.56 1604.93 1018.24 1806.35 1031.31
00001750 00000082 1491.87 396.24 599.94 864.22 1599.68 738.31 1848.11 745.73 1670.75 882.78 1603.36 1018.14 1825.07 1026.63
00001751 00000083 1489.70 400.57 601.71 861.73 1596.91 744.71 1853.03 747.68 1677.28 882.25 1603.66 1023.70 1828.53 1028.81
00001752 00000084 1496.01 398.64 597.23 863.85 1601.96 745.13 1857.14 747.25 1684.11 885.97 1611.21 1032.84 1826.69 1037.30
00001753 00000085 1499.99 396.96 594.82 866.28 1609.56 741.54 1860.63 750.06 1687.99 889.62 1615.81 1033.95 1826.39 1043.35
00001754 00000086 1500.78 395.98 594.95 869.28 1610.09 742.17 1860.09 748.20 1689.38 891.95 1621.19 1039.23 1827.26 1046.66
00001755 00000087 1498.64 400.56 596.19 866.57 1614.72 736.28 1866.20 741.57 1698.93 887.34 1629.38 1042.24 1830.85 1049.27
00001756 00000088 1501.46 392.27 600.10 881.62 1615.42 741.85 1872.57 749.17 1699.25 895.61 1629.84 1041.95 1841.57 1050.24
00001757 00000089 1503.17 391.87 600.78 887.14 1618.89 743.75 1878.58 751.48 1704.77 896.82 1632.44 1044.03 1847.90 1052.37
00001758 00000090 1502.11 399.40 606.33 885.31 1616.75 737.94 1883.94 740.65 1713.00 890.89 1641.20 1042.91 1852.65 1049.33
00001759 00000091 1504.60 405.03 604.81 875.69 1622.15 737.53 1889.82 741.22 1720.13 889.91 1645.70 1041.02 1859.03 1047.97
00001760 00000092 1511.20 404.19 598.19 866.61 1635.60 742.91 1899.40 750.60 1727.72 890.19 1648.31 1033.39 1870.28 1041.51
00001761 00000093 1514.70 401.80 599.01 861.75 1642.36 739.28 1905.47 749.90 1734.95 889.01 1654.30 1030.70 1872.30 1041.25
00001762 00000094 1517.88 393.69 597.17 866.11 1646.18 736.34 1907.55 748.87 1738.55 890.26 1656.54 1028.69 1874.85 1040.83
00001763 00000095 1522.48 396.92 592.89 858.63 1649.64 728.39 1910.47 741.02 1743.36 883.02 1660.43 1026.46 1875.52 1039.44
00001764 00000096 1523.63 391.17 595.29 863.44 1651.33 726.64 1914.65 739.83 1745.77 877.41 1661.96 1023.85 1878.69 1037.71
00001765 00000097 1523.46 383.20 596.96 866.42 1653.61 722.41 1914.78 736.91 1747.64 873.43 1663.06 1018.51 1878.65 1033.31
00001766 00000098 1525.68 382.01 597.40 864.97 1655.19 722.25 1916.91 733.92 1749.45 869.21 1666.49 1017.08 1882.13 1029.73
00001767 00000099 1526.62 383.41 600.45 858.10 1656.59 717.39 1922.82 730.28 1753.16 866.10 1667.09 1014.16 1883.39 1027.90
00001768 00000100 1527.87 376.30 601.79 863.99 1658.56 715.10 1924.94 727.24 1756.12 863.94 1668.73 1012.72 1884.89 1025.87
00001769 00000101 1530.07 374.90 602.61 865.49 1660.52 712.10 1926.27 724.08 1756.51 860.95 1670.80 1013.31 1886.13 1026.39
00001770 00000102 1530.72 367.67 603.60 866.09 1661.48 710.25 1927.59 722.26 1758.85 859.28 1672.70 1010.55 1885.18 1023.81
00001771 00000103 1534.65 361.71 601.46 867.29 1663.84 709.35 1928.52 720.86 1761.58 856.45 1674.99 1008.27 1884.95 1021.41
00001772 00000104 1537.69 358.68 600.12 873.06 1665.88 708.24 1930.77 719.45 1762.35 855.78 1677.60 1007.99 1887.36 1020.92
00001773 00000105 1540.24 356.87 599.19 877.31 1668.28 708.71 1931.52 719.15 1764.52 853.53 1678.16 1008.32 1887.84 1020.88
00001774 00000106 1541.36 355.99 597.83 878.95 1669.03 708.06 1930.73 717.86 1765.18 852.34 1679.30 1007.02 1888.26 1019.07
00001775 00000107 1545.62 365.96 596.04 880.52 1670.30 708.23 1924.48 718.34 1762.70 855.73 1682.20 1008.01 1879.85 1020.52
00001776 00000108 1544.81 367.56 596.64 880.09 1670.02 707.49 1925.02 717.76 1762.86 855.88 1681.71 1007.41 1881.16 1019.91
00001777 00000109 1543.40 367.42 598.51 882.10 1669.63 706.01 1924.24 716.29 1763.63 855.72 1682.74 1005.26 1883.66 1017.69
00001778 00000110 1542.39 367.18 599.50 885.78 1669.45 704.96 1924.21 715.67 1762.91 854.82 1681.06 1004.54 1884.70 1017.24
00001779 00000111 1541.25 369.52 600.38 883.45 1668.57 706.68 1924.08 716.73 1761.75 856.08 1680.79 1005.01 1885.97 1017.10
00001780 00000112 1535.57 364.44 600.33 880.80 1668.51 709.07 1930.32 718.78 1763.84 853.26 1677.60 1005.78 1893.08 1017.13
00001781 00000113 1539.88 367.65 598.28 883.96 1668.37 711.11 1922.65 720.29 1763.23 859.84 1681.67 1007.57 1884.26 1019.34
00001782 00000114 1535.80 365.59 605.27 887.08 1665.99 712.63 1923.40 721.79 1760.80 860.51 1679.93 1010.39 1883.71 1022.10
00001783 00000115 1535.90 368.99 603.65 884.29 1665.89 714.56 1922.17 723.07 1760.70 861.90 1679.68 1012.03 1881.95 1023.23
00001784 00000116 1536.71 372.56 602.12 881.21 1666.00 713.96 1922.56 722.94 1762.26 862.72 1680.18 1013.07 1882.41 1024.42
00001785 00000117 1536.74 373.16 603.09 882.63 1666.65 713.41 1922.16 722.22 1763.29 863.25 1681.14 1012.61 1882.70 1023.87
00001786 00000118 1538.30 368.46 603.44 887.57 1668.55 712.71 1923.26 722.12 1763.87 863.43 1681.97 1012.43 1883.09 1024.27
00001787 00000119 1540.70 369.24 601.87 885.51 1669.52 712.91 1923.33 722.72 1763.26 864.22 1681.41 1012.04 1882.70 1024.23
00001788 00000120 1537.47 365.52 602.37 882.21 1669.95 710.83 1929.62 721.06 1765.12 859.46 1678.18 1011.00 1891.26 1022.68
00001789 00000121 1538.32 360.38 600.47 886.78 1670.98 711.09 1929.86 720.29 1766.51 858.83 1680.54 1011.82 1891.73 1022.72
00001790 00000122 1538.51 359.60 600.01 885.56 1670.68 710.85 1930.18 720.36 1767.11 857.29 1681.35 1011.65 1889.56 1022.99
00001791 00000123 1536.77 356.30 601.10 887.59 1669.92 710.71 1930.75 720.69 1767.52 855.29 1680.99 1011.96 1886.56 1023.98
00001792 00000124 1535.85 358.25 604.35 884.33 1668.85 710.49 1932.64 720.45 1766.88 854.50 1681.97 1011.14 1886.65 1023.18
00001793 00000125 1535.94 355.48 606.42 891.84 1667.62 709.19 1931.50 719.93 1764.36 854.15 1678.94 1015.72 1882.14 1028.47
00001794 00000126 1540.60 367.37 604.26 890.17 1667.21 709.28 1922.81 721.17 1759.50 858.23 1678.94 1016.26 1868.40 1030.67
00001795 00000127 1540.96 365.69 602.97 890.41 1668.11 708.81 1922.50 721.64 1758.89 857.68 1677.88 1015.82 1865.86 1031.09
00001796 00000128 1541.28 367.99 602.41 887.00 1668.94 710.40 1922.37 722.40 1759.77 857.90 1678.82 1017.80 1865.62 1032.32
00001797 00000129 1532.00 379.24 607.92 860.43 1658.77 701.72 1932.18 710.07 1764.44 848.67 1678.66 1014.62 1877.75 1025.00
00001798 00000130 1531.14 380.17 606.59 846.44 1658.97 703.74 1934.08 712.36 1765.69 848.86 1680.20 1008.44 1883.30 1019.01
00001799 00000131 1532.32 372.76 605.05 843.15 1663.14 704.64 1932.42 715.80 1764.12 852.58 1676.94 999.18 1887.77 1011.65
00001800 00000132 1535.94 367.97 600.15 843.86 1667.25 706.41 1929.24 720.25 1763.06 851.94 1673.39 991.87 1890.32 1006.67
00001801 00000133 1535.17 360.73 600.30 853.35 1667.24 704.96 1930.52 719.04 1762.52 850.64 1673.21 991.52 1893.60 1006.44
00001802 00000134 1534.56 360.12 599.69 867.42 1664.39 704.26 1929.29 713.21 1763.56 846.04 1681.35 1000.83 1887.28 1011.88
00001803 00000135 1538.25 369.76 600.01 877.24 1666.16 705.62 1920.93 713.60 1761.23 848.46 1683.41 1006.89 1874.61 1017.60
00001804 00000136 1536.92 368.98 602.89 877.54 1663.79 704.36 1920.08 712.18 1759.21 846.46 1683.79 1004.56 1873.56 1015.13
00001805 00000137 1536.08 367.14 603.39 882.03 1662.54 701.51 1918.98 709.85 1757.22 844.65 1682.82 1002.26 1872.72 1013.26
00001806 00000138 1535.01 363.56 604.21 888.23 1662.05 700.61 1918.55 709.31 1756.15 845.24 1682.00 1002.66 1872.79 1014.04
00001807 00000139 1534.96 363.39 604.47 891.60 1660.89 700.32 1918.67 708.34 1756.04 845.02 1682.89 1004.75 1872.05 1015.52
00001808 00000140 1532.21 357.15 608.86 896.78 1659.43 700.58 1919.01 708.39 1755.35 843.76 1682.17 1003.67 1871.51 1014.63
00001809 00000141 1533.03 360.50 607.24 892.01 1657.99 698.38 1917.55 705.25 1753.44 839.70 1682.56 1004.69 1867.99 1014.66
00001810 00000142 1529.38 352.77 603.59 888.69 1657.49 697.19 1922.21 704.90 1756.57 832.39 1682.25 1002.12 1870.59 1012.76
00001811 00000143 1527.54 354.29 607.44 868.51 1654.90 697.95 1921.71 707.45 1752.93 835.39 1677.93 993.63 1871.24 1005.73
00001812 00000144 1528.71 359.23 602.83 841.03 1651.84 697.94 1923.10 710.07 1746.73 837.57 1664.74 981.85 1877.59 996.20
00001813 00000145 1527.89 354.01 602.37 836.75 1651.40 696.80 1922.75 709.94 1744.93 835.96 1658.61 977.05 1877.85 992.46
00001814 00000146 1527.15 356.23 602.83 828.76 1651.39 694.78 1918.92 706.29 1746.06 833.20 1665.52 975.49 1871.21 989.75
00001815 00000147 1527.65 357.37 602.60 831.07 1648.78 692.53 1916.56 703.98 1741.32 829.67 1662.27 975.40 1869.37 989.78
00001816 00000148 1526.86 356.08 602.05 833.62 1646.34 692.40 1914.25 702.61 1737.94 828.07 1660.31 976.12 1868.25 989.56
00001817 00000149 1528.27 357.31 600.86 833.06 1646.49 693.36 1913.92 702.77 1738.09 830.74 1662.25 977.74 1871.21 990.16
00001818 00000150 1527.42 361.81 604.01 847.81 1649.03 694.60 1915.25 703.28 1740.51 830.11 1669.14 983.59 1873.03 994.81
00001819 00000151 1527.62 363.29 603.99 854.03 1650.26 696.98 1917.05 704.59 1742.39 833.55 1671.91 986.51 1876.57 996.48
00001820 00000152 1528.62 363.90 603.15 856.43 1651.03 698.03 1918.29 705.37 1743.87 833.87 1673.17 988.72 1876.99 998.65
00001821 00000153 1527.61 361.28 605.02 860.62 1650.96 699.14 1918.09 706.35 1744.87 834.73 1673.92 989.78 1875.29 999.81
00001822 00000154 1521.99 375.90 608.22 846.83 1644.35 694.07 1914.90 698.98 1744.56 834.21 1672.89 992.53 1873.83 999.55
00001823 00000155 1522.53 376.79 607.15 848.42 1644.98 695.97 1914.31 701.94 1743.45 835.52 1672.53 993.95 1873.49 1001.94
00001824 00000156 1525.03 369.13 606.98 853.75 1648.42 698.08 1914.95 705.38 1742.26 835.01 1672.76 991.95 1871.73 1001.74
00001825 00000157 1527.24 361.89 603.61 863.98 1649.05 699.20 1913.10 706.20 1738.84 833.30 1672.25 992.31 1871.00 1002.26
00001826 00000158 1526.47 365.16 601.35 865.06 1648.52 698.84 1910.75 704.01 1738.35 831.92 1672.55 995.09 1869.13 1003.33
00001827 00000159 1525.24 365.45 602.65 868.25 1646.04 699.27 1906.18 701.79 1735.53 829.22 1672.33 996.97 1866.43 1003.22
00001828 00000160 1522.26 365.14 602.80 868.38 1639.81 697.53 1899.55 696.88 1730.37 828.23 1668.97 999.14 1862.34 1002.53
