Video ID: 	goRWTj3NO4E
H: 	1080
W: 	1920
FPS: 	25.0

FRAME INDEX X0 Y0 W H [Landmarks (5 Points)]

00002388 00000000 874.87 344.78 405.40 602.75 972.99 580.93 1168.00 581.73 1071.11 727.97 1003.43 809.99 1153.47 808.36
00002389 DELETE   876.99 340.38 406.36 603.53 977.69 580.59 1168.81 581.59 1075.68 725.73 1008.78 806.61 1152.18 804.99
00002390 DELETE   888.74 338.19 398.53 615.51 988.63 576.20 1180.66 582.41 1090.09 719.41 1012.89 800.26 1162.47 807.46
00002391 DELETE   892.72 334.97 401.99 613.05 995.07 576.05 1184.69 580.10 1093.94 718.13 1021.87 795.74 1172.82 800.73
00002392 00000004 897.14 328.43 403.54 618.07 998.18 574.64 1185.43 575.39 1095.82 712.46 1027.49 796.72 1176.11 798.77
00002393 00000005 900.76 320.36 400.74 627.74 1000.68 572.16 1186.48 572.78 1096.08 709.76 1028.32 794.85 1177.97 796.61
00002394 00000006 901.89 318.22 401.10 630.26 999.27 567.38 1186.92 569.31 1093.17 705.46 1023.21 790.99 1178.62 793.73
00002395 00000007 901.50 315.02 403.91 629.28 1000.95 564.16 1188.49 566.45 1094.64 703.33 1023.37 786.77 1178.65 789.75
00002396 00000008 902.02 307.66 405.04 629.89 999.82 560.06 1188.04 561.29 1094.51 699.32 1024.32 785.91 1178.31 787.74
00002397 00000009 900.86 306.46 405.99 628.04 997.72 557.01 1187.23 558.83 1092.38 697.53 1022.52 784.93 1175.59 787.23
00002398 00000010 901.15 308.08 406.18 625.29 995.73 554.51 1187.78 557.98 1088.78 695.71 1017.45 783.03 1171.35 786.77
00002399 00000011 899.14 304.25 406.92 629.52 992.34 552.58 1185.71 555.15 1085.50 694.83 1013.36 783.37 1170.35 786.37
00002400 00000012 895.86 303.28 407.79 638.69 989.83 550.05 1184.89 554.32 1083.15 694.37 1007.33 782.99 1169.67 787.37
00002401 00000013 893.12 300.93 410.05 643.09 986.39 548.03 1182.62 552.30 1079.55 691.30 1002.59 782.11 1167.11 786.67
00002402 00000014 890.38 295.21 412.79 650.54 985.15 547.06 1183.07 549.94 1079.89 691.00 1001.14 781.18 1168.50 784.54
00002403 00000015 889.73 294.26 412.32 645.05 982.85 544.97 1181.56 548.02 1077.58 689.46 999.78 779.18 1166.90 782.76
00002404 00000016 889.75 290.48 413.40 644.02 982.96 541.39 1179.87 544.83 1076.07 685.42 999.27 775.45 1165.05 779.16
00002405 00000017 890.94 290.30 414.64 641.41 983.86 539.01 1181.97 542.41 1076.71 683.17 998.50 772.96 1164.30 776.62
00002406 00000018 891.97 287.07 415.77 642.43 984.75 536.84 1182.62 539.94 1077.72 683.31 1000.60 772.28 1165.55 775.56
00002407 00000019 892.65 283.70 415.12 644.38 985.90 535.39 1182.38 537.77 1078.02 681.05 1001.63 769.12 1167.00 771.56
00002408 00000020 891.28 287.86 416.15 635.16 985.04 532.97 1183.69 534.48 1078.56 676.73 1002.98 766.76 1167.89 768.36
00002409 00000021 890.11 286.77 416.60 633.35 984.55 530.78 1184.18 531.96 1079.82 673.59 1003.94 764.61 1167.53 765.75
00002410 00000022 888.42 285.40 418.01 633.65 983.73 529.14 1185.79 529.52 1080.93 671.68 1005.56 765.89 1166.58 766.46
00002411 00000023 888.52 285.28 417.11 630.91 983.59 529.26 1184.00 529.38 1080.28 669.41 1006.10 764.57 1165.88 764.84
00002412 00000024 889.45 282.90 416.70 631.38 983.92 529.93 1183.36 529.92 1079.72 668.26 1006.42 764.02 1165.44 764.21
00002413 00000025 889.96 281.90 416.68 631.45 984.51 529.18 1183.59 528.68 1080.55 667.10 1007.30 763.29 1165.32 763.04
00002414 00000026 889.94 280.41 416.53 631.55 984.45 529.51 1183.65 528.43 1081.35 667.39 1008.43 763.48 1166.11 762.74
00002415 00000027 889.36 281.24 416.95 632.54 983.37 529.54 1183.03 529.31 1079.84 668.44 1007.31 764.15 1164.53 764.17
00002416 00000028 889.98 281.60 416.13 629.88 981.83 528.88 1181.69 528.28 1077.16 667.67 1006.52 764.25 1163.15 763.91
00002417 00000029 889.45 281.02 415.89 630.61 981.58 527.15 1181.89 527.61 1076.94 666.39 1004.73 762.66 1162.54 763.21
00002418 00000030 889.48 280.37 415.24 630.10 981.55 525.98 1181.27 527.22 1075.63 664.88 1004.20 760.82 1160.84 762.08
00002419 00000031 889.07 279.25 415.53 634.15 981.96 523.25 1180.27 525.93 1074.59 663.02 1003.11 759.27 1159.53 761.68
00002420 00000032 889.15 278.91 415.43 633.56 982.01 522.31 1180.56 524.84 1073.44 659.95 1002.79 758.33 1159.46 760.57
00002421 00000033 890.09 275.18 415.25 637.36 982.42 520.92 1180.84 523.90 1074.36 659.00 1002.80 758.05 1158.35 760.80
00002422 00000034 890.09 270.87 415.58 642.12 983.02 518.91 1181.36 522.86 1075.31 656.19 1002.47 755.96 1157.35 759.61
00002423 00000035 888.76 269.59 416.42 644.43 983.34 517.70 1181.61 522.81 1075.56 655.74 1002.00 754.66 1156.06 759.35
00002424 00000036 887.45 269.29 415.12 645.27 981.26 517.85 1178.67 523.12 1072.84 655.99 999.12 754.83 1153.10 759.78
00002425 00000037 885.16 269.06 414.41 646.85 978.84 518.42 1175.33 523.68 1069.56 656.33 997.10 755.12 1149.77 760.08
00002426 00000038 879.20 272.49 415.85 634.99 978.52 520.65 1169.85 524.20 1063.20 659.38 1000.69 757.29 1148.17 757.51
00002427 00000039 876.67 273.86 415.29 632.99 974.50 522.57 1165.91 525.80 1059.05 658.72 996.48 757.14 1144.73 757.31
00002428 00000040 872.50 275.16 415.97 633.33 968.47 521.44 1161.08 523.09 1054.49 655.32 992.24 756.25 1142.14 755.29
00002429 00000041 868.83 271.45 413.82 633.23 963.24 520.21 1155.32 519.79 1050.13 654.55 986.94 754.44 1136.82 752.13
00002430 00000042 865.90 269.21 411.88 633.63 959.69 519.09 1150.87 518.71 1046.05 652.68 982.41 751.67 1133.86 749.57
00002431 00000043 864.46 270.30 412.61 629.74 955.87 517.74 1146.65 516.58 1041.33 650.99 979.31 751.21 1129.73 748.52
00002432 00000044 863.08 268.99 412.73 631.06 954.76 516.06 1146.34 516.24 1039.10 650.73 976.74 750.02 1127.36 748.54
00002433 00000045 862.42 268.42 411.89 630.87 954.83 514.48 1145.32 516.32 1038.88 649.87 975.70 749.38 1124.60 749.30
00002434 00000046 861.84 270.81 413.15 627.71 954.25 514.63 1144.63 517.11 1037.32 649.89 975.43 749.44 1123.12 749.82
00002435 00000047 859.30 271.79 413.77 627.48 952.47 514.06 1144.19 516.16 1036.56 649.36 974.00 749.82 1121.63 749.81
00002436 00000048 859.23 273.77 410.75 624.40 950.59 513.12 1142.82 515.50 1034.54 648.92 971.75 748.78 1120.98 749.03
00002437 00000049 856.95 274.41 409.50 625.14 948.34 512.42 1138.39 514.43 1032.56 647.62 970.47 748.60 1118.43 748.57
00002438 00000050 855.95 275.20 407.65 625.24 946.26 512.63 1135.58 514.70 1029.62 647.16 967.78 748.39 1117.22 748.37
00002439 00000051 854.99 275.84 405.62 624.25 945.33 513.36 1134.53 515.44 1028.96 647.03 966.02 748.73 1115.85 748.94
00002440 00000052 852.69 275.82 404.72 626.18 944.12 513.86 1132.77 515.96 1028.92 646.93 965.23 748.93 1115.12 749.19
00002441 00000053 851.38 276.89 403.02 625.20 943.30 514.44 1131.19 516.76 1029.09 647.26 964.46 748.97 1114.07 749.62
00002442 00000054 849.68 280.41 401.13 621.74 941.65 514.24 1129.49 516.74 1027.26 646.97 962.25 748.06 1112.88 749.06
00002443 00000055 848.63 277.70 399.91 622.45 939.01 513.40 1128.62 514.16 1026.57 645.41 961.24 748.23 1110.98 748.01
00002444 00000056 847.77 277.92 400.92 622.08 938.90 512.54 1130.29 512.92 1027.35 644.90 961.30 747.85 1111.63 747.26
00002445 00000057 847.82 276.39 401.75 624.44 939.62 511.39 1132.03 511.88 1029.47 644.76 962.16 747.40 1113.05 746.81
00002446 00000058 848.87 269.69 402.90 633.14 940.35 509.25 1132.94 510.77 1030.32 644.13 961.61 747.25 1114.33 747.34
00002447 00000059 849.74 270.61 403.12 630.12 939.84 506.78 1133.53 507.36 1030.11 642.20 962.39 746.60 1115.51 745.94
00002448 00000060 849.92 269.43 404.18 632.21 940.50 505.56 1133.98 505.97 1030.71 640.88 963.48 744.52 1116.60 743.60
00002449 00000061 849.64 266.96 404.34 629.18 939.96 503.89 1134.87 505.31 1032.45 639.85 961.82 741.14 1115.89 741.26
00002450 00000062 850.02 267.01 404.42 627.16 939.47 502.40 1133.54 503.89 1030.87 636.29 961.90 737.43 1116.84 737.60
00002451 00000063 848.77 263.55 405.25 627.31 938.34 498.43 1131.33 501.08 1029.17 632.58 961.38 733.76 1113.04 735.15
00002452 00000064 849.19 260.39 401.18 625.18 937.80 497.04 1128.76 500.78 1026.63 631.67 962.22 731.22 1106.56 733.94
00002453 00000065 849.46 255.99 401.59 624.95 935.06 495.94 1124.73 499.48 1021.66 630.92 960.48 730.39 1102.26 733.22
00002454 00000066 848.57 251.82 402.41 629.09 934.23 495.42 1120.80 498.19 1017.96 627.48 959.66 730.98 1099.27 733.49
00002455 00000067 848.67 253.61 401.61 634.60 934.16 492.60 1118.70 496.36 1013.59 626.54 957.02 731.73 1095.97 735.02
00002456 00000068 848.55 256.58 399.48 635.10 932.83 492.96 1118.04 496.70 1010.65 626.77 954.62 733.26 1094.81 736.45
00002457 00000069 847.72 261.48 398.12 632.10 932.23 492.33 1114.27 495.39 1007.27 625.09 953.05 732.13 1093.57 734.59
00002458 00000070 844.67 263.53 402.48 630.77 931.38 490.24 1115.49 493.10 1007.57 623.75 951.88 730.28 1094.02 732.25
00002459 00000071 841.64 261.27 403.28 630.55 928.15 491.00 1111.17 493.73 1004.86 623.42 950.81 730.53 1091.64 732.56
00002460 00000072 834.33 252.33 416.48 635.39 920.58 493.19 1110.95 498.27 996.90 632.19 943.14 724.22 1088.43 729.92
00002461 00000073 830.94 250.28 416.82 637.11 918.40 493.68 1108.11 499.72 992.52 630.01 938.29 722.77 1083.99 729.27
00002462 00000074 829.79 250.35 416.10 636.38 915.29 492.28 1106.24 497.54 988.96 629.62 935.06 723.28 1081.90 729.17
00002463 00000075 830.38 250.01 415.93 636.25 912.68 492.09 1104.48 496.47 985.68 628.86 932.92 723.62 1081.12 728.73
00002464 00000076 830.21 252.89 415.68 634.38 913.28 491.46 1104.01 495.88 985.84 629.37 934.24 723.30 1082.70 728.38
00002465 00000077 831.13 247.20 415.03 633.54 913.51 493.10 1105.61 498.07 988.85 632.09 933.79 720.12 1084.30 725.57
00002466 00000078 832.25 249.17 410.56 624.59 916.97 490.09 1103.94 495.65 990.50 620.52 936.94 718.30 1089.09 723.26
00002467 00000079 833.40 249.24 412.76 619.47 914.39 491.62 1107.27 497.80 991.39 632.76 932.44 716.66 1084.19 723.15
00002468 00000080 837.14 248.99 410.95 619.68 916.21 489.97 1108.42 496.60 991.97 631.70 933.24 716.58 1081.96 723.84
00002469 00000081 840.77 250.98 409.23 623.13 919.77 488.92 1109.88 495.47 993.42 630.13 937.77 718.21 1081.63 725.51
00002470 00000082 848.04 249.66 397.00 632.77 926.16 491.08 1107.21 495.07 1000.14 620.53 949.67 728.48 1084.71 732.25
00002471 00000083 848.98 250.78 397.10 628.63 926.72 490.52 1107.49 495.80 999.02 622.06 949.18 728.37 1081.80 733.46
00002472 00000084 848.61 249.70 398.97 623.28 926.34 490.33 1106.45 496.18 999.28 622.37 950.22 727.32 1078.96 732.93
00002473 00000085 848.26 249.97 400.46 621.30 926.21 490.43 1106.39 496.16 999.15 622.33 951.39 727.70 1078.00 733.31
00002474 00000086 849.41 254.30 399.59 614.06 926.90 489.28 1107.43 496.30 999.08 623.75 951.39 725.95 1078.70 732.46
00002475 00000087 850.65 258.92 399.55 608.09 928.99 489.02 1110.78 497.69 1001.07 623.19 951.49 724.63 1078.30 732.32
00002476 00000088 853.12 257.54 398.36 608.58 929.82 486.91 1110.90 498.11 996.71 619.27 945.43 719.76 1075.84 729.75
00002477 00000089 854.28 253.99 398.26 609.78 928.60 485.31 1108.30 495.87 993.09 614.61 942.81 716.69 1075.57 726.18
00002478 00000090 853.86 246.98 399.77 611.14 923.17 481.10 1099.98 489.78 985.18 610.25 938.49 710.95 1072.19 718.66
00002479 00000091 855.87 245.38 399.34 609.23 919.29 474.93 1096.96 483.69 974.76 604.25 933.41 703.47 1070.06 710.95
00002480 00000092 852.10 243.12 403.45 607.63 918.89 470.34 1095.79 479.29 967.64 598.34 927.33 698.58 1069.45 706.04
00002481 00000093 851.62 244.47 403.27 605.74 916.69 466.59 1093.62 474.97 963.21 594.35 924.19 696.49 1065.81 703.49
00002482 00000094 851.46 241.94 402.90 601.29 916.86 464.02 1092.08 473.05 960.39 588.71 923.14 689.54 1065.96 696.84
00002483 00000095 852.78 239.19 399.95 600.03 917.82 461.44 1092.99 471.07 963.04 583.43 921.56 685.36 1066.78 693.05
00002484 00000096 853.99 235.95 398.24 597.20 917.30 460.30 1093.45 469.15 963.24 579.53 919.81 683.80 1065.73 690.79
00002485 00000097 857.11 236.07 396.77 599.45 919.77 460.44 1092.79 469.65 962.87 579.65 922.66 685.00 1065.33 692.65
00002486 00000098 859.28 238.14 394.23 596.06 922.83 461.74 1094.25 471.57 964.39 579.88 924.42 684.50 1064.86 692.87
00002487 00000099 859.62 241.78 395.33 595.09 923.18 462.35 1094.83 470.69 964.07 579.94 925.12 686.60 1064.30 694.09
00002488 00000100 860.47 240.40 395.31 597.72 924.14 462.35 1095.54 470.89 964.13 580.59 925.04 687.28 1065.09 694.88
00002489 00000101 860.73 241.01 394.58 597.11 925.08 462.33 1096.02 469.80 965.69 580.24 927.72 687.86 1066.01 694.86
00002490 00000102 861.86 240.50 392.48 596.67 926.66 464.05 1095.92 470.78 966.85 579.65 929.20 686.93 1067.93 693.30
00002491 00000103 858.98 244.43 399.61 590.94 930.81 470.69 1096.83 481.65 967.30 578.47 931.29 683.13 1070.09 692.46
00002492 00000104 862.18 242.52 396.63 592.32 934.86 474.35 1097.90 485.31 974.26 584.97 936.51 684.63 1072.25 694.13
00002493 00000105 864.38 248.72 394.77 591.74 935.27 478.20 1100.17 486.54 981.38 593.16 943.27 691.66 1080.60 699.03
00002494 DELETE   868.76 247.61 395.90 597.03 934.27 488.69 1108.22 491.43 990.99 602.15 951.88 700.26 1092.74 702.82
00002495 00000107 870.00 255.05 394.72 595.53 938.00 490.30 1112.02 492.47 997.85 606.05 959.07 704.49 1094.77 706.88
00002496 00000108 870.96 258.14 394.98 595.34 940.63 491.70 1117.30 491.38 1005.60 608.69 963.87 709.44 1101.01 709.58
00002497 00000109 872.71 259.15 395.60 597.39 942.87 494.39 1120.15 492.11 1010.49 612.06 969.24 712.85 1106.26 711.23
00002498 00000110 875.13 263.56 395.21 595.79 946.09 495.18 1124.28 493.67 1014.06 613.34 970.97 714.35 1108.73 713.43
00002499 00000111 878.32 266.68 393.05 592.91 948.66 497.86 1127.42 494.23 1017.78 614.57 974.67 717.76 1113.03 714.91
00002500 00000112 880.65 267.60 393.85 595.11 953.55 500.11 1132.90 496.30 1025.64 618.13 979.21 718.85 1118.43 715.40
00002501 00000113 882.95 270.33 392.20 589.76 958.20 504.50 1138.36 500.47 1032.26 623.50 984.33 721.05 1123.78 717.27
00002502 DELETE   886.81 274.12 389.94 580.85 963.39 508.73 1144.38 505.99 1039.09 627.87 987.64 719.99 1130.25 717.28
00002503 00000115 889.62 278.52 388.79 574.60 966.77 510.26 1148.93 509.19 1042.57 630.30 991.52 720.44 1133.68 718.54
00002504 DELETE   891.33 292.30 389.16 564.73 971.98 511.05 1152.65 511.58 1046.18 634.59 995.88 721.65 1136.63 720.77
00002505 00000117 893.80 293.20 388.80 565.87 975.70 510.53 1155.29 514.00 1048.90 636.99 998.06 721.35 1138.86 722.73
00002506 00000118 898.12 290.53 384.73 569.68 979.57 512.28 1158.63 516.24 1053.08 637.49 1001.48 722.92 1142.57 724.45
00002507 00000119 900.36 288.03 382.82 577.76 983.22 514.85 1160.90 519.34 1057.43 639.33 1003.66 724.84 1147.51 726.48
00002508 00000120 900.55 291.15 383.29 579.61 985.56 517.04 1161.69 521.69 1058.93 641.02 1004.84 726.83 1149.62 728.70
00002509 00000121 900.61 292.09 383.41 583.13 987.37 520.48 1162.66 525.28 1059.56 643.71 1004.97 730.17 1150.23 732.21
00002510 00000122 902.50 293.12 382.18 584.04 989.69 524.41 1163.69 530.23 1061.38 646.79 1005.66 732.98 1150.09 736.04
00002511 00000123 903.32 293.48 381.58 584.62 990.90 525.39 1165.02 531.10 1062.28 649.47 1006.84 735.94 1150.10 739.03
00002512 00000124 904.56 293.67 382.17 592.07 991.90 526.54 1164.34 534.48 1068.94 647.81 1004.74 737.88 1143.41 745.37
00002513 00000125 906.38 291.55 381.65 595.76 993.45 526.93 1166.82 534.67 1070.80 649.46 1006.18 739.83 1146.38 746.98
00002514 00000126 906.78 294.67 383.31 593.39 994.84 527.39 1169.85 534.45 1074.12 650.66 1008.33 742.05 1149.47 748.52
00002515 00000127 908.27 295.06 383.37 594.18 994.91 530.71 1171.45 535.47 1075.74 653.16 1009.53 745.82 1153.33 750.32
00002516 00000128 908.47 296.56 386.64 595.58 995.56 531.39 1172.60 535.17 1077.24 654.48 1012.12 747.84 1155.85 751.53
00002517 00000129 908.29 294.92 387.42 598.59 995.22 531.55 1172.30 535.07 1076.82 655.00 1012.98 749.50 1156.35 752.92
00002518 00000130 907.81 294.55 387.39 596.10 994.75 533.57 1173.49 537.95 1077.07 655.71 1010.60 747.86 1156.64 751.91
00002519 00000131 907.69 292.93 387.83 598.17 993.99 532.48 1172.56 538.63 1072.73 656.22 1008.10 746.28 1154.55 751.90
00002520 00000132 906.71 291.82 389.63 599.93 993.29 531.31 1172.45 537.82 1071.45 655.69 1007.09 745.69 1153.42 751.60
00002521 00000133 906.60 294.01 391.22 597.63 993.69 529.51 1174.06 536.81 1070.52 654.78 1006.37 744.51 1153.41 751.12
00002522 00000134 907.26 291.64 392.66 600.29 994.75 529.05 1173.84 536.06 1073.07 653.30 1008.07 744.52 1154.52 750.68
00002523 00000135 907.81 294.07 394.83 598.53 994.91 527.13 1173.18 533.52 1074.06 653.22 1012.01 746.00 1153.69 751.64
00002524 00000136 906.99 290.96 397.14 604.07 992.88 526.21 1170.49 530.02 1072.89 652.98 1015.58 750.91 1152.10 754.42
00002525 00000137 906.45 290.19 398.32 603.84 991.30 524.39 1167.85 528.76 1069.73 651.46 1015.45 750.87 1148.70 754.88
00002526 00000138 906.80 288.67 399.07 604.06 990.19 523.43 1166.39 528.86 1065.73 650.19 1011.35 746.12 1146.79 751.13
00002527 00000139 904.82 289.94 400.47 601.57 987.71 520.42 1165.05 528.25 1060.51 647.33 1006.45 743.18 1141.05 750.49
00002528 00000140 906.27 288.66 399.28 598.71 987.31 518.01 1162.35 528.42 1056.87 646.75 1004.05 738.72 1138.83 748.36
00002529 00000141 906.37 291.92 397.08 590.16 985.91 512.13 1161.50 525.62 1049.73 644.52 999.04 731.07 1134.25 743.05
00002530 00000142 899.51 292.32 403.57 591.14 980.24 506.51 1160.95 521.66 1042.38 639.95 988.32 725.84 1129.22 739.11
00002531 00000143 900.10 294.53 397.82 587.55 976.79 499.13 1158.40 510.40 1036.70 633.97 983.08 724.88 1125.16 735.41
00002532 00000144 895.74 281.71 402.63 601.17 965.23 492.28 1153.49 506.59 1031.23 638.87 975.00 721.09 1122.52 733.65
00002533 00000145 898.27 272.32 398.16 607.97 958.18 487.81 1151.36 500.62 1025.01 632.12 966.23 721.41 1116.71 733.22
00002534 00000146 893.29 267.58 402.15 613.94 954.79 486.23 1148.44 497.10 1020.35 626.67 962.83 722.51 1112.09 732.80
00002535 00000147 888.76 262.05 404.20 623.14 951.21 488.43 1144.87 497.22 1014.71 623.26 960.23 723.36 1108.55 731.92
00002536 00000148 886.65 265.51 404.60 619.27 948.45 489.20 1141.50 496.79 1010.58 621.07 957.60 722.93 1105.04 730.58
00002537 00000149 885.82 269.37 405.59 614.79 946.42 491.15 1139.68 497.23 1008.47 619.85 956.01 722.94 1104.26 729.40
00002538 00000150 886.20 274.26 405.45 611.40 950.74 495.78 1129.84 503.97 1002.22 616.23 966.78 720.58 1103.54 727.28
00002539 00000151 886.98 266.82 398.85 611.05 950.10 509.59 1132.35 511.05 1003.00 629.80 964.29 729.52 1115.48 729.07
00002540 00000152 886.41 269.56 401.26 610.96 952.27 511.80 1137.15 513.16 1008.28 635.61 967.59 732.00 1121.63 731.15
00002541 DELETE   887.18 271.41 406.97 614.85 957.75 515.33 1146.79 514.96 1020.79 639.36 972.93 736.06 1131.31 734.10
00002542 DELETE   880.87 273.32 422.02 628.72 962.52 513.50 1152.99 518.70 1032.64 643.64 979.85 740.24 1130.81 744.61
00002543 00000155 881.60 272.52 423.31 630.13 964.82 512.77 1156.45 517.93 1037.66 647.31 986.24 743.77 1134.23 748.04
00002544 00000156 881.43 276.21 425.49 629.16 966.93 512.34 1161.14 518.02 1042.99 649.88 989.65 745.29 1138.78 750.02
00002545 00000157 881.05 274.16 428.34 635.95 967.82 515.47 1163.88 519.45 1045.71 652.26 991.42 749.22 1142.92 752.59
00002546 00000158 881.30 275.93 430.31 636.78 968.16 519.25 1164.59 521.23 1047.66 654.78 992.74 751.58 1147.16 753.25
00002547 00000159 878.97 277.86 435.73 639.83 968.59 520.44 1165.49 520.89 1048.58 655.34 994.19 753.50 1150.94 753.88
00002548 00000160 878.52 278.57 437.37 638.03 967.74 523.35 1165.49 521.63 1050.98 661.49 996.79 757.08 1156.02 755.62
00002549 00000161 879.31 280.57 436.16 633.91 968.03 525.49 1165.62 525.06 1052.09 668.63 997.19 758.59 1154.83 758.35
00002550 00000162 877.88 285.05 438.45 634.05 966.42 527.12 1166.56 527.55 1052.25 673.10 996.48 761.14 1153.82 761.63
00002551 00000163 876.94 287.17 439.63 634.77 965.97 531.35 1165.44 529.74 1053.05 674.50 999.15 768.13 1150.05 767.10
00002552 00000164 881.58 287.53 428.38 633.27 964.27 533.96 1164.09 531.22 1054.25 673.13 996.36 771.25 1148.86 769.49
00002553 00000165 873.21 288.29 438.19 634.24 961.60 534.25 1160.81 532.57 1050.31 678.57 996.33 767.83 1145.31 766.66
00002554 00000166 871.13 288.62 439.21 631.70 959.89 534.99 1157.40 531.68 1048.64 676.57 996.16 768.38 1143.14 765.92
