Video ID: 	MJbrwuQpDAU
H: 	1080
W: 	1920
FPS: 	30.0

FRAME INDEX X0 Y0 W H [Landmarks (5 Points)]

00009777 00000000 398.70 237.97 464.15 627.40 446.64 488.32 558.31 464.07 407.48 600.99 473.40 720.79 568.01 700.83
00009778 DELETE   402.54 243.38 463.63 627.99 454.32 489.91 559.68 465.82 411.54 604.94 483.41 724.56 574.67 704.20
00009779 00000002 407.93 244.23 460.75 625.08 458.00 490.51 562.08 465.56 413.91 604.37 487.49 724.33 577.64 703.10
00009780 00000003 413.50 241.69 458.90 627.14 461.30 491.11 564.81 464.74 417.17 603.98 489.78 725.34 577.98 702.82
00009781 00000004 416.34 237.84 460.24 626.50 460.32 491.79 568.98 465.35 421.39 603.48 488.27 724.08 579.00 701.80
00009782 00000005 418.51 238.18 459.51 625.14 462.10 489.19 572.45 462.19 422.81 601.66 489.76 722.95 581.35 700.07
00009783 00000006 421.34 236.31 458.37 624.40 463.00 490.01 574.16 463.28 424.14 601.00 488.93 722.41 580.37 699.98
00009784 00000007 422.71 231.99 457.69 625.63 463.44 489.71 575.03 464.15 425.38 599.32 487.40 720.45 579.22 699.21
00009785 00000008 421.73 232.76 459.18 621.39 460.98 489.60 575.01 464.45 425.64 598.98 484.47 719.48 576.18 698.60
00009786 00000009 421.16 230.08 462.29 624.90 461.09 491.14 577.00 465.75 424.83 597.46 484.01 717.66 579.38 696.51
00009787 00000010 421.65 230.60 465.26 629.14 462.50 491.69 578.19 464.69 425.64 597.01 487.42 719.89 582.40 697.21
00009788 00000011 423.36 228.67 467.90 635.61 464.46 493.17 581.47 461.96 428.69 596.73 493.22 723.37 590.42 696.87
00009789 00000012 425.13 229.26 468.23 642.86 468.99 493.38 581.59 458.68 430.13 597.39 502.71 726.66 598.57 696.57
00009790 00000013 427.71 226.83 465.26 644.64 471.49 493.42 582.67 456.28 432.37 596.09 508.16 726.87 602.12 694.58
00009791 00000014 428.70 225.83 464.48 641.68 473.17 491.65 583.63 456.04 433.75 595.08 509.27 725.34 600.19 694.52
00009792 00000015 429.10 224.06 464.63 642.54 474.54 491.86 584.88 457.34 434.72 595.32 510.76 723.79 601.58 693.72
00009793 00000016 428.91 226.25 465.81 639.53 473.19 491.92 584.74 458.46 434.84 595.86 509.12 723.44 600.12 694.44
00009794 00000017 427.99 225.72 466.53 639.47 473.00 490.77 586.03 460.10 435.44 595.37 505.87 721.66 598.42 695.16
00009795 00000018 427.27 225.32 466.83 635.10 471.68 490.06 585.82 461.24 435.32 595.44 503.51 719.28 596.24 694.55
00009796 00000019 427.84 225.15 465.77 634.62 471.37 489.83 585.98 460.39 435.55 595.12 503.10 719.57 595.76 694.40
00009797 00000020 428.07 225.68 465.21 633.33 471.17 490.18 585.43 460.40 435.79 594.69 503.91 718.85 596.11 693.37
00009798 00000021 428.71 223.53 465.89 634.33 472.21 490.78 585.04 458.16 435.53 592.14 506.40 718.12 598.76 690.03
00009799 00000022 430.51 222.60 465.06 637.54 475.42 490.50 585.99 456.39 436.22 591.61 512.13 718.81 604.07 688.90
00009800 00000023 431.11 221.91 466.22 638.80 477.07 490.45 587.40 455.11 437.10 592.03 514.90 719.58 606.62 688.44
00009801 00000024 432.25 221.62 465.88 640.13 478.28 490.07 589.00 454.81 438.06 591.55 516.00 719.40 608.59 688.24
00009802 00000025 432.29 221.96 466.60 640.42 476.83 491.37 589.98 455.46 438.27 592.10 514.62 721.06 608.24 689.49
00009803 00000026 432.27 223.52 466.57 642.06 476.31 492.58 591.58 456.55 439.04 594.23 514.54 722.83 611.12 691.08
00009804 00000027 431.97 226.02 466.15 649.92 478.01 493.24 592.42 456.90 438.77 597.47 517.00 727.67 615.06 695.28
00009805 00000028 431.34 230.73 467.88 647.74 477.08 493.64 593.01 458.31 438.88 600.77 517.23 730.29 615.72 698.57
00009806 00000029 429.70 241.20 453.57 628.55 474.13 501.41 591.97 462.91 445.12 606.59 521.36 735.62 616.06 701.43
00009807 00000030 433.71 234.94 462.59 631.25 474.76 502.34 593.12 471.20 444.23 603.00 515.28 725.53 610.24 697.90
00009808 00000031 434.04 231.76 461.45 631.51 474.26 502.04 594.10 471.08 444.27 600.79 512.57 723.72 608.53 696.37
00009809 00000032 434.54 235.70 463.73 626.45 475.32 498.64 594.96 468.65 444.29 600.05 512.00 723.85 606.39 697.19
00009810 00000033 434.51 234.66 463.78 629.53 476.81 497.00 595.09 468.14 444.45 601.55 512.53 724.89 606.00 699.25
00009811 00000034 433.90 236.27 464.72 630.25 479.29 494.45 596.44 466.85 445.24 602.33 514.43 725.77 607.26 701.00
00009812 00000035 433.84 237.86 466.07 630.62 477.73 494.78 596.40 466.29 444.34 604.18 514.29 728.49 607.53 702.88
00009813 00000036 432.49 241.59 466.73 627.87 476.07 495.26 595.13 466.50 442.61 605.83 513.68 730.07 606.70 704.17
00009814 00000037 433.21 237.23 466.14 631.25 476.56 494.87 595.96 465.16 443.68 603.28 513.69 728.40 607.76 701.77
00009815 00000038 436.06 239.16 465.13 626.03 477.35 494.70 598.60 463.70 445.54 601.09 514.79 726.80 610.58 699.00
00009816 00000039 435.73 237.09 465.48 628.80 476.96 496.45 597.90 463.03 445.14 600.49 515.97 726.68 613.72 696.76
00009817 00000040 433.70 237.62 468.80 632.06 477.28 495.35 598.05 461.01 443.96 601.37 520.37 725.42 623.85 694.09
00009818 00000041 430.74 245.66 472.45 635.86 478.72 498.05 597.43 459.86 441.84 606.39 528.09 729.06 637.44 693.65
00009819 00000042 430.95 246.49 473.07 636.28 480.00 496.61 599.62 459.51 443.81 608.58 531.43 729.34 642.18 694.51
00009820 00000043 433.96 242.93 473.64 634.74 481.92 494.12 604.19 458.62 446.60 607.33 530.42 728.04 641.28 694.58
00009821 00000044 434.67 241.26 466.47 630.32 481.01 495.09 603.82 461.49 453.01 607.27 529.84 730.03 635.46 700.49
00009822 00000045 435.59 238.59 466.17 632.96 483.59 493.54 603.96 462.84 453.07 607.94 529.16 729.04 631.64 702.12
00009823 00000046 434.96 243.38 465.08 627.43 482.95 493.46 605.60 465.05 454.00 609.21 526.53 729.65 626.02 704.90
00009824 00000047 432.05 243.72 465.50 625.73 480.03 494.56 604.44 466.62 451.39 611.50 520.82 733.67 616.70 709.59
00009825 00000048 431.01 242.04 463.64 625.28 479.12 494.00 602.43 467.77 449.87 612.70 516.23 734.88 608.28 712.44
00009826 00000049 430.00 242.67 461.64 622.82 476.65 491.69 601.73 467.67 449.18 613.04 512.02 734.07 602.68 713.66
00009827 00000050 428.90 241.79 461.12 623.27 474.98 493.67 600.42 468.89 448.73 614.30 510.66 734.85 601.22 713.92
00009828 00000051 428.96 236.93 460.40 627.26 470.04 498.05 601.75 469.42 449.57 614.22 506.28 736.55 601.18 713.00
00009829 00000052 427.66 238.00 461.92 626.73 467.95 501.30 602.67 470.85 450.22 615.12 506.51 738.59 602.55 713.72
00009830 00000053 428.09 236.63 463.85 631.67 470.44 500.67 602.20 469.67 450.52 614.85 510.26 740.31 603.66 714.80
00009831 00000054 429.27 235.50 465.59 634.02 474.36 496.90 603.69 468.58 452.38 614.35 514.79 737.88 608.66 714.33
00009832 00000055 429.01 233.29 470.13 637.98 475.60 497.98 605.23 468.03 456.21 614.06 517.04 739.16 610.41 714.55
00009833 00000056 428.47 230.28 470.39 640.76 474.55 497.10 606.05 467.34 456.79 612.85 516.61 739.06 611.04 714.59
00009834 00000057 428.95 231.88 469.01 638.78 474.77 498.35 605.36 468.96 456.41 613.71 516.81 737.82 612.09 713.58
00009835 00000058 430.09 233.61 467.01 634.96 475.27 498.55 606.00 470.43 456.18 614.90 518.14 735.47 614.98 712.14
00009836 00000059 430.11 232.79 463.35 635.74 473.65 497.35 605.79 470.80 454.72 613.04 514.61 733.11 613.40 710.98
00009837 00000060 431.76 231.41 460.52 635.58 475.14 495.30 606.74 471.04 454.24 612.33 512.77 730.78 612.52 710.63
00009838 00000061 432.66 229.99 458.97 635.30 476.08 494.65 607.29 469.53 454.80 610.62 512.79 730.02 612.42 709.23
00009839 00000062 436.81 227.51 458.95 635.29 478.13 493.76 610.45 467.22 459.01 608.51 514.58 729.10 615.14 707.49
00009840 00000063 438.19 226.56 461.25 637.96 480.18 493.71 611.83 466.74 460.57 607.15 516.96 729.70 616.84 707.62
00009841 00000064 437.64 224.82 465.79 645.42 481.48 493.70 612.24 463.33 461.59 604.91 520.56 732.43 618.74 707.39
00009842 00000065 440.12 221.15 466.87 644.35 484.33 488.57 614.74 460.62 464.01 600.18 522.65 726.57 620.62 703.49
00009843 00000066 443.66 220.57 464.56 637.87 488.00 486.55 615.94 459.99 466.80 597.86 525.02 721.01 621.73 699.17
00009844 00000067 447.60 220.26 460.96 635.13 491.37 484.06 619.97 460.21 470.16 595.55 526.36 716.12 624.98 696.71
00009845 00000068 449.93 217.07 460.40 635.97 494.12 482.50 620.67 458.24 470.83 592.42 528.06 714.13 625.30 694.45
00009846 00000069 452.54 216.38 457.82 636.43 499.30 481.11 622.58 457.17 473.27 591.80 532.58 713.25 626.82 693.89
00009847 00000070 455.23 217.71 458.83 635.61 501.60 481.10 623.61 456.97 474.28 591.57 534.51 713.01 628.16 693.51
00009848 00000071 456.07 219.35 459.38 634.24 501.71 480.86 624.34 458.14 474.83 592.63 535.28 712.02 629.37 693.67
00009849 00000072 457.01 219.55 458.74 634.93 503.31 480.52 624.20 459.30 474.45 593.79 535.46 711.94 629.14 694.80
00009850 00000073 457.40 221.00 458.70 634.29 502.61 482.57 624.99 459.55 474.99 594.18 535.43 713.49 629.87 694.99
00009851 00000074 458.61 219.35 460.48 634.52 503.68 480.97 627.40 458.66 476.68 592.47 536.04 711.94 630.88 694.09
00009852 00000075 462.57 218.35 456.14 631.83 505.34 481.63 629.72 457.76 480.09 589.51 536.01 710.30 631.63 691.43
00009853 00000076 467.60 214.58 453.54 628.67 509.08 478.30 630.41 455.04 481.38 585.54 539.32 704.72 633.77 686.31
00009854 00000077 471.61 212.64 447.81 620.77 512.49 475.61 633.46 450.91 485.95 579.74 543.95 698.48 638.88 678.99
00009855 00000078 474.10 212.61 447.14 617.52 514.62 473.82 636.89 449.45 489.47 577.40 545.26 695.69 641.81 676.66
00009856 00000079 475.16 211.31 447.21 617.90 513.93 474.98 638.15 448.92 490.77 576.26 545.89 696.23 643.58 675.72
00009857 00000080 475.81 210.47 446.90 619.81 515.46 474.73 637.49 449.50 490.37 576.65 546.82 696.20 642.81 676.29
00009858 00000081 476.56 210.21 448.83 620.83 516.96 475.66 637.92 449.82 490.03 577.16 547.63 696.27 643.14 675.82
00009859 00000082 477.68 210.36 449.79 620.99 518.00 476.36 639.47 452.20 490.35 578.22 547.14 697.04 641.91 677.95
00009860 00000083 477.06 209.87 451.73 624.95 518.70 477.71 637.99 453.05 489.11 579.83 547.15 698.87 640.27 679.39
00009861 00000084 476.20 208.16 451.33 623.38 517.10 474.72 638.62 450.82 490.12 577.55 547.04 696.16 640.64 677.35
00009862 00000085 476.16 205.81 452.09 622.79 517.08 472.81 640.09 448.99 491.71 574.70 547.60 693.49 642.49 674.78
00009863 00000086 477.52 204.11 451.53 623.95 517.94 470.35 641.09 448.46 491.65 572.93 548.10 690.74 644.32 673.50
00009864 00000087 478.42 201.65 451.74 627.40 516.76 469.30 642.63 446.31 492.45 570.66 549.01 690.68 646.90 672.63
00009865 00000088 478.36 200.56 450.83 629.23 515.57 469.95 642.43 444.77 494.23 569.48 550.41 690.30 650.37 670.63
00009866 00000089 480.34 200.37 450.33 629.87 517.78 469.04 644.12 441.30 497.06 567.01 555.14 690.38 655.66 668.59
00009867 00000090 481.58 198.31 452.55 635.26 519.38 468.56 644.75 439.40 496.83 566.74 560.45 691.73 661.36 668.46
00009868 00000091 482.52 196.54 451.53 640.46 518.17 468.94 643.94 436.20 495.81 564.72 561.18 693.62 662.18 667.40
00009869 00000092 481.87 194.67 454.07 642.32 514.76 467.17 646.21 436.07 495.10 565.80 555.35 693.35 661.51 668.66
00009870 00000093 481.68 195.93 452.85 637.98 511.86 467.44 646.75 435.87 494.51 564.69 550.90 693.18 657.90 668.26
00009871 00000094 479.62 193.83 451.73 640.13 509.75 464.85 646.27 435.76 492.92 564.46 548.02 690.34 658.34 667.30
00009872 00000095 478.81 194.86 452.31 638.33 508.49 465.18 645.81 435.65 492.73 564.41 547.28 690.40 658.72 666.91
00009873 00000096 476.69 193.79 454.47 638.38 507.94 463.75 646.47 433.77 491.52 564.31 547.53 690.27 661.74 666.46
00009874 00000097 475.63 194.20 455.78 637.92 508.67 463.99 645.41 430.91 492.46 565.02 552.72 692.89 661.99 666.46
00009875 00000098 476.35 191.98 453.46 642.59 512.03 461.86 640.81 428.27 489.28 563.80 558.43 691.86 663.41 664.65
00009876 00000099 474.94 190.10 465.05 644.19 508.83 461.61 638.02 426.65 487.57 568.29 560.16 697.83 660.34 667.89
00009877 00000100 473.77 189.89 465.76 644.23 507.78 462.13 636.92 427.02 486.55 569.00 559.76 698.02 660.54 667.83
00009878 00000101 474.88 194.36 451.73 639.38 511.53 461.38 637.73 428.26 488.12 563.64 558.14 691.23 660.72 664.42
00009879 00000102 471.58 194.13 453.98 639.10 506.32 462.99 637.41 428.70 488.94 564.83 553.59 692.75 659.00 665.13
00009880 00000103 471.04 194.63 453.71 638.14 506.54 461.91 637.28 429.11 489.24 565.28 553.24 692.22 657.79 665.80
00009881 00000104 470.29 194.56 453.19 638.05 506.35 461.52 636.68 429.50 488.21 565.32 551.84 692.05 655.42 666.28
00009882 00000105 469.38 193.93 451.84 638.24 505.90 459.72 634.84 426.66 485.67 563.67 551.71 692.21 654.41 665.51
00009883 00000106 464.23 190.31 467.92 641.19 501.54 460.06 633.28 427.36 481.19 566.84 547.90 697.21 647.64 669.28
00009884 00000107 462.75 189.65 469.69 640.94 501.80 459.73 632.15 427.67 480.75 566.36 545.76 696.98 643.95 669.60
00009885 00000108 461.70 189.84 470.56 641.35 500.82 459.71 631.94 427.66 479.34 567.01 545.32 697.57 644.15 670.14
00009886 00000109 461.24 189.34 469.18 641.44 500.69 459.65 633.37 427.41 480.07 565.42 543.41 697.80 642.83 670.35
00009887 00000110 459.65 187.59 471.15 643.00 498.91 459.14 634.19 426.88 479.56 564.25 540.18 697.01 641.54 669.74
00009888 00000111 460.12 184.59 470.40 644.37 498.90 458.01 634.49 425.13 480.18 561.98 539.64 695.21 640.89 667.68
00009889 00000112 464.49 181.43 467.14 645.21 501.48 455.00 637.22 422.48 484.07 556.82 539.23 690.59 641.80 663.79
00009890 00000113 467.74 177.25 466.60 646.78 505.06 451.50 636.44 419.80 483.70 554.39 541.66 686.64 642.35 660.58
00009891 00000114 470.39 174.28 463.99 647.82 508.28 445.82 637.43 417.73 485.46 551.07 543.61 681.75 642.33 658.75
00009892 00000115 469.06 171.06 466.14 646.44 509.04 440.66 637.92 413.52 484.54 544.99 541.67 677.32 639.81 655.25
CROP_BBOX: 148 0 1249 1067
