Video ID: 	DToQThM35oc
H: 	2160
W: 	3840
FPS: 	29.97002997002997

FRAME INDEX X0 Y0 W H [Landmarks (5 Points)]

00001570 00000000 1391.75 372.34 610.53 753.48 1633.36 618.90 1910.90 605.99 1828.52 824.46 1632.96 940.54 1887.74 931.92
00001571 00000001 1381.81 358.79 613.75 765.00 1616.99 609.43 1898.07 606.69 1805.25 809.23 1620.93 940.42 1873.33 938.79
00001572 DELETE   1377.85 349.84 613.05 768.50 1603.51 598.15 1885.85 603.80 1783.97 800.93 1603.84 936.77 1858.99 941.67
00001573 00000003 1373.78 354.64 614.66 757.73 1591.45 592.71 1876.09 594.31 1771.37 800.21 1589.75 933.89 1851.75 935.74
00001574 DELETE   1368.89 329.31 619.45 783.59 1573.95 585.90 1866.53 587.22 1748.64 799.47 1576.05 927.64 1843.46 928.76
00001575 DELETE   1358.50 316.44 628.50 797.14 1557.89 586.44 1853.34 581.67 1732.47 793.31 1570.24 926.35 1829.95 922.36
00001576 00000006 1356.73 320.53 627.40 799.71 1540.65 581.89 1839.94 575.76 1708.88 785.36 1560.47 921.64 1818.01 916.35
00001577 00000007 1350.20 324.83 633.39 801.53 1521.67 573.52 1827.73 568.82 1686.26 780.44 1548.27 919.39 1801.97 914.81
00001578 00000008 1345.03 313.11 639.20 815.45 1508.20 567.36 1815.72 562.86 1665.59 774.03 1537.28 913.72 1793.76 909.45
00001579 00000009 1338.92 286.14 642.18 835.32 1499.54 564.75 1806.77 559.61 1651.59 770.41 1526.92 909.84 1785.60 905.19
00001580 00000010 1334.26 272.47 645.82 844.94 1491.66 560.39 1799.39 554.11 1639.41 766.16 1514.74 910.59 1787.13 904.59
00001581 00000011 1335.99 268.50 641.85 828.46 1489.22 554.29 1793.00 550.47 1632.64 762.24 1516.33 906.02 1780.00 902.08
00001582 00000012 1331.90 258.36 643.02 841.50 1483.27 550.19 1787.03 546.86 1623.57 755.44 1508.47 901.35 1777.66 897.96
00001583 00000013 1332.77 259.16 636.44 833.89 1481.98 548.52 1779.54 545.67 1617.44 755.11 1505.62 901.30 1770.03 898.56
00001584 00000014 1331.60 257.92 629.79 838.33 1480.43 549.34 1771.22 546.89 1608.80 752.57 1501.92 899.77 1763.23 897.26
00001585 00000015 1326.75 256.32 638.49 844.46 1478.62 546.86 1768.23 547.02 1602.82 752.80 1500.77 895.92 1756.85 895.40
00001586 00000016 1324.23 251.96 641.16 848.45 1473.45 546.34 1763.27 546.71 1594.89 749.82 1495.92 893.21 1754.30 892.38
00001587 00000017 1318.93 246.60 645.74 847.65 1467.86 545.27 1759.13 545.90 1590.37 747.82 1489.89 887.80 1753.30 887.12
00001588 00000018 1320.11 250.76 641.92 842.48 1465.78 544.82 1759.49 546.35 1587.75 746.03 1486.39 888.93 1754.23 889.02
00001589 00000019 1320.50 253.06 641.50 840.78 1466.18 541.70 1759.09 543.39 1587.25 744.91 1486.91 888.33 1752.02 888.68
00001590 00000020 1319.64 243.99 642.86 849.29 1467.03 538.21 1760.69 540.78 1587.85 743.29 1488.04 885.62 1752.73 886.79
00001591 00000021 1320.88 242.53 644.48 850.15 1470.58 536.85 1760.19 538.00 1589.68 742.20 1493.22 885.67 1751.61 885.66
00001592 00000022 1318.75 238.31 644.22 856.51 1469.76 536.26 1759.89 536.03 1591.19 739.72 1495.32 884.67 1750.62 883.32
00001593 00000023 1320.88 243.41 643.41 848.80 1470.22 532.85 1758.47 533.37 1588.63 737.59 1494.92 883.27 1748.74 882.62
00001594 00000024 1321.14 247.57 642.69 847.92 1470.45 533.76 1758.00 533.54 1588.85 738.15 1494.47 882.33 1748.49 880.95
00001595 00000025 1320.73 248.18 642.21 842.88 1469.64 533.17 1757.09 534.33 1587.56 737.32 1494.37 880.90 1746.28 880.62
00001596 00000026 1323.00 239.63 641.41 851.22 1471.51 533.38 1758.80 533.42 1589.18 737.56 1495.42 877.55 1750.12 876.35
00001597 00000027 1327.03 247.11 636.75 836.14 1473.64 532.50 1763.08 534.34 1592.85 738.55 1495.68 877.04 1753.23 877.37
00001598 00000028 1328.29 246.77 636.11 843.25 1474.70 533.17 1766.00 535.63 1594.26 739.94 1495.36 878.00 1756.46 878.89
00001599 00000029 1328.29 246.73 637.58 841.83 1473.53 533.55 1765.82 535.84 1593.68 741.71 1493.91 877.48 1757.51 878.10
00001600 00000030 1325.52 247.43 644.03 842.83 1473.79 534.04 1764.58 534.05 1595.19 739.86 1497.53 877.14 1758.60 875.53
00001601 00000031 1326.74 244.98 639.09 847.96 1476.13 535.29 1762.09 535.73 1594.08 741.50 1497.62 881.10 1753.83 880.28
00001602 00000032 1324.93 252.65 648.64 844.32 1464.42 535.49 1761.59 535.89 1587.88 744.94 1496.61 880.11 1748.33 879.22
00001603 00000033 1322.93 246.13 647.58 856.99 1462.97 537.51 1762.15 537.86 1588.90 749.22 1493.79 880.47 1751.90 879.68
00001604 00000034 1326.42 253.26 648.02 851.23 1467.09 537.74 1764.52 538.46 1591.18 750.47 1496.54 879.50 1755.42 879.28
00001605 00000035 1325.13 249.10 647.69 855.17 1466.01 539.10 1764.25 539.36 1591.45 752.15 1495.88 880.19 1756.17 879.39
00001606 00000036 1324.17 252.28 649.26 855.22 1463.90 541.67 1762.29 541.87 1589.93 754.84 1491.97 879.01 1756.84 877.98
00001607 00000037 1323.00 250.07 648.22 857.26 1463.25 541.66 1761.47 542.54 1589.74 758.02 1490.87 878.31 1756.73 877.82
00001608 00000038 1322.98 258.12 637.25 840.61 1470.32 549.47 1757.47 549.58 1592.35 755.80 1490.22 882.48 1756.63 880.81
00001609 00000039 1322.30 261.48 637.77 837.99 1467.84 552.42 1757.77 552.47 1591.79 757.64 1488.00 883.50 1755.52 881.89
00001610 00000040 1320.58 263.41 637.26 839.56 1466.54 552.65 1755.73 553.88 1589.49 758.04 1485.01 882.89 1751.44 882.43
00001611 00000041 1317.88 262.08 638.43 843.94 1466.16 551.39 1755.03 552.85 1589.17 758.95 1483.88 882.86 1750.59 882.49
00001612 00000042 1316.78 257.73 639.02 846.24 1465.39 553.97 1752.39 553.09 1589.93 760.82 1482.31 883.82 1751.76 881.65
00001613 00000043 1314.11 259.21 643.08 854.40 1452.48 551.86 1753.95 550.26 1584.86 762.40 1482.06 885.30 1747.44 882.68
00001614 00000044 1311.52 259.27 646.49 858.11 1449.11 550.97 1753.51 549.13 1581.50 762.86 1480.20 885.98 1745.40 883.23
00001615 00000045 1308.57 252.24 643.60 864.37 1445.54 551.40 1748.94 548.36 1578.62 760.51 1477.08 886.00 1742.45 882.21
00001616 00000046 1304.90 260.73 643.95 855.62 1442.65 552.37 1747.02 548.40 1576.60 763.43 1474.98 888.20 1740.26 883.42
00001617 00000047 1303.56 258.85 639.96 860.88 1439.88 552.32 1743.51 549.03 1572.78 764.10 1470.82 889.30 1734.45 885.46
00001618 00000048 1301.92 273.97 634.98 844.06 1438.37 557.73 1741.98 552.66 1573.75 767.18 1471.70 891.95 1734.13 886.19
00001619 00000049 1301.25 282.74 633.78 836.48 1437.90 564.06 1741.22 558.94 1573.18 770.29 1473.16 897.52 1732.72 891.45
00001620 00000050 1300.92 288.40 629.86 831.20 1438.31 568.25 1739.49 563.92 1572.53 773.81 1470.49 900.29 1731.56 894.82
00001621 00000051 1297.26 284.64 632.65 836.36 1435.39 571.01 1736.01 566.50 1569.98 777.56 1467.66 901.27 1727.71 895.78
00001622 00000052 1296.18 290.41 630.99 829.66 1435.68 572.52 1734.23 568.11 1569.88 779.12 1466.64 903.58 1727.04 898.29
00001623 00000053 1295.36 284.55 631.80 831.72 1433.82 577.33 1729.73 571.14 1566.70 782.25 1466.04 907.94 1724.75 900.88
00001624 00000054 1297.02 284.40 628.40 835.10 1432.98 575.90 1730.07 569.85 1566.05 779.25 1465.92 906.33 1723.01 899.65
00001625 00000055 1295.97 286.62 626.66 830.01 1431.80 577.26 1729.29 571.54 1564.58 779.23 1464.51 907.50 1720.77 901.17
00001626 00000056 1294.20 293.43 626.83 822.78 1430.57 578.36 1727.33 571.75 1563.97 779.69 1463.73 909.04 1720.59 901.84
00001627 00000057 1294.26 291.69 627.47 825.72 1429.95 578.98 1726.64 572.76 1562.54 779.53 1461.83 908.87 1720.95 902.01
00001628 00000058 1291.12 299.26 629.58 820.13 1429.03 579.05 1726.84 573.95 1561.62 779.81 1459.70 908.27 1721.32 902.27
00001629 00000059 1290.82 296.40 628.81 821.30 1428.93 579.45 1726.74 574.57 1561.82 780.30 1459.55 908.03 1720.58 902.21
00001630 00000060 1289.45 298.98 629.54 815.65 1427.79 579.96 1726.13 575.02 1560.91 779.04 1459.42 908.32 1718.19 902.52
00001631 00000061 1289.62 296.90 630.74 820.55 1428.28 579.47 1726.98 575.08 1561.47 778.81 1458.03 907.06 1718.57 901.95
00001632 00000062 1289.30 297.30 631.21 819.54 1429.51 578.89 1728.04 574.53 1562.95 779.81 1459.61 907.62 1720.31 902.29
00001633 00000063 1289.92 291.81 630.90 825.74 1429.79 575.75 1728.25 571.80 1563.33 777.64 1458.81 904.03 1720.34 899.22
00001634 00000064 1291.89 286.10 629.94 831.47 1430.86 574.39 1729.10 569.83 1564.20 775.47 1459.24 903.72 1722.78 898.38
00001635 00000065 1296.58 281.04 625.83 833.03 1433.93 573.44 1731.42 569.04 1566.89 773.59 1465.37 904.07 1721.76 898.77
00001636 00000066 1296.70 283.95 630.10 832.28 1434.07 572.74 1733.23 568.08 1566.97 774.20 1467.53 908.40 1721.23 902.95
00001637 00000067 1294.71 290.23 630.58 824.16 1434.86 574.47 1733.70 569.96 1568.43 774.54 1468.23 908.45 1721.81 902.96
00001638 00000068 1295.72 291.50 631.24 826.79 1435.81 577.49 1735.83 571.87 1570.30 776.47 1469.96 913.38 1725.04 906.82
00001639 00000069 1293.72 296.77 634.92 822.51 1435.25 580.47 1735.39 574.60 1569.94 779.61 1470.71 916.83 1724.51 909.97
00001640 00000070 1293.69 293.55 636.48 828.42 1436.55 579.73 1736.36 573.80 1571.25 779.87 1471.14 917.45 1726.02 910.75
00001641 00000071 1296.59 292.63 634.56 829.06 1438.95 577.57 1737.04 572.66 1572.05 781.28 1471.34 916.59 1726.30 910.98
00001642 00000072 1299.74 288.32 632.96 830.20 1439.39 575.67 1737.38 569.34 1572.53 781.63 1474.97 916.27 1727.32 909.16
00001643 00000073 1300.82 285.35 630.02 831.34 1439.32 574.28 1737.03 568.22 1571.72 779.19 1473.36 914.41 1727.25 907.68
00001644 00000074 1300.86 291.60 630.91 823.71 1439.57 572.42 1736.70 568.57 1570.76 779.11 1469.61 910.90 1725.98 906.27
00001645 00000075 1301.21 292.59 632.97 824.63 1437.78 573.84 1735.12 567.49 1569.66 779.84 1470.25 913.43 1728.37 906.53
00001646 00000076 1299.34 284.54 633.26 833.99 1437.00 575.30 1734.79 568.35 1569.40 778.91 1472.48 915.22 1725.85 907.84
00001647 00000077 1299.06 278.63 628.84 837.68 1443.92 574.14 1731.19 570.03 1570.98 773.79 1469.23 920.65 1725.70 915.72
00001648 00000078 1298.47 286.52 634.55 836.89 1435.05 575.26 1734.10 568.80 1566.43 779.23 1473.79 919.41 1719.68 912.38
00001649 00000079 1299.06 289.94 635.05 835.41 1436.83 572.40 1737.33 569.30 1567.90 780.68 1473.66 915.34 1718.43 911.47
00001650 00000080 1300.52 280.05 636.73 848.88 1439.94 570.97 1741.20 567.53 1571.41 781.16 1474.11 916.91 1723.32 913.24
00001651 00000081 1300.31 276.96 637.84 850.82 1440.24 571.63 1741.86 567.33 1572.84 780.99 1477.99 918.09 1723.75 913.42
00001652 00000082 1302.04 281.21 635.65 846.60 1442.03 570.14 1743.31 563.53 1575.61 778.77 1483.71 916.11 1726.07 909.49
00001653 00000083 1301.95 277.67 637.77 851.49 1441.86 570.39 1743.87 564.06 1575.41 779.04 1483.36 917.39 1726.02 911.07
00001654 00000084 1305.29 276.13 638.20 848.12 1444.38 569.78 1745.54 565.38 1576.74 776.95 1482.63 913.16 1726.46 908.47
00001655 00000085 1304.88 281.37 636.79 841.83 1445.69 568.57 1747.46 564.45 1579.62 775.00 1481.28 912.15 1733.93 907.41
00001656 00000086 1304.88 287.75 640.73 834.89 1446.46 570.65 1748.53 565.12 1581.14 774.00 1480.26 913.24 1739.26 907.21
00001657 00000087 1305.06 289.82 639.66 832.98 1447.23 572.87 1748.91 566.63 1582.40 772.98 1483.78 914.68 1737.14 907.96
00001658 00000088 1305.41 292.20 641.73 829.95 1449.29 574.04 1752.44 569.67 1585.85 775.47 1489.37 918.21 1731.95 912.81
00001659 00000089 1307.83 295.38 638.41 825.63 1451.03 575.07 1750.45 569.89 1585.34 777.97 1491.32 919.15 1733.20 913.12
00001660 00000090 1308.32 299.94 638.81 823.73 1451.97 577.07 1750.74 571.25 1585.24 779.90 1490.89 922.33 1736.26 915.88
00001661 00000091 1308.09 302.45 639.42 820.34 1452.00 578.59 1749.93 571.84 1585.94 780.60 1495.13 923.53 1734.83 916.03
00001662 00000092 1308.17 302.63 640.33 818.84 1452.32 577.50 1751.62 573.30 1585.78 782.77 1490.71 927.48 1733.22 922.47
00001663 00000093 1308.41 307.58 641.80 819.67 1452.09 578.87 1751.33 573.79 1585.16 782.38 1489.06 924.89 1737.04 919.60
00001664 00000094 1309.52 311.32 639.97 818.13 1452.87 577.82 1752.11 571.95 1586.04 783.01 1489.52 924.68 1738.00 919.05
00001665 00000095 1307.56 313.43 640.88 814.92 1449.71 580.63 1752.46 574.89 1584.64 781.89 1487.94 924.15 1737.24 918.22
00001666 00000096 1308.14 310.45 641.35 817.02 1452.13 579.16 1753.02 573.62 1587.60 783.87 1487.65 922.57 1739.95 917.10
00001667 00000097 1308.21 313.25 641.64 811.72 1452.54 579.74 1754.20 574.01 1589.15 784.24 1488.05 922.40 1741.90 916.57
00001668 00000098 1307.24 315.59 642.63 809.78 1452.36 579.26 1754.02 574.39 1588.38 786.63 1487.54 921.62 1743.84 916.42
00001669 00000099 1311.69 314.16 638.17 809.29 1456.12 581.43 1757.70 577.28 1591.27 787.37 1488.86 922.79 1746.68 918.31
00001670 00000100 1309.22 311.87 640.21 812.67 1456.72 580.33 1759.67 576.03 1595.29 791.26 1488.74 920.97 1749.25 916.28
00001671 00000101 1310.61 307.34 641.42 813.84 1456.99 581.39 1761.58 577.05 1596.08 791.36 1487.63 923.10 1753.18 918.24
00001672 00000102 1312.12 308.92 637.19 812.80 1458.23 584.97 1761.69 578.28 1598.84 798.65 1490.95 926.01 1757.31 919.29
00001673 00000103 1312.04 306.17 637.78 814.55 1461.69 582.61 1767.66 577.16 1605.68 796.11 1492.25 926.02 1760.26 920.68
00001674 00000104 1315.44 303.23 640.51 819.75 1464.41 581.14 1771.99 577.02 1608.35 797.25 1491.54 922.79 1763.98 918.91
00001675 00000105 1314.97 308.47 638.82 812.36 1468.20 581.16 1773.58 577.20 1613.45 796.91 1493.65 922.65 1763.25 919.23
00001676 00000106 1317.97 314.62 640.88 800.98 1476.42 578.64 1782.82 574.62 1626.94 793.13 1502.10 925.04 1767.10 921.79
00001677 00000107 1334.70 319.91 625.03 792.52 1497.49 574.04 1793.10 574.65 1647.20 797.31 1514.66 921.38 1778.13 920.93
00001678 00000108 1339.80 335.73 634.74 777.10 1517.47 578.63 1820.42 583.97 1675.06 798.16 1533.04 918.84 1790.68 922.14
00001679 00000109 1347.18 330.39 627.07 785.07 1545.41 584.83 1839.00 582.80 1713.50 791.52 1555.18 920.95 1813.51 919.74
00001680 00000110 1364.87 345.96 612.47 762.86 1583.08 581.83 1863.54 585.18 1756.95 796.77 1580.92 915.62 1835.86 919.17
00001681 00000111 1385.85 338.16 601.49 771.17 1621.05 583.49 1899.24 596.50 1803.25 783.55 1614.49 912.32 1862.21 924.25
00001682 00000112 1396.18 355.20 600.38 755.52 1650.76 581.73 1916.82 591.36 1840.67 785.13 1640.25 910.94 1885.20 919.89
00001683 00000113 1396.42 348.14 612.95 777.04 1673.77 576.60 1935.64 586.58 1880.71 785.57 1657.64 910.04 1904.49 922.05
00001684 00000114 1406.26 342.83 612.17 773.46 1688.82 577.75 1957.61 589.23 1899.22 783.67 1676.38 913.14 1920.85 925.56
00001685 DELETE   1414.39 351.70 606.43 768.76 1705.17 571.89 1965.90 583.27 1916.02 781.18 1690.37 913.41 1931.09 925.72
00001686 DELETE   1417.13 347.41 609.33 770.29 1717.73 570.78 1971.25 588.49 1921.94 778.26 1700.11 911.11 1934.61 927.24
00001687 00000117 1428.28 342.74 617.51 773.34 1732.31 578.29 1985.48 596.85 1930.52 777.58 1714.79 910.91 1939.07 925.23
00001688 00000118 1424.29 341.68 623.60 778.76 1743.23 573.71 1997.04 594.57 1950.42 776.16 1722.29 910.22 1947.75 928.26
00001689 00000119 1434.94 356.83 629.50 758.43 1758.27 578.48 2004.32 598.21 1955.66 774.06 1737.76 911.64 1948.94 926.90
00001690 00000120 1436.26 351.68 618.27 758.30 1763.58 578.81 2006.19 597.38 1965.59 774.80 1738.43 911.98 1949.32 929.97
00001691 DELETE   1436.41 352.30 622.97 759.96 1771.88 579.60 2014.25 596.98 1979.10 778.43 1745.23 916.23 1956.43 932.23
00001692 00000122 1437.10 344.47 624.18 764.60 1777.35 581.22 2019.36 598.70 1985.94 782.49 1747.94 919.49 1959.58 936.10
00001693 00000123 1439.91 346.71 621.75 761.43 1782.52 580.05 2022.75 601.37 1988.14 784.35 1751.72 917.97 1962.52 937.15
00001694 00000124 1439.81 347.41 620.80 757.55 1785.77 580.61 2020.82 598.41 1990.99 784.08 1758.29 918.13 1962.12 933.76
00001695 00000125 1443.46 343.97 613.95 764.66 1787.89 583.55 2021.07 601.85 1992.58 792.72 1759.19 920.58 1966.70 937.81
00001696 00000126 1441.97 345.17 617.79 763.13 1788.11 579.02 2022.23 600.11 1992.22 783.54 1762.07 919.57 1964.61 937.60
00001697 00000127 1439.20 347.36 619.88 759.39 1788.60 578.37 2021.71 602.40 1992.50 784.78 1761.86 920.49 1961.91 940.51
00001698 00000128 1441.74 344.27 613.55 760.69 1785.68 580.19 2021.73 603.95 1989.63 787.60 1765.40 922.88 1967.43 943.18
00001699 00000129 1439.04 347.81 617.44 760.91 1787.77 578.59 2018.20 599.93 1991.02 786.06 1763.02 921.56 1959.67 939.62
00001700 00000130 1441.32 346.40 613.30 765.94 1783.94 579.36 2018.53 605.08 1989.03 789.33 1762.75 927.87 1964.09 949.66
00001701 00000131 1437.91 352.05 617.63 760.70 1787.05 576.45 2016.34 601.36 1991.10 786.42 1757.69 922.78 1956.06 943.77
00001702 00000132 1443.68 351.10 606.68 756.90 1779.89 585.10 2013.64 612.01 1983.00 788.83 1753.20 926.19 1956.22 950.59
00001703 00000133 1436.86 342.10 612.86 765.07 1776.61 578.18 2009.29 598.35 1986.89 787.25 1751.82 929.02 1958.10 947.10
00001704 00000134 1439.11 346.31 609.87 765.43 1775.86 582.39 2009.53 604.68 1983.25 792.84 1750.53 929.58 1958.06 949.23
00001705 00000135 1439.79 344.68 610.57 770.43 1772.77 586.05 2011.24 599.72 1981.48 797.06 1748.43 931.80 1960.16 945.61
00001706 00000136 1433.44 354.06 618.32 769.13 1774.93 585.96 2010.26 599.73 1979.74 800.50 1748.29 933.22 1951.01 946.73
00001707 00000137 1432.59 356.94 619.03 768.51 1772.09 589.00 2007.05 599.40 1976.49 805.61 1747.46 937.25 1949.72 947.98
00001708 DELETE   1435.07 355.07 614.98 771.27 1770.79 592.77 2007.98 601.04 1975.49 807.91 1745.97 938.76 1952.61 948.29
00001709 00000139 1433.82 369.94 614.84 760.37 1769.05 596.15 2004.51 600.68 1972.80 814.87 1746.83 941.04 1952.70 947.05
00001710 00000140 1433.91 363.48 614.99 770.61 1768.41 601.07 2003.63 605.16 1975.69 817.49 1743.80 944.53 1952.14 951.19
00001711 DELETE   1436.49 376.71 612.68 758.91 1769.43 606.28 2002.64 610.99 1976.96 821.58 1742.64 944.84 1952.83 951.94
00001712 00000142 1437.01 382.30 614.89 755.62 1769.48 612.56 2005.57 613.54 1979.06 827.89 1741.27 948.89 1956.12 953.69
00001713 00000143 1435.85 377.30 618.18 764.21 1770.19 616.66 2006.87 616.94 1980.21 830.80 1740.64 951.23 1958.44 955.68
00001714 00000144 1437.06 378.59 616.30 766.72 1771.29 621.07 2005.75 618.81 1981.63 835.81 1739.44 953.54 1957.96 956.62
00001715 00000145 1435.98 385.40 616.57 765.06 1769.26 624.35 2003.71 623.16 1979.78 838.35 1738.04 955.92 1959.78 959.57
00001716 00000146 1434.65 389.25 617.95 767.50 1770.52 624.35 2002.69 622.04 1979.80 839.91 1738.71 959.76 1956.49 962.56
00001717 00000147 1434.62 400.31 613.08 762.63 1767.50 627.77 1997.95 627.11 1976.44 844.07 1736.57 961.46 1954.75 965.19
00001718 00000148 1430.24 410.01 619.11 757.18 1759.94 628.45 2000.21 635.96 1975.02 844.21 1730.79 962.81 1948.12 973.72
00001719 00000149 1432.88 418.59 616.72 748.21 1760.92 629.93 2000.30 643.15 1971.52 845.90 1730.98 963.52 1948.31 978.24
00001720 00000150 1433.64 420.14 611.73 742.69 1764.05 635.39 1995.41 637.94 1971.24 848.96 1731.64 961.71 1955.79 967.71
00001721 00000151 1432.75 418.56 610.66 738.02 1760.50 633.61 1992.48 637.58 1966.10 846.85 1730.66 962.04 1954.42 968.66
00001722 00000152 1427.03 422.71 617.74 739.21 1753.69 629.05 1994.45 647.01 1962.85 841.36 1724.24 957.64 1947.54 975.56
00001723 00000153 1426.24 417.70 615.55 745.31 1748.54 629.19 1990.54 642.31 1956.83 841.49 1722.75 957.64 1945.32 971.84
00001724 00000154 1423.39 420.24 613.47 744.41 1736.29 628.01 1983.19 635.07 1944.48 842.22 1716.26 957.81 1939.95 967.73
00001725 DELETE   1418.80 404.38 613.12 758.87 1725.50 625.72 1976.84 635.41 1932.26 841.13 1709.44 956.67 1933.96 967.67
00001726 00000156 1426.22 395.24 591.61 758.91 1723.00 634.69 1956.92 630.07 1919.43 839.96 1696.75 956.34 1915.18 957.16
00001727 00000157 1405.45 413.41 616.15 750.95 1698.91 632.36 1957.34 646.96 1902.75 839.03 1681.15 954.09 1914.82 969.32
00001728 00000158 1405.29 417.69 606.85 745.59 1687.53 637.18 1941.54 648.70 1889.31 834.90 1667.58 957.42 1893.31 968.98
00001729 DELETE   1400.60 397.77 602.25 768.63 1672.34 639.31 1932.11 650.43 1869.63 842.00 1651.02 959.80 1884.42 971.93
00001730 00000160 1395.25 404.73 597.31 760.00 1646.53 638.90 1918.71 653.09 1836.39 843.53 1633.74 961.24 1877.71 974.26
00001731 00000161 1382.80 403.17 607.43 762.81 1629.03 635.77 1908.81 654.68 1815.77 846.48 1617.18 959.72 1864.97 976.63
00001732 DELETE   1384.22 399.08 601.49 772.59 1619.33 648.30 1895.80 650.63 1806.15 858.56 1598.98 966.03 1864.08 971.45
