Video ID: 	sFYQ5hLdNdM
H: 	1080
W: 	1920
FPS: 	25.0

FRAME INDEX X0 Y0 W H [Landmarks (5 Points)]

00011907 00000000 809.40 143.37 442.47 672.49 882.52 411.75 1077.72 424.14 925.32 509.63 874.06 648.38 1008.77 661.49
00011908 DELETE   817.28 143.80 440.84 666.45 888.74 410.35 1082.29 423.64 931.14 510.26 878.33 647.06 1014.25 660.88
00011909 DELETE   823.90 149.98 441.34 662.77 894.83 411.73 1090.89 427.38 941.74 518.10 886.65 650.59 1024.92 666.32
00011910 00000003 826.81 151.09 442.43 662.32 898.93 413.89 1096.99 429.37 948.31 519.84 892.91 653.14 1032.68 668.42
00011911 00000004 832.02 155.28 442.52 655.78 901.82 415.06 1099.06 431.10 950.88 521.67 896.25 655.25 1034.37 670.90
00011912 00000005 835.39 157.86 444.51 654.39 906.96 413.67 1105.66 432.59 957.86 525.59 900.25 655.03 1040.56 672.94
00011913 00000006 840.07 168.57 445.95 652.03 918.38 421.69 1119.39 445.18 966.67 532.48 905.44 657.83 1052.91 678.89
00011914 00000007 842.55 169.99 447.64 656.77 922.23 424.34 1123.51 447.66 969.65 533.84 909.57 662.86 1055.60 683.78
00011915 00000008 851.62 167.23 444.25 663.27 929.86 419.44 1126.24 442.74 979.63 532.96 919.41 662.73 1052.38 684.46
00011916 00000009 855.50 173.23 454.13 670.40 942.90 432.90 1141.75 458.05 987.79 536.65 930.43 671.31 1064.46 693.79
00011917 00000010 865.90 175.98 444.73 686.38 948.61 430.32 1146.97 455.85 997.29 551.41 935.20 682.54 1070.41 706.99
00011918 00000011 875.08 182.69 446.58 688.05 957.63 433.66 1157.55 463.04 1002.51 560.44 939.74 686.23 1079.81 713.39
00011919 00000012 882.18 190.53 443.28 677.72 963.49 440.51 1162.17 475.40 1005.33 561.11 940.41 686.06 1085.46 718.06
00011920 00000013 886.67 190.47 442.37 670.95 966.50 442.81 1165.95 477.78 1006.92 562.80 943.21 685.82 1092.25 717.70
00011921 00000014 889.75 192.40 445.21 670.74 969.96 445.45 1169.59 481.10 1008.80 568.54 946.48 691.48 1094.41 723.96
00011922 00000015 892.97 196.06 446.79 669.98 973.72 451.16 1171.23 485.80 1013.79 573.58 951.12 697.47 1093.08 729.07
00011923 00000016 893.42 197.89 447.27 667.95 975.13 454.88 1172.90 490.85 1017.45 580.23 953.09 699.56 1094.68 732.18
00011924 00000017 894.88 200.88 446.00 668.86 975.81 460.96 1173.44 497.86 1019.39 590.60 955.21 705.36 1095.34 738.75
00011925 00000018 895.56 208.96 448.55 668.94 969.95 469.46 1169.98 507.23 1012.19 606.18 952.69 717.81 1094.60 751.64
00011926 00000019 896.93 221.84 446.79 660.75 966.01 479.28 1165.05 516.40 1006.98 617.95 950.97 729.20 1087.79 762.19
00011927 00000020 896.97 227.12 446.98 661.57 964.91 483.58 1161.58 520.56 1002.39 623.05 951.55 733.97 1087.03 766.73
00011928 00000021 895.99 227.66 448.50 662.19 964.74 484.30 1160.09 519.57 1001.00 620.89 951.74 733.52 1085.20 764.92
00011929 00000022 898.66 223.84 446.60 669.21 964.07 483.71 1160.29 515.85 1000.87 618.37 952.59 736.56 1086.46 765.54
00011930 00000023 901.64 223.24 445.48 670.03 964.74 483.76 1161.49 514.38 1003.66 618.21 955.53 736.89 1089.26 764.73
00011931 00000024 903.09 222.85 446.30 670.60 965.50 485.53 1162.80 514.73 1005.35 620.57 958.26 738.21 1094.37 764.79
00011932 00000025 904.10 224.57 445.88 667.06 968.00 487.40 1164.17 517.08 1009.88 623.95 962.38 735.76 1102.11 762.53
00011933 00000026 905.21 227.60 445.03 667.19 968.81 490.87 1166.17 518.44 1012.81 627.98 966.45 738.88 1107.47 763.84
00011934 00000027 906.73 227.57 444.95 671.99 969.76 491.05 1167.88 517.45 1013.51 628.75 968.46 741.20 1110.59 765.21
00011935 00000028 908.12 227.36 445.39 673.13 969.92 490.06 1169.57 516.50 1013.10 627.06 968.50 740.52 1113.26 764.52
00011936 00000029 909.65 226.76 444.00 672.69 970.45 490.38 1170.37 517.47 1013.40 627.24 967.61 739.78 1112.19 764.48
00011937 00000030 909.19 229.40 445.31 670.01 971.90 491.12 1173.18 519.61 1015.60 628.10 967.63 740.48 1114.24 766.16
00011938 00000031 908.89 229.60 443.66 668.47 971.91 490.77 1172.47 520.81 1015.37 629.18 966.46 739.43 1113.28 766.42
00011939 00000032 905.72 229.24 444.69 668.88 969.80 488.52 1169.27 520.91 1010.79 630.60 962.77 738.72 1109.70 767.53
00011940 00000033 900.80 228.05 444.81 665.56 965.68 487.25 1161.34 521.06 1002.94 630.28 959.26 736.67 1101.20 766.49
00011941 00000034 891.41 229.49 449.02 659.54 956.06 490.34 1151.25 525.22 990.92 630.77 948.57 734.20 1090.65 764.82
00011942 00000035 884.06 222.25 446.22 673.29 941.36 497.37 1134.91 528.63 974.50 631.04 934.26 741.37 1071.99 769.55
00011943 00000036 870.98 224.72 449.94 675.13 928.50 504.42 1121.61 533.61 959.89 633.63 925.14 750.21 1059.25 776.27
00011944 00000037 860.44 232.11 449.24 671.66 917.21 506.54 1110.98 534.03 948.18 639.54 918.45 755.52 1049.98 779.43
00011945 00000038 854.21 227.31 445.13 668.95 908.34 502.46 1099.75 525.96 933.46 636.09 913.47 752.01 1045.17 772.06
00011946 00000039 852.04 213.71 438.01 678.22 892.34 489.10 1074.41 515.57 918.34 632.34 898.50 743.72 1019.49 767.64
00011947 00000040 846.35 214.16 442.72 675.50 887.85 486.47 1069.64 510.41 912.92 626.46 892.45 742.26 1012.05 764.46
00011948 00000041 844.91 211.69 441.35 678.84 885.59 489.35 1067.75 513.18 911.80 633.37 891.53 745.64 1013.26 767.77
00011949 00000042 842.05 219.51 442.78 682.39 883.94 497.17 1069.84 522.00 911.59 643.68 893.53 757.31 1015.70 780.25
00011950 00000043 838.91 234.99 444.76 671.22 883.44 505.80 1067.79 532.36 909.14 652.32 893.68 762.25 1015.60 786.10
00011951 00000044 836.25 236.48 442.64 681.42 882.75 510.41 1066.45 536.59 906.52 652.95 891.08 764.51 1014.89 787.99
00011952 00000045 832.99 231.71 443.65 690.48 879.95 510.31 1063.75 534.58 903.80 650.90 888.10 765.29 1013.10 787.29
00011953 00000046 834.77 228.46 442.83 695.05 880.18 508.63 1064.35 530.43 902.93 648.91 890.38 764.27 1018.42 784.30
00011954 00000047 834.94 228.47 443.58 696.76 881.27 508.40 1065.74 529.84 904.17 648.88 891.01 764.65 1019.63 784.45
00011955 00000048 834.17 232.19 446.06 690.61 881.05 508.89 1066.68 532.46 904.20 649.75 889.05 764.04 1018.65 785.52
00011956 00000049 835.13 227.55 443.51 693.41 882.63 506.51 1067.49 532.61 905.16 648.22 888.53 761.41 1017.88 785.03
00011957 00000050 838.77 222.85 442.44 692.19 884.08 500.64 1069.64 525.68 906.78 642.57 889.84 759.28 1018.25 782.20
00011958 00000051 841.00 216.71 446.15 696.33 887.16 496.48 1073.22 520.94 911.67 638.60 893.43 756.31 1020.63 778.89
00011959 00000052 842.86 215.84 445.75 691.75 888.38 493.88 1074.62 518.22 914.07 636.33 894.48 751.54 1023.30 773.93
00011960 00000053 843.84 215.13 445.64 693.30 889.84 492.79 1076.33 518.17 915.38 637.20 896.05 751.25 1025.27 774.49
00011961 00000054 843.59 218.02 444.50 695.85 890.96 494.72 1077.17 523.67 915.82 641.26 896.01 753.85 1024.12 780.05
00011962 00000055 848.16 228.45 442.27 694.62 896.21 503.04 1082.82 530.80 923.57 642.94 897.39 755.10 1033.89 780.82
00011963 00000056 846.61 231.33 440.95 699.41 896.12 507.71 1082.35 536.57 921.63 646.31 894.27 761.24 1031.50 787.98
00011964 00000057 845.69 233.13 442.91 700.02 896.26 508.76 1083.06 538.96 919.97 646.58 893.15 762.26 1030.56 789.97
00011965 00000058 847.96 232.70 443.03 698.99 897.56 506.58 1084.21 536.31 920.85 644.20 894.62 760.10 1032.10 787.48
00011966 00000059 849.09 229.69 442.96 698.82 899.59 504.29 1086.22 533.37 924.38 641.27 896.15 756.05 1034.05 783.04
00011967 00000060 850.56 229.27 441.79 692.48 900.54 505.43 1088.56 534.59 927.91 642.03 898.28 755.11 1035.62 782.00
00011968 00000061 849.90 233.83 442.66 686.68 901.04 507.54 1089.80 536.09 929.55 643.77 899.91 755.03 1038.98 781.23
00011969 00000062 850.24 231.77 442.47 686.83 900.69 506.76 1089.20 535.58 929.36 643.21 899.63 753.82 1038.66 780.21
00011970 00000063 851.29 227.91 439.92 687.40 901.19 500.83 1090.09 529.97 929.78 637.23 898.20 750.72 1035.07 777.66
00011971 00000064 849.99 221.27 440.17 694.36 900.41 493.19 1090.94 518.92 929.26 629.24 897.17 748.62 1033.90 773.03
00011972 00000065 845.97 214.66 444.52 704.32 898.23 487.36 1085.99 512.29 921.93 619.00 895.99 749.31 1023.76 772.41
00011973 00000066 849.36 209.08 448.54 709.16 906.47 482.38 1095.72 505.21 933.97 608.96 900.23 743.58 1027.43 766.53
00011974 00000067 849.87 203.26 443.63 710.19 909.46 475.12 1095.50 496.14 936.34 600.59 903.02 739.02 1025.71 759.28
00011975 00000068 851.47 202.30 440.93 704.37 911.03 473.56 1099.71 492.14 945.36 595.79 904.84 736.56 1027.09 754.91
00011976 00000069 853.56 199.49 438.23 701.26 914.00 470.62 1103.05 488.99 950.66 592.57 908.64 733.56 1029.85 751.64
00011977 00000070 857.73 195.90 436.04 694.05 916.88 467.33 1105.51 487.00 952.72 591.42 911.18 726.56 1034.64 745.47
00011978 00000071 859.38 192.00 434.43 687.75 916.66 464.82 1106.79 485.40 952.45 588.69 910.30 721.10 1036.98 740.48
00011979 00000072 860.20 190.27 439.08 685.26 916.89 463.51 1108.64 482.48 952.78 586.77 913.18 717.47 1043.28 735.33
00011980 00000073 862.59 191.02 438.16 682.35 917.91 463.39 1110.56 481.45 953.18 586.56 915.47 716.46 1047.68 733.36
00011981 00000074 855.39 197.04 451.96 672.34 920.32 463.53 1117.25 484.94 951.05 584.84 919.81 717.50 1054.37 736.19
00011982 00000075 856.53 197.51 453.91 673.77 921.25 462.22 1117.90 485.00 951.03 585.20 920.14 716.75 1055.26 736.67
00011983 00000076 859.00 197.74 451.73 669.52 923.12 459.73 1119.66 484.28 952.18 581.78 920.49 712.40 1055.81 733.73
00011984 00000077 862.14 186.17 443.28 679.96 918.80 458.88 1116.84 483.31 946.70 585.65 911.18 709.93 1064.83 729.50
00011985 00000078 860.67 194.70 447.99 669.64 923.68 457.92 1119.29 483.04 952.02 579.01 920.72 708.49 1055.69 730.27
00011986 00000079 859.12 193.65 446.63 671.77 922.33 459.97 1117.37 483.05 950.56 579.49 920.13 711.36 1054.24 731.53
00011987 00000080 856.70 190.26 446.54 674.89 918.62 459.79 1111.42 480.95 945.40 578.06 917.62 711.30 1048.68 729.88
00011988 00000081 860.94 184.04 431.52 683.52 912.22 458.88 1096.61 475.16 943.01 575.51 909.50 707.00 1038.40 722.81
00011989 00000082 856.27 184.79 433.64 683.49 906.97 456.96 1090.08 471.31 934.82 572.51 904.43 705.75 1031.39 720.29
00011990 00000083 854.65 183.36 433.57 686.94 906.00 456.81 1088.26 468.83 933.93 571.35 904.60 706.30 1030.19 719.07
00011991 00000084 855.08 185.19 431.25 684.52 907.60 457.45 1090.71 469.16 939.07 573.46 907.94 707.92 1033.40 720.38
00011992 00000085 857.71 191.32 431.27 680.42 911.92 456.52 1103.95 474.04 949.51 584.27 912.41 707.10 1049.42 724.02
00011993 00000086 848.94 191.77 447.75 682.10 913.99 463.47 1111.67 480.31 953.80 589.23 916.22 714.14 1068.06 727.74
00011994 00000087 851.51 197.29 442.71 672.33 916.30 464.20 1114.00 482.27 957.77 592.95 918.67 712.88 1072.54 727.27
00011995 00000088 847.52 197.01 443.27 668.03 913.97 463.47 1111.94 482.29 956.16 591.90 914.19 709.70 1067.73 724.59
00011996 00000089 844.83 197.57 440.26 664.20 910.17 464.01 1105.15 481.87 952.61 589.02 910.65 707.58 1059.58 721.60
00011997 00000090 839.15 196.78 438.50 659.21 906.47 463.39 1101.11 480.13 953.16 585.86 907.10 704.18 1051.34 717.43
00011998 00000091 844.19 189.66 423.84 663.66 904.10 457.63 1093.68 474.60 950.74 581.08 906.26 699.86 1042.34 716.21
00011999 00000092 844.08 189.22 422.52 668.86 902.67 455.09 1090.29 472.08 946.08 578.11 904.11 700.27 1035.89 717.02
00012000 00000093 841.78 188.01 420.08 668.47 898.55 454.69 1084.64 471.87 941.31 580.39 901.97 700.60 1031.99 717.38
00012001 00000094 836.92 188.07 422.08 669.23 895.36 454.38 1082.53 474.01 936.14 580.77 895.96 697.64 1030.76 716.16
00012002 00000095 833.91 190.29 422.05 670.12 893.53 455.93 1081.29 477.25 933.38 582.12 891.75 697.82 1028.39 717.64
00012003 00000096 831.00 190.12 424.76 675.60 892.37 455.75 1079.78 476.18 930.92 582.14 890.77 699.20 1027.59 718.30
00012004 00000097 828.53 188.62 426.67 680.43 891.53 453.61 1078.38 473.93 926.48 580.94 889.43 697.99 1027.66 716.91
00012005 00000098 827.24 186.39 425.20 678.84 887.30 453.63 1074.33 472.41 921.79 580.02 886.24 697.88 1025.07 715.50
00012006 00000099 824.61 186.39 425.24 671.19 882.93 452.86 1068.33 471.85 914.45 575.96 880.70 694.64 1015.11 712.55
00012007 00000100 816.46 179.37 429.77 679.66 877.37 444.38 1067.37 464.67 910.39 577.25 876.77 689.82 1014.41 707.91
00012008 00000101 816.89 183.73 427.95 667.88 876.44 452.09 1063.71 470.66 908.26 575.03 875.08 693.46 1009.87 710.61
00012009 00000102 811.60 173.55 431.21 680.25 871.59 443.35 1061.85 464.60 904.12 575.07 869.79 688.32 1008.41 707.51
00012010 00000103 809.57 172.22 431.36 680.57 869.50 438.59 1059.55 462.84 898.76 569.33 863.48 683.53 1001.58 705.78
00012011 00000104 801.70 171.84 440.00 669.88 860.19 440.27 1049.72 465.21 887.52 554.54 856.37 679.81 985.74 702.27
00012012 DELETE   795.25 161.57 433.24 671.17 850.37 430.85 1033.69 453.02 870.84 546.93 847.56 672.69 973.42 692.11
00012013 00000106 786.86 159.17 433.29 661.60 841.79 424.66 1017.19 440.47 852.64 534.56 840.18 666.45 958.88 680.19
00012014 00000107 784.07 151.17 427.45 660.85 824.27 414.76 985.31 434.38 831.90 535.74 825.13 655.15 938.60 673.35
00012015 00000108 775.16 158.92 436.39 648.71 827.52 421.08 995.21 434.12 832.39 532.82 822.79 656.31 947.90 666.17
00012016 00000109 777.02 159.94 436.54 650.57 828.30 423.67 996.43 434.74 834.69 535.04 826.24 660.04 952.16 668.20
00012017 00000110 780.36 156.00 435.81 658.65 833.36 422.39 1005.58 436.54 837.54 535.74 834.06 663.16 953.69 675.39
00012018 00000111 784.54 157.94 432.83 656.41 836.48 423.54 1008.52 434.95 842.63 533.00 839.78 663.03 960.22 672.92
00012019 00000112 786.11 156.31 429.19 658.18 836.70 422.41 1009.47 432.82 844.30 532.13 841.09 664.14 960.14 673.26
00012020 00000113 793.59 149.70 426.28 671.22 832.02 415.12 994.70 427.27 844.04 532.58 839.22 660.81 950.81 672.86
00012021 00000114 794.45 150.35 425.77 683.15 835.86 414.19 999.08 424.24 846.06 529.71 841.37 663.73 953.25 674.39
00012022 00000115 796.37 153.78 424.53 686.95 840.95 413.33 1006.67 425.01 852.67 529.99 846.30 665.27 960.56 677.12
00012023 00000116 791.82 162.27 430.44 671.30 849.26 423.47 1025.09 431.47 859.22 534.64 850.93 669.73 982.47 677.45
00012024 00000117 795.10 153.84 433.87 673.94 848.06 421.77 1022.90 428.69 860.64 527.11 856.10 663.84 985.17 670.01
00012025 00000118 792.98 153.92 431.74 664.13 846.76 417.92 1021.50 427.73 860.50 526.62 852.94 658.47 981.26 666.76
00012026 00000119 792.82 149.80 433.19 663.40 846.59 412.75 1021.00 425.81 859.39 524.03 850.43 651.25 981.48 662.19
00012027 00000120 794.00 147.61 432.87 661.73 847.41 410.05 1021.50 424.87 860.20 522.94 849.18 647.28 979.09 659.83
00012028 00000121 797.97 146.43 430.47 658.98 850.96 408.99 1022.88 425.53 863.16 522.66 851.66 644.11 979.19 658.10
00012029 00000122 800.27 143.19 429.50 658.00 851.80 407.67 1023.22 423.46 864.64 521.17 852.24 641.66 980.31 655.19
00012030 00000123 802.24 141.09 428.07 658.46 852.84 406.16 1024.07 422.69 865.22 519.44 852.68 639.57 980.42 653.74
00012031 00000124 804.04 141.23 428.50 658.11 853.47 405.39 1024.14 421.88 866.44 519.58 853.59 639.81 980.86 654.10
00012032 00000125 807.62 138.62 425.92 662.62 855.05 406.54 1024.38 422.47 866.56 520.51 855.27 641.61 982.79 655.53
00012033 00000126 811.19 137.31 425.32 666.47 857.04 405.38 1025.80 420.49 866.79 518.99 857.67 643.15 984.33 656.50
00012034 00000127 812.47 137.19 424.59 668.09 858.72 405.45 1028.18 419.91 868.13 517.48 859.02 643.83 985.48 656.88
00012035 00000128 814.75 135.24 423.00 669.12 860.40 404.01 1029.03 417.41 871.18 514.73 860.34 643.74 982.00 656.21
00012036 00000129 816.24 132.71 425.02 669.69 859.73 404.74 1029.94 414.95 872.52 512.21 859.92 647.48 978.58 657.57
00012037 00000130 819.18 131.85 424.66 668.07 861.85 404.76 1032.51 413.98 874.98 511.28 862.52 646.31 980.02 655.85
00012038 00000131 825.36 130.51 424.69 670.95 866.24 404.60 1036.28 413.72 878.12 509.82 865.50 645.84 982.15 655.83
00012039 00000132 829.30 132.32 424.71 669.75 870.57 404.86 1038.68 412.11 881.58 511.32 871.68 646.82 987.01 655.15
00012040 00000133 828.17 133.68 428.82 664.37 876.27 401.74 1050.06 408.51 894.59 509.96 876.48 643.11 998.08 649.35
00012041 00000134 829.77 134.76 428.83 664.84 881.33 401.38 1054.81 408.31 899.44 510.33 881.22 641.55 1002.95 648.16
00012042 00000135 832.30 136.26 429.30 666.97 885.66 400.76 1056.75 407.84 900.07 511.65 884.90 641.72 1007.95 648.35
00012043 00000136 837.90 137.45 426.89 661.35 890.42 401.11 1060.74 409.29 905.26 513.40 888.89 639.91 1013.48 647.11
00012044 00000137 842.41 138.15 428.11 658.48 893.38 401.48 1065.92 410.43 908.70 514.12 890.82 639.33 1017.64 647.05
00012045 00000138 853.53 133.53 415.73 664.68 893.03 402.13 1059.52 412.13 908.99 514.43 894.37 642.60 1010.33 653.68
00012046 00000139 860.91 131.35 419.11 664.75 899.28 402.79 1067.95 412.60 918.51 514.11 900.21 641.02 1017.55 651.76
00012047 00000140 866.61 131.22 420.65 662.74 905.96 404.31 1074.68 413.66 927.23 513.68 906.38 639.87 1023.06 649.93
00012048 00000141 863.12 137.43 426.50 659.36 917.12 407.75 1091.64 416.69 929.82 509.37 913.89 642.33 1037.62 650.54
00012049 00000142 869.97 137.70 423.86 659.78 923.11 407.19 1095.24 418.04 935.23 510.79 918.88 641.05 1043.02 650.86
00012050 00000143 878.18 135.59 419.28 663.02 928.49 405.61 1098.09 418.40 941.65 510.79 924.93 640.28 1045.12 651.86
00012051 00000144 882.23 136.59 419.31 663.22 932.01 406.46 1102.23 419.03 946.15 509.97 928.64 641.14 1048.29 652.75
00012052 00000145 883.20 136.05 423.20 664.83 932.54 408.32 1104.96 418.77 949.66 511.33 930.88 643.58 1052.22 653.60
00012053 00000146 886.35 134.39 423.79 667.71 935.00 407.22 1108.24 418.85 951.77 511.07 932.93 643.73 1053.72 654.96
00012054 00000147 888.55 135.48 423.94 671.48 937.01 406.54 1111.45 417.58 952.58 508.57 934.22 644.60 1055.86 655.60
00012055 00000148 890.95 135.98 425.30 669.89 944.05 405.35 1119.77 414.83 965.13 508.49 940.71 643.27 1064.18 652.13
00012056 00000149 895.29 142.51 420.66 665.40 949.83 416.88 1117.79 424.12 968.03 507.85 946.72 644.15 1067.64 650.81
00012057 00000150 895.40 145.26 423.98 662.61 952.07 419.68 1120.61 425.90 971.79 509.31 948.77 645.53 1069.63 651.37
00012058 00000151 896.59 148.06 428.12 660.63 953.33 414.90 1125.75 423.44 972.93 512.69 950.00 647.10 1072.10 655.18
00012059 00000152 900.59 150.49 427.67 659.40 955.56 412.02 1128.81 421.48 973.92 517.57 952.69 649.50 1076.81 658.34
00012060 00000153 901.31 154.76 431.80 654.74 959.92 412.70 1134.58 423.71 978.89 521.71 956.10 650.77 1079.45 660.74
00012061 00000154 905.05 158.03 430.55 654.18 963.97 417.17 1137.01 426.55 981.79 524.38 961.53 655.63 1083.32 664.15
00012062 00000155 906.91 161.77 431.34 653.04 966.48 421.15 1139.85 429.96 984.16 524.54 963.99 659.55 1087.01 667.54
00012063 00000156 909.00 167.06 429.94 646.23 968.85 423.37 1142.94 433.71 986.83 527.36 964.52 659.79 1089.57 668.87
00012064 00000157 912.90 173.11 428.90 640.55 970.89 426.18 1145.17 436.95 987.67 529.47 966.56 662.74 1092.05 671.95
00012065 00000158 914.56 176.64 430.12 636.27 975.96 433.16 1150.90 448.10 991.07 533.80 966.34 662.10 1093.91 674.35
00012066 00000159 917.65 178.31 431.41 634.75 978.68 444.05 1155.82 456.08 996.77 536.34 968.66 667.85 1096.59 677.83
00012067 00000160 920.64 186.86 429.41 631.40 979.43 443.10 1160.51 457.07 998.79 542.92 969.56 672.66 1099.29 684.80
00012068 00000161 925.04 186.06 426.52 636.01 980.95 444.46 1162.50 459.07 998.92 546.75 972.30 677.35 1101.04 690.19
00012069 00000162 927.91 190.96 425.61 631.71 981.26 442.01 1165.37 458.10 999.24 550.09 973.44 678.33 1105.09 692.39
00012070 00000163 930.46 190.20 427.88 631.23 989.65 443.83 1172.84 464.43 1008.17 549.00 981.35 673.77 1109.83 691.44
00012071 00000164 933.08 190.98 427.52 630.65 992.54 444.98 1175.13 466.22 1011.82 549.39 983.91 673.88 1112.47 692.08
00012072 00000165 934.87 192.21 423.08 633.72 990.06 444.61 1174.57 463.57 1009.59 556.61 981.41 679.16 1115.54 695.39
00012073 00000166 937.65 187.54 425.41 641.55 991.07 445.16 1173.74 465.25 1010.54 561.73 981.53 678.00 1123.20 694.06
00012074 00000167 936.74 193.13 428.75 635.22 996.77 447.26 1180.34 469.06 1015.67 552.53 986.42 679.46 1114.24 698.31
