Video ID: 	NUmLVLt2Vrg
H: 	1080
W: 	1920
FPS: 	25.0

FRAME INDEX X0 Y0 W H [Landmarks (5 Points)]

00019106 00000000 842.46 153.76 337.98 529.65 1013.21 361.81 1145.28 363.86 1120.48 459.22 1019.66 537.93 1135.48 542.60
00019107 00000001 839.57 156.88 339.35 525.14 1014.08 359.80 1144.95 362.49 1122.04 459.84 1019.44 538.61 1132.58 544.02
00019108 00000002 841.81 157.49 337.32 523.22 1017.67 361.64 1147.17 359.33 1129.37 461.19 1023.80 542.09 1136.49 543.57
00019109 00000003 841.93 159.17 336.25 523.60 1020.83 362.87 1147.18 359.94 1132.60 463.76 1027.30 546.58 1135.82 547.86
00019110 DELETE   839.07 162.53 337.74 521.49 1017.49 364.51 1143.49 362.51 1126.72 464.95 1030.81 550.60 1132.99 552.39
00019111 00000005 833.28 168.77 341.75 518.08 1012.00 367.64 1133.17 365.51 1119.02 464.80 1033.25 554.38 1125.47 556.01
00019112 00000006 829.85 168.66 340.78 519.37 1008.00 367.73 1127.79 367.71 1113.39 468.29 1031.43 555.59 1121.09 559.01
00019113 00000007 828.62 169.19 341.44 516.12 1004.65 367.84 1126.23 369.26 1109.21 468.63 1027.70 554.55 1117.23 559.25
00019114 00000008 829.02 166.17 340.76 520.60 1006.22 367.10 1127.13 368.96 1111.12 467.94 1028.16 555.07 1117.62 560.14
00019115 00000009 829.51 165.34 339.82 521.24 1010.23 366.14 1127.70 368.01 1114.85 467.03 1029.14 552.98 1117.86 558.06
00019116 00000010 831.71 164.46 339.83 521.87 1015.32 367.26 1131.22 366.82 1119.96 465.01 1035.18 553.91 1121.43 557.10
00019117 00000011 834.58 158.58 331.82 526.28 1024.02 373.71 1136.27 372.14 1136.88 469.83 1039.17 549.64 1130.47 552.97
00019118 00000012 831.92 160.34 332.08 526.36 1023.32 374.01 1134.57 373.49 1137.02 471.74 1039.08 552.11 1128.64 556.51
00019119 00000013 830.79 166.75 335.33 532.41 1014.67 379.92 1139.54 379.80 1130.54 468.30 1018.61 560.52 1127.20 563.24
00019120 00000014 822.56 164.41 336.76 534.98 997.82 385.51 1128.01 387.33 1115.20 470.44 1005.38 561.03 1116.50 564.97
00019121 DELETE   811.93 162.63 340.92 533.07 983.33 378.00 1116.96 379.18 1096.42 472.07 995.48 562.11 1100.09 564.68
00019122 00000016 804.12 159.20 343.88 537.40 974.36 378.37 1100.48 377.69 1081.49 469.76 988.74 561.19 1086.57 561.77
00019123 00000017 795.13 157.58 346.03 537.99 966.02 373.53 1092.01 371.66 1071.95 467.14 983.74 558.99 1079.51 558.05
00019124 00000018 791.45 158.89 344.76 531.48 961.98 368.68 1088.35 367.17 1066.76 467.07 982.12 558.57 1073.27 557.99
00019125 00000019 791.50 155.14 341.83 531.68 962.67 363.00 1088.68 360.21 1069.67 461.58 988.08 558.69 1075.11 556.69
00019126 00000020 793.92 151.39 338.84 532.91 965.23 358.36 1090.37 356.33 1075.15 456.44 996.71 558.19 1080.63 556.67
00019127 00000021 798.73 144.01 335.54 535.35 972.16 357.09 1093.15 355.94 1086.73 449.26 1007.60 553.93 1090.33 553.52
00019128 00000022 804.90 142.00 339.71 534.16 977.06 355.78 1105.17 355.72 1096.53 447.91 1008.98 552.48 1100.28 552.88
00019129 00000023 806.35 142.57 338.08 531.86 982.54 363.13 1106.33 357.53 1098.17 449.91 1012.05 550.95 1106.03 545.67
00019130 00000024 807.59 142.28 338.35 536.92 978.40 353.69 1106.34 356.81 1096.91 446.76 1007.73 550.87 1100.15 553.94
00019131 00000025 804.41 146.52 341.04 538.35 972.39 355.59 1101.81 359.43 1088.77 450.09 1000.77 553.48 1092.86 556.84
00019132 00000026 801.67 152.97 345.83 535.41 967.05 358.27 1101.47 362.29 1079.04 456.89 986.58 553.96 1085.39 557.57
00019133 00000027 804.81 155.73 347.37 532.36 969.75 361.07 1107.95 365.29 1085.95 455.98 983.90 550.02 1092.51 554.02
00019134 00000028 814.36 153.51 342.40 534.86 981.11 364.09 1120.04 365.10 1103.11 455.92 994.61 549.95 1107.84 552.15
00019135 00000029 823.53 156.51 337.44 531.51 996.87 368.06 1127.32 367.63 1118.59 456.28 1006.46 548.73 1119.63 550.98
00019136 00000030 829.12 155.79 338.03 534.06 1008.15 366.39 1135.08 368.83 1130.20 452.54 1016.96 549.49 1126.86 553.98
00019137 00000031 831.16 154.51 337.02 541.29 1008.68 364.85 1135.05 367.71 1128.76 452.05 1016.28 551.47 1126.70 556.23
00019138 00000032 827.88 154.93 335.59 544.55 1003.91 369.16 1130.95 369.71 1123.92 456.17 1011.71 554.17 1123.66 557.35
00019139 00000033 825.40 151.86 334.28 548.19 995.86 373.99 1126.70 374.82 1115.40 457.65 1004.76 555.28 1119.22 558.52
00019140 00000034 822.38 155.23 337.83 545.26 989.83 373.22 1123.08 378.42 1107.38 459.61 997.98 555.20 1112.52 561.73
00019141 00000035 820.56 155.31 337.50 540.48 988.66 375.59 1119.08 379.79 1104.86 462.59 995.28 554.28 1106.81 560.24
00019142 00000036 821.04 151.70 338.29 534.75 988.00 373.90 1118.34 375.59 1104.68 463.53 996.99 552.85 1105.43 556.99
00019143 00000037 820.00 150.60 340.51 531.78 999.10 379.94 1120.28 378.85 1109.16 464.50 1001.04 548.37 1107.25 547.99
00019144 00000038 824.23 158.28 328.74 515.75 997.98 372.35 1115.77 371.70 1107.50 463.95 1015.26 540.63 1114.02 543.40
00019145 00000039 821.51 150.45 338.90 528.75 999.93 374.60 1121.64 373.63 1110.92 460.48 1004.30 545.06 1109.81 544.59
00019146 00000040 817.05 152.90 342.39 526.66 982.60 366.97 1118.91 366.74 1098.76 463.56 993.58 551.03 1101.75 553.02
00019147 00000041 808.66 155.60 349.39 533.43 970.04 363.89 1108.49 369.51 1080.46 462.21 978.19 549.04 1089.55 554.84
00019148 00000042 796.86 157.04 355.36 537.77 957.80 360.61 1096.68 368.92 1063.53 462.06 964.68 547.66 1078.38 555.17
00019149 00000043 785.60 155.45 357.35 532.46 943.81 364.87 1088.82 375.09 1048.09 466.24 948.00 541.09 1074.04 549.68
00019150 00000044 780.26 152.75 358.13 527.67 935.41 363.31 1080.27 371.70 1035.41 466.85 941.27 538.19 1064.93 545.43
00019151 00000045 775.96 150.27 358.23 527.07 933.46 361.17 1075.22 369.62 1031.78 464.78 938.54 537.34 1056.99 544.92
00019152 00000046 780.81 152.62 353.76 525.96 937.25 361.74 1080.22 367.72 1040.24 460.54 949.16 539.59 1067.97 544.99
00019153 00000047 789.58 151.95 349.91 524.09 946.65 362.63 1087.83 364.84 1053.31 457.75 965.72 542.49 1079.36 544.21
00019154 00000048 796.21 147.52 347.09 532.31 953.13 359.59 1091.72 363.12 1060.92 453.69 971.09 543.72 1083.26 546.50
00019155 00000049 795.31 151.29 354.00 534.46 949.03 350.86 1091.10 356.44 1054.95 449.31 968.55 546.23 1075.73 551.20
00019156 00000050 788.83 148.47 353.27 536.56 937.83 360.26 1079.38 368.68 1036.85 456.74 948.82 543.92 1066.10 551.39
00019157 DELETE   785.88 149.70 355.40 533.63 932.46 362.87 1077.49 373.95 1029.09 460.82 940.66 544.41 1058.54 554.25
00019158 DELETE   786.19 152.89 355.08 532.00 932.40 371.03 1076.93 381.29 1028.40 463.76 941.32 546.68 1060.96 555.41
00019159 00000053 795.72 154.20 357.47 540.37 945.12 359.57 1088.02 366.77 1043.29 458.55 955.78 551.75 1066.88 558.56
00019160 00000054 804.81 156.66 357.12 544.83 955.45 361.70 1095.20 374.86 1053.18 457.78 961.17 547.30 1079.88 558.91
00019161 00000055 809.04 156.68 354.20 548.33 960.27 359.52 1098.20 373.29 1059.20 458.86 963.65 548.87 1084.59 561.34
00019162 00000056 809.14 158.33 355.15 548.38 959.72 359.37 1098.28 373.20 1058.26 461.67 961.10 549.96 1083.06 562.60
00019163 00000057 809.09 157.16 356.41 547.12 957.49 360.75 1096.97 374.57 1056.31 462.72 959.55 548.40 1083.40 560.86
00019164 00000058 811.12 153.66 355.23 541.47 954.97 360.26 1098.82 371.94 1056.81 463.29 961.18 548.67 1084.35 559.28
00019165 00000059 813.17 149.24 355.16 535.79 953.55 361.35 1100.14 371.77 1057.19 463.91 965.71 549.14 1085.52 558.38
00019166 00000060 814.73 150.50 353.06 537.20 957.73 372.09 1103.16 377.01 1061.82 469.72 968.04 548.75 1095.47 552.87
00019167 00000061 816.93 151.45 353.48 536.84 960.26 374.17 1105.61 377.39 1064.60 471.05 970.72 549.81 1098.95 552.36
00019168 00000062 818.92 151.50 353.56 537.76 964.76 375.27 1108.66 377.70 1068.42 473.21 973.25 551.29 1099.99 553.20
00019169 00000063 820.79 152.79 353.34 533.83 967.87 375.52 1111.24 377.24 1070.82 472.39 975.83 550.42 1101.12 551.75
00019170 00000064 823.12 153.26 353.16 530.26 971.73 373.59 1111.90 376.08 1073.13 468.53 981.00 549.00 1101.57 550.97
00019171 00000065 825.91 153.93 353.74 532.84 975.80 371.40 1114.33 374.91 1076.44 467.76 985.44 552.00 1101.67 554.88
00019172 00000066 828.76 155.58 354.85 530.86 980.61 370.88 1120.99 376.90 1081.23 468.03 990.48 554.87 1104.24 559.73
00019173 DELETE   836.37 170.57 355.04 511.79 992.00 369.14 1136.19 377.44 1099.36 466.92 1001.86 556.12 1116.28 564.76
00019174 DELETE   848.47 162.88 351.83 524.31 1019.06 365.39 1152.31 362.32 1124.21 466.65 1037.67 554.89 1135.71 553.14
00019175 DELETE   865.14 154.96 345.21 526.47 1030.71 363.70 1164.38 362.08 1139.71 462.77 1052.53 553.77 1149.76 553.28
00019176 00000070 869.65 148.96 342.77 530.98 1035.10 371.97 1169.34 372.93 1141.91 471.16 1053.78 555.36 1157.85 555.38
00019177 00000071 867.43 149.85 342.78 529.14 1030.51 371.22 1164.52 373.68 1133.37 475.10 1051.34 559.44 1150.07 560.71
00019178 00000072 865.39 152.32 340.35 525.64 1027.22 367.50 1159.02 376.62 1124.94 474.70 1044.29 556.47 1139.57 563.42
00019179 00000073 865.31 151.68 343.11 532.11 1027.65 366.94 1159.01 378.35 1124.92 472.11 1040.28 553.47 1141.10 562.55
00019180 00000074 870.87 152.66 352.01 532.35 1030.71 359.31 1165.65 367.35 1129.26 463.87 1046.70 552.44 1144.80 559.57
00019181 00000075 876.49 148.49 351.65 533.25 1033.91 367.71 1175.39 374.36 1139.20 468.33 1044.17 547.34 1161.50 552.63
00019182 00000076 879.61 150.03 351.07 526.35 1036.45 361.23 1181.80 368.84 1143.57 464.35 1044.27 541.66 1164.38 548.00
00019183 00000077 879.06 150.21 351.03 524.96 1036.28 357.46 1179.33 366.07 1140.91 463.15 1043.66 541.32 1158.87 548.67
00019184 00000078 878.20 149.08 349.12 524.53 1035.00 352.91 1177.12 363.86 1139.27 458.74 1041.29 538.20 1154.41 547.62
00019185 DELETE   877.99 146.35 349.63 525.48 1039.15 357.10 1178.50 365.67 1142.90 458.15 1044.18 537.00 1157.17 544.34
00019186 00000080 878.39 145.22 351.68 523.12 1048.24 364.32 1184.34 371.58 1154.49 452.60 1050.52 535.57 1161.63 541.88
00019187 DELETE   885.80 145.73 345.09 517.45 1059.05 366.57 1194.90 368.57 1172.98 452.15 1064.21 536.65 1171.62 538.56
00019188 DELETE   894.54 142.22 339.91 523.76 1075.66 364.40 1206.63 364.90 1189.45 450.31 1075.75 534.83 1183.38 535.62
00019189 00000083 898.02 142.79 333.92 514.02 1084.66 365.97 1200.94 361.90 1190.41 450.68 1092.19 536.01 1184.95 534.08
00019190 DELETE   898.62 142.72 335.22 512.49 1088.23 360.01 1202.78 361.14 1193.88 449.30 1096.28 534.58 1187.02 535.91
00019191 DELETE   895.80 144.27 335.47 511.47 1083.10 357.55 1198.82 355.46 1191.23 448.56 1092.06 534.38 1184.30 533.62
00019192 00000086 895.41 144.37 335.29 509.89 1080.55 353.44 1195.20 350.64 1188.73 444.54 1091.88 532.25 1183.69 530.98
00019193 00000087 894.55 141.53 333.01 513.36 1079.24 350.01 1191.84 345.89 1187.87 441.01 1093.44 532.18 1180.80 529.90
00019194 00000088 895.96 138.48 331.55 517.11 1080.92 347.97 1191.56 344.50 1189.73 438.33 1096.27 531.41 1181.15 529.48
00019195 00000089 898.08 135.79 330.16 519.26 1084.53 345.91 1193.06 342.47 1193.14 435.27 1100.31 529.42 1183.52 527.54
00019196 00000090 899.11 135.04 329.66 520.32 1088.18 344.70 1195.29 341.96 1196.78 434.21 1102.52 527.97 1185.02 526.65
00019197 00000091 900.44 135.95 327.86 512.52 1090.50 344.83 1195.91 342.80 1199.05 433.61 1106.00 525.11 1187.20 524.44
00019198 00000092 901.14 136.50 328.41 509.93 1091.02 344.24 1197.75 341.88 1200.25 432.70 1106.02 522.36 1190.01 521.76
00019199 00000093 900.68 136.08 329.29 510.63 1091.48 343.22 1198.26 340.51 1201.55 432.63 1105.60 521.86 1189.88 521.17
00019200 00000094 899.83 138.17 330.17 509.22 1090.64 342.49 1197.71 340.94 1201.07 432.80 1104.32 521.86 1188.15 521.98
00019201 00000095 898.72 136.62 329.36 512.44 1090.74 342.53 1196.82 340.96 1202.14 433.42 1103.21 523.14 1185.12 523.28
00019202 00000096 899.27 132.03 325.32 520.24 1093.93 347.56 1195.72 345.98 1201.98 434.46 1101.71 525.30 1181.00 525.32
00019203 00000097 898.62 125.91 321.60 525.23 1093.20 356.39 1194.41 353.35 1201.97 433.40 1100.73 524.57 1180.11 524.18
00019204 00000098 902.12 125.32 319.39 527.40 1097.15 349.33 1196.01 348.18 1204.53 428.75 1102.86 520.82 1182.64 521.53
00019205 00000099 905.69 124.72 323.89 524.59 1099.61 345.67 1202.14 344.24 1205.26 426.03 1107.36 517.62 1190.87 517.71
00019206 DELETE   908.16 119.20 334.85 539.77 1105.64 338.44 1217.96 341.97 1217.72 426.86 1104.64 516.73 1200.81 520.82
00019207 DELETE   913.26 122.89 334.56 537.76 1112.34 334.58 1224.37 341.54 1223.46 425.34 1109.02 515.66 1202.74 522.65
00019208 DELETE   915.43 124.81 335.40 537.44 1118.68 334.19 1225.06 342.48 1228.46 425.53 1116.20 516.41 1204.52 524.34
00019209 00000103 918.14 124.94 334.29 539.72 1121.87 333.40 1225.66 341.82 1230.94 424.37 1118.65 515.36 1206.24 523.13
00019210 00000104 913.08 118.13 326.86 534.82 1120.81 341.02 1216.59 346.35 1228.09 426.05 1124.13 512.10 1203.44 516.94
00019211 00000105 913.88 116.35 326.91 537.69 1122.59 340.18 1215.32 346.10 1227.84 425.21 1125.78 511.87 1203.27 517.14
00019212 00000106 915.20 117.12 328.14 536.79 1125.22 341.25 1215.96 347.13 1229.52 426.11 1126.92 512.23 1203.14 517.57
00019213 00000107 916.25 117.93 326.44 536.30 1124.85 340.36 1215.67 345.49 1230.57 424.82 1128.07 512.37 1203.92 517.09
00019214 00000108 919.19 117.39 328.32 539.39 1126.36 338.17 1221.35 335.86 1239.05 423.49 1135.44 520.16 1211.22 520.19
00019215 00000109 918.85 117.67 328.14 538.34 1126.23 338.11 1220.46 335.90 1239.27 422.42 1135.74 519.38 1210.84 519.49
00019216 00000110 915.79 119.19 324.31 535.38 1125.02 337.79 1213.89 344.18 1231.88 423.19 1127.76 510.14 1203.63 515.86
00019217 00000111 915.07 119.89 324.00 533.77 1122.37 338.83 1214.62 345.06 1230.86 424.30 1125.63 511.65 1203.09 517.02
00019218 00000112 913.47 119.68 324.37 533.62 1120.23 339.21 1214.53 346.27 1229.20 424.41 1123.52 512.00 1201.63 517.92
00019219 00000113 913.45 123.77 328.23 533.60 1120.77 341.11 1215.67 339.05 1234.21 425.79 1128.73 521.28 1204.21 521.63
00019220 00000114 912.05 121.45 323.17 533.07 1114.32 337.61 1213.28 344.31 1225.78 424.62 1118.37 513.82 1198.61 519.54
00019221 00000115 909.43 132.17 328.48 527.07 1118.01 343.01 1217.19 339.24 1228.35 426.36 1128.29 532.15 1189.71 532.08
00019222 00000116 911.69 132.70 325.04 529.19 1117.20 343.01 1215.95 340.56 1226.55 429.07 1124.41 533.17 1187.97 534.23
00019223 00000117 912.29 137.49 323.93 528.46 1117.37 338.04 1216.52 341.72 1225.00 430.98 1116.11 531.09 1185.93 537.29
00019224 00000118 913.48 137.16 323.52 526.67 1123.60 342.22 1218.29 347.09 1228.27 434.37 1117.77 528.90 1186.05 536.60
00019225 00000119 921.26 139.53 320.46 522.55 1123.55 351.34 1217.17 357.61 1241.21 433.22 1123.69 523.48 1203.02 529.66
00019226 DELETE   941.61 144.46 323.56 515.58 1151.81 355.39 1234.64 359.90 1262.25 449.53 1145.60 539.30 1214.99 544.93
00019227 DELETE   952.44 141.34 323.31 530.27 1168.47 368.55 1243.12 367.50 1274.55 453.31 1165.89 540.31 1225.55 541.13
00019228 DELETE   961.77 133.29 321.00 536.81 1170.52 368.05 1247.62 366.62 1282.60 453.79 1172.19 542.09 1234.12 543.04
00019229 00000123 960.57 128.60 319.65 533.47 1169.25 363.82 1248.58 361.39 1279.07 446.25 1170.89 535.07 1233.59 535.38
00019230 DELETE   957.10 127.67 324.11 521.70 1159.96 352.19 1252.65 349.15 1274.49 432.07 1179.08 528.37 1249.69 527.56
00019231 DELETE   951.34 118.00 323.27 515.89 1155.75 339.12 1246.63 333.48 1269.75 419.62 1183.52 518.40 1252.19 515.60
CROP_BBOX: 578 0 1414 826
