Video ID: 	n0FsdGoPddA
H: 	1080
W: 	1920
FPS: 	25.0

FRAME INDEX X0 Y0 W H [Landmarks (5 Points)]

00007262 00000000 956.77 171.75 375.72 536.15 1019.31 387.56 1165.09 377.32 1070.63 485.01 1046.76 569.57 1173.19 561.73
00007263 00000001 957.65 171.58 378.31 537.75 1019.20 388.52 1168.13 377.07 1072.72 486.12 1050.25 571.09 1179.72 562.02
00007264 00000002 958.13 174.03 378.99 536.04 1019.14 389.94 1168.60 378.18 1072.99 489.10 1051.56 572.74 1182.57 563.26
00007265 00000003 955.62 175.28 380.85 536.06 1017.10 390.67 1166.50 378.68 1069.73 489.38 1048.07 573.93 1179.12 564.38
00007266 00000004 955.11 174.77 377.86 534.61 1015.60 390.10 1162.61 378.83 1066.99 490.13 1046.61 574.44 1173.79 565.66
00007267 00000005 955.30 176.74 378.28 536.23 1017.34 389.78 1162.18 377.98 1068.37 489.72 1049.53 575.81 1173.09 566.68
00007268 00000006 954.86 177.11 380.98 535.05 1018.11 393.20 1164.35 378.62 1072.03 490.60 1054.91 576.60 1181.18 564.54
00007269 00000007 953.25 177.79 380.14 537.32 1016.05 392.60 1158.62 377.86 1067.25 490.21 1050.46 577.00 1174.15 565.06
00007270 00000008 952.59 175.90 376.75 538.62 1011.11 390.21 1154.26 376.41 1060.53 490.90 1046.50 577.73 1169.70 566.77
00007271 00000009 951.74 180.10 375.07 532.71 1010.60 392.47 1154.85 379.32 1060.56 491.80 1045.52 577.47 1170.31 567.09
00007272 DELETE   946.67 188.80 379.22 521.26 1014.82 400.08 1159.52 390.16 1067.88 492.23 1046.54 574.42 1174.01 566.26
00007273 DELETE   944.95 187.85 381.42 529.32 1009.76 395.63 1154.99 385.58 1059.09 492.73 1040.71 578.51 1167.52 570.53
00007274 00000012 946.51 184.58 375.59 534.19 1007.63 396.31 1147.52 385.08 1052.83 493.67 1037.78 581.41 1161.01 572.54
00007275 00000013 946.94 182.27 378.03 533.50 1005.96 393.80 1150.30 379.49 1054.24 491.46 1038.30 578.06 1165.40 566.85
00007276 00000014 946.13 179.93 378.61 533.46 1004.88 391.05 1151.99 375.43 1056.78 488.75 1039.67 575.86 1166.80 563.62
00007277 00000015 945.17 178.37 383.18 541.90 1004.09 389.24 1146.46 375.35 1051.34 488.68 1039.85 577.95 1163.04 566.84
00007278 00000016 945.35 179.77 379.72 535.68 1002.44 389.53 1146.69 375.14 1051.18 490.08 1037.99 577.25 1162.14 565.89
00007279 00000017 944.23 178.98 379.74 531.47 1001.34 390.75 1151.28 374.87 1055.03 490.96 1037.31 576.41 1167.01 563.83
00007280 00000018 943.02 177.60 383.12 537.73 1000.91 390.79 1151.20 374.80 1054.02 491.06 1036.16 577.04 1169.35 564.02
00007281 00000019 941.49 176.31 385.07 545.31 1000.00 388.80 1146.59 375.48 1047.73 488.44 1033.07 577.70 1163.81 566.82
00007282 00000020 941.17 176.70 384.81 546.14 997.78 388.81 1144.83 373.26 1045.31 489.53 1034.17 581.16 1163.42 568.49
00007283 00000021 939.77 176.37 386.40 546.98 997.92 387.83 1144.28 371.74 1047.81 490.23 1039.34 585.78 1159.59 572.95
00007284 00000022 938.50 178.46 384.98 545.76 997.09 387.97 1141.72 375.56 1042.84 490.80 1035.95 585.67 1155.97 575.78
00007285 00000023 936.69 182.43 381.80 535.99 992.72 390.87 1137.71 378.87 1037.75 495.19 1029.95 585.78 1150.89 576.14
00007286 00000024 936.47 182.60 382.43 535.46 992.98 390.90 1137.85 377.78 1040.01 494.37 1033.04 584.79 1153.58 574.26
00007287 00000025 937.86 185.31 383.67 531.92 996.70 391.59 1139.40 377.02 1043.93 492.11 1036.56 581.79 1157.03 570.19
00007288 00000026 937.61 185.06 381.38 534.27 996.12 389.07 1138.50 377.64 1041.11 492.07 1034.60 582.32 1154.18 573.25
00007289 00000027 938.35 184.08 381.92 534.84 996.11 389.55 1138.77 377.82 1041.26 492.65 1034.24 582.78 1153.85 573.46
00007290 00000028 939.12 186.45 384.39 532.05 998.19 392.90 1141.35 379.36 1045.05 493.42 1036.91 583.10 1159.05 572.33
00007291 00000029 938.67 187.05 384.68 532.62 997.46 394.80 1140.72 381.73 1044.85 496.10 1037.02 584.70 1160.38 574.00
00007292 00000030 939.08 189.21 385.56 535.87 996.73 395.21 1137.58 383.52 1039.38 500.37 1036.40 590.22 1155.85 580.26
00007293 DELETE   939.35 192.84 384.72 539.64 1000.89 399.59 1143.44 388.73 1046.03 510.70 1040.02 594.11 1162.22 584.45
00007294 00000032 936.84 199.61 391.55 530.81 1007.45 419.70 1141.02 403.47 1060.15 521.40 1056.48 598.86 1169.73 584.17
00007295 00000033 937.22 198.18 395.51 537.10 1006.52 412.30 1145.23 394.29 1061.94 521.86 1058.69 603.10 1175.37 586.74
00007296 DELETE   943.93 186.40 389.90 546.70 1011.90 411.32 1147.75 390.68 1066.81 518.54 1060.10 601.53 1177.13 583.26
00007297 DELETE   946.57 188.78 391.42 536.95 1016.75 407.82 1156.94 387.98 1075.94 513.70 1064.72 593.89 1184.71 576.50
00007298 00000036 948.37 193.19 395.30 528.29 1019.37 408.48 1164.76 385.49 1082.26 511.11 1071.63 592.70 1195.01 572.45
00007299 00000037 950.25 193.04 394.65 533.76 1019.26 406.35 1162.56 386.67 1076.14 510.61 1066.38 590.81 1191.07 573.40
00007300 00000038 948.80 190.38 395.37 537.29 1018.11 405.85 1162.59 385.59 1074.45 511.24 1064.40 593.11 1190.13 575.12
00007301 00000039 950.63 192.01 397.08 536.65 1019.25 403.41 1166.21 384.11 1077.58 510.92 1067.68 593.01 1193.81 575.75
00007302 00000040 952.40 191.94 392.51 540.30 1020.12 403.33 1164.18 384.04 1074.42 510.08 1065.71 596.48 1187.25 579.36
00007303 00000041 950.02 190.21 392.99 538.01 1017.40 401.56 1161.13 384.17 1071.81 509.39 1064.15 595.56 1181.91 580.16
00007304 00000042 951.14 188.91 394.44 540.61 1019.10 401.55 1163.31 384.42 1073.39 508.49 1066.39 594.56 1186.13 579.21
00007305 00000043 949.34 194.44 395.04 526.75 1019.22 403.55 1165.97 386.40 1078.12 508.11 1068.31 589.83 1191.06 574.92
00007306 DELETE   945.95 193.70 393.89 528.59 1019.26 410.09 1161.08 393.97 1076.19 506.99 1063.73 588.78 1184.86 574.48
00007307 00000045 946.79 194.79 389.44 519.17 1014.36 405.31 1158.38 387.27 1071.32 503.74 1056.45 585.85 1180.34 570.52
00007308 00000046 945.26 187.76 392.63 522.81 1010.21 401.27 1160.19 379.83 1071.59 497.10 1056.89 582.30 1185.44 563.92
00007309 00000047 947.39 185.28 388.72 524.22 1008.97 394.30 1154.13 371.59 1067.46 491.48 1059.20 577.30 1182.47 558.32
00007310 00000048 946.93 181.15 389.49 528.58 1006.38 391.80 1151.00 367.76 1061.57 483.26 1055.34 573.31 1180.11 553.58
00007311 00000049 947.69 182.05 388.89 530.33 1006.63 392.23 1150.26 366.78 1061.01 483.40 1055.99 574.01 1180.63 552.97
00007312 00000050 948.67 183.31 386.56 525.67 1009.40 397.59 1153.60 371.07 1067.37 488.64 1060.34 575.34 1188.70 553.01
00007313 DELETE   942.22 188.54 388.59 525.68 1012.38 409.34 1155.45 387.94 1070.06 489.72 1053.26 574.96 1182.84 556.73
00007314 00000052 944.23 193.06 388.94 525.18 1010.51 402.48 1150.64 383.49 1062.48 489.56 1052.93 577.58 1175.20 561.82
00007315 00000053 944.40 190.87 386.73 518.35 1008.42 403.21 1152.67 380.06 1065.78 492.34 1053.71 577.83 1179.50 558.63
00007316 00000054 943.22 183.87 387.52 527.16 1001.21 397.99 1146.85 374.37 1056.63 489.29 1047.49 579.31 1174.57 560.09
00007317 00000055 941.79 178.67 388.68 527.46 997.04 393.13 1141.59 372.80 1048.64 486.19 1041.32 576.72 1164.51 560.14
00007318 00000056 941.57 178.46 388.76 529.57 996.15 392.68 1141.04 371.64 1047.27 485.60 1040.96 576.55 1164.68 559.50
00007319 00000057 938.38 179.85 391.33 527.60 994.99 393.86 1141.39 371.62 1049.29 486.56 1042.23 577.75 1165.28 559.65
00007320 00000058 936.29 182.88 389.73 526.46 991.05 393.82 1133.92 372.89 1039.03 486.34 1034.44 579.08 1157.38 561.89
00007321 00000059 933.71 185.89 390.11 522.12 988.84 391.54 1130.91 373.42 1033.64 487.15 1033.28 576.82 1153.89 561.83
00007322 00000060 933.31 186.69 392.73 525.05 989.00 393.29 1132.86 373.00 1036.03 488.99 1034.96 580.01 1157.29 563.24
00007323 00000061 933.01 187.43 391.13 524.18 989.87 395.89 1134.16 372.17 1040.27 488.98 1040.83 580.87 1163.49 561.23
00007324 00000062 933.53 190.51 393.97 530.40 989.09 398.51 1131.60 372.18 1036.85 490.51 1043.97 589.18 1163.87 567.15
00007325 00000063 929.79 199.18 392.00 517.40 987.39 401.74 1128.19 379.76 1036.16 494.20 1041.50 587.97 1157.67 569.37
00007326 00000064 929.59 198.82 398.43 521.25 989.87 410.61 1131.26 384.40 1041.79 495.68 1046.01 591.43 1165.18 568.92
00007327 00000065 935.64 194.82 395.43 529.34 995.79 406.53 1135.17 380.50 1044.78 493.19 1048.92 590.01 1171.25 567.81
00007328 00000066 938.37 188.28 393.12 528.31 997.88 401.02 1136.53 377.39 1047.09 492.66 1050.65 585.38 1171.17 565.44
00007329 00000067 941.97 188.77 392.06 525.16 1002.66 401.00 1143.61 377.66 1055.69 493.91 1049.92 579.69 1178.08 559.96
00007330 00000068 942.91 192.89 389.57 517.54 1002.62 402.25 1145.76 378.41 1057.52 496.80 1050.48 580.99 1178.83 560.89
00007331 00000069 942.09 190.17 392.67 527.64 1000.49 398.29 1140.06 379.01 1048.37 495.78 1046.84 582.50 1168.18 566.32
00007332 00000070 942.69 191.62 388.66 519.02 1000.49 397.36 1140.43 378.18 1048.53 492.67 1045.49 579.15 1167.66 563.31
00007333 00000071 945.29 187.69 389.55 524.39 1001.51 396.76 1143.94 376.12 1051.14 492.48 1048.14 578.72 1174.14 561.46
00007334 00000072 945.42 187.90 389.56 522.54 1001.90 396.40 1145.18 375.03 1052.16 491.34 1049.17 578.72 1173.83 560.98
00007335 00000073 945.40 186.22 389.49 525.27 1001.69 395.02 1142.75 374.31 1049.84 490.50 1051.25 580.10 1170.04 562.92
00007336 00000074 948.19 185.86 388.59 530.84 1004.24 394.26 1144.14 372.67 1050.82 491.46 1053.66 582.64 1171.64 564.77
00007337 00000075 948.07 185.97 389.39 526.25 1004.30 396.52 1146.12 373.82 1053.93 492.81 1055.96 582.49 1175.96 563.39
00007338 00000076 946.25 186.31 390.90 524.32 1003.13 398.08 1146.78 376.19 1054.39 494.11 1052.78 581.56 1176.17 562.99
00007339 00000077 945.03 189.93 391.01 518.34 1003.57 397.20 1146.33 377.64 1055.35 497.12 1052.43 581.19 1173.12 564.65
00007340 00000078 945.06 191.78 388.59 514.27 1003.96 398.91 1147.68 380.19 1057.92 504.32 1055.66 585.94 1174.09 569.94
00007341 00000079 946.07 191.80 391.52 518.11 1009.16 401.15 1151.51 380.18 1067.51 511.60 1067.37 592.33 1182.35 573.83
00007342 00000080 947.64 191.33 391.76 519.03 1013.04 404.82 1153.60 382.91 1071.61 513.32 1071.65 595.61 1185.38 575.99
00007343 00000081 946.49 195.38 393.98 517.16 1016.71 410.23 1156.32 390.75 1075.93 511.51 1071.97 592.01 1185.11 574.58
00007344 00000082 945.27 194.14 395.34 517.89 1014.34 406.48 1158.82 386.18 1075.36 508.94 1067.92 590.11 1187.12 572.26
00007345 00000083 946.40 193.94 394.03 515.93 1013.53 405.08 1157.50 383.78 1073.29 506.16 1064.78 586.78 1187.14 568.02
00007346 00000084 946.52 192.86 392.76 517.17 1010.95 400.78 1156.82 378.30 1070.94 502.34 1062.52 585.69 1186.16 566.36
00007347 00000085 948.65 192.58 389.44 520.65 1012.03 398.14 1153.01 375.75 1068.11 501.18 1065.97 586.46 1182.89 567.31
00007348 00000086 951.23 191.90 390.12 527.06 1014.12 397.70 1153.87 375.53 1067.66 501.46 1068.87 589.22 1184.02 570.16
00007349 00000087 952.47 193.36 390.80 528.56 1015.92 397.48 1155.94 375.29 1069.16 500.66 1070.49 590.15 1185.61 570.97
00007350 00000088 955.93 191.90 390.17 532.72 1018.60 397.19 1159.54 375.35 1070.59 500.36 1071.99 590.45 1189.34 571.45
00007351 00000089 956.88 192.08 390.67 531.47 1019.58 397.33 1161.73 376.21 1071.98 499.77 1071.68 589.13 1190.11 570.75
00007352 00000090 957.84 191.16 389.25 537.56 1020.31 397.10 1161.59 376.02 1071.62 501.11 1072.51 590.79 1192.09 572.17
00007353 00000091 958.49 190.77 391.41 547.37 1021.46 398.03 1162.98 376.24 1072.01 501.78 1073.75 595.68 1195.66 576.11
00007354 00000092 959.00 192.07 390.48 546.79 1022.47 398.66 1163.67 377.86 1072.24 503.28 1074.16 595.95 1197.38 576.91
00007355 00000093 955.04 192.69 389.60 533.27 1018.95 400.69 1160.61 379.90 1071.01 503.79 1069.38 591.07 1191.73 572.76
00007356 00000094 953.49 192.69 390.47 520.68 1017.35 403.55 1165.78 384.68 1073.85 502.49 1061.47 585.88 1190.30 569.54
00007357 00000095 951.91 191.36 389.68 518.31 1020.19 407.51 1168.15 390.36 1077.74 499.78 1059.42 581.60 1187.65 566.94
00007358 00000096 954.25 191.59 389.38 523.22 1018.72 400.20 1168.45 383.01 1074.64 495.47 1059.04 582.94 1187.73 568.67
00007359 00000097 956.19 185.35 390.25 524.83 1018.68 401.60 1171.15 383.09 1077.08 495.67 1060.44 581.51 1193.87 565.46
00007360 00000098 955.94 181.07 389.99 525.00 1017.21 398.15 1170.48 378.38 1075.90 490.28 1058.73 577.43 1193.58 560.40
00007361 00000099 956.87 178.20 388.52 526.40 1017.25 395.25 1169.06 374.88 1075.21 487.43 1058.81 574.79 1192.30 557.37
00007362 00000100 956.34 178.06 387.76 527.04 1015.92 396.00 1170.20 375.30 1075.00 488.99 1057.83 578.33 1191.38 560.65
00007363 00000101 956.00 177.76 387.65 527.74 1014.30 397.93 1170.18 375.69 1073.83 489.70 1057.92 581.30 1191.73 562.33
00007364 00000102 954.34 180.59 388.57 527.88 1013.67 398.90 1167.83 376.22 1072.30 490.50 1057.66 581.89 1190.89 562.52
00007365 00000103 955.99 184.11 385.34 530.60 1015.66 395.87 1164.42 375.62 1070.66 491.26 1059.73 581.15 1187.98 564.16
00007366 00000104 958.72 188.82 383.64 545.09 1019.76 401.36 1161.01 376.99 1070.98 500.19 1068.38 595.22 1191.54 574.31
00007367 00000105 954.43 191.32 391.92 547.76 1016.92 404.11 1158.94 380.97 1066.82 505.37 1066.56 599.71 1189.49 578.96
00007368 00000106 952.98 192.70 385.61 536.15 1013.25 404.79 1152.91 384.30 1060.00 502.35 1058.01 595.85 1179.02 578.43
00007369 00000107 952.22 188.11 382.84 537.60 1009.11 399.78 1150.25 378.45 1054.96 495.34 1052.31 590.36 1175.67 572.86
00007370 00000108 952.75 186.07 382.69 528.68 1007.09 396.52 1151.36 377.29 1053.27 491.31 1047.73 583.66 1171.50 568.09
00007371 00000109 952.22 183.69 381.78 530.28 1006.64 395.86 1151.46 378.32 1051.65 491.98 1044.53 584.31 1168.47 569.96
00007372 00000110 951.93 184.87 384.08 538.47 1007.53 395.82 1149.73 381.41 1047.66 495.27 1043.52 588.82 1165.22 576.98
00007373 00000111 954.45 186.56 380.42 537.70 1008.14 398.88 1148.17 388.40 1041.33 498.17 1040.27 592.35 1160.71 583.72
CROP_BBOX: 743 0 1566 862
