Video ID: 	H6I-Mf_E1ww
H: 	1080
W: 	1920
FPS: 	29.97002997002997

FRAME INDEX X0 Y0 W H [Landmarks (5 Points)]

00004578 00000000 950.53 219.62 437.24 529.83 1131.21 376.78 1310.75 362.35 1276.09 482.96 1174.12 603.60 1311.76 589.51
00004579 00000001 953.15 212.06 435.23 549.16 1125.98 369.56 1309.04 353.46 1274.11 475.28 1173.63 604.48 1312.13 588.71
00004580 00000002 955.89 202.81 434.43 550.16 1123.80 366.49 1306.32 342.79 1269.85 468.10 1171.17 598.51 1313.00 576.25
00004581 00000003 951.91 186.44 441.19 556.58 1106.56 360.36 1295.77 339.69 1253.41 452.76 1164.71 579.26 1322.00 560.42
00004582 00000004 950.39 193.85 438.12 533.78 1100.55 348.22 1295.18 331.62 1243.68 444.85 1159.99 572.88 1312.35 557.08
00004583 00000005 945.70 198.45 438.22 512.95 1097.64 342.04 1296.18 331.58 1236.66 441.18 1146.09 558.83 1309.14 547.88
00004584 00000006 946.15 195.93 435.38 512.48 1096.12 337.05 1292.41 327.41 1233.67 437.08 1140.72 551.42 1303.64 541.36
00004585 00000007 945.73 190.14 435.79 518.21 1097.02 333.10 1291.44 325.41 1234.10 433.29 1137.20 549.07 1301.09 540.58
00004586 00000008 948.10 185.84 434.44 522.07 1098.92 332.52 1295.64 324.31 1237.56 432.00 1143.41 552.32 1305.71 543.20
00004587 00000009 953.46 188.24 433.64 524.56 1100.47 332.64 1296.54 321.83 1240.70 433.62 1145.48 551.65 1311.50 540.64
00004588 00000010 955.96 185.80 432.15 523.95 1103.48 331.91 1300.48 321.32 1244.99 434.55 1149.52 553.33 1314.01 542.23
00004589 00000011 955.72 186.20 436.53 522.55 1106.15 333.37 1303.00 321.49 1248.33 433.83 1153.96 554.59 1316.70 542.45
00004590 00000012 954.62 186.38 441.15 513.64 1107.65 335.46 1308.02 322.14 1251.08 435.05 1153.37 550.61 1323.44 537.36
00004591 00000013 957.68 188.37 439.64 512.71 1110.06 335.17 1308.93 322.99 1253.03 436.01 1155.21 551.54 1322.07 539.37
00004592 DELETE   962.09 186.35 438.07 524.58 1111.36 341.04 1309.26 325.42 1254.39 439.48 1161.14 561.23 1324.93 546.15
00004593 00000015 964.90 187.47 441.57 548.28 1118.77 340.40 1310.80 317.52 1258.87 437.26 1164.73 576.10 1318.65 553.32
00004594 00000016 969.60 194.65 440.79 559.91 1122.20 350.89 1311.78 322.77 1262.02 448.62 1166.47 586.54 1321.65 559.53
00004595 00000017 974.05 199.46 434.93 569.41 1125.01 359.87 1311.24 330.34 1266.95 459.74 1169.43 594.33 1324.13 566.61
00004596 00000018 974.66 211.39 433.45 560.63 1127.20 367.58 1312.27 340.17 1268.15 468.22 1170.58 599.33 1323.42 574.08
00004597 00000019 975.60 219.54 431.06 559.56 1124.84 370.77 1310.60 345.85 1264.25 476.96 1167.34 602.10 1322.11 579.01
00004598 00000020 972.90 226.94 431.82 560.50 1117.18 374.38 1306.27 352.90 1254.87 487.78 1164.54 608.35 1322.76 587.79
00004599 00000021 970.79 225.71 431.59 565.40 1110.75 380.76 1301.43 358.99 1247.22 493.21 1162.24 614.59 1321.57 593.55
00004600 00000022 969.13 232.80 433.42 561.87 1110.40 385.51 1300.84 367.94 1244.51 500.66 1156.91 614.00 1320.40 596.67
00004601 00000023 970.32 237.38 433.96 552.58 1113.49 390.36 1304.92 373.16 1247.03 507.08 1156.97 612.15 1323.16 595.36
00004602 00000024 968.04 239.14 435.41 534.35 1116.07 393.75 1307.13 375.26 1250.71 507.72 1157.43 607.37 1320.58 589.92
00004603 00000025 966.70 239.01 436.75 526.38 1116.37 394.73 1307.35 374.71 1251.41 508.14 1155.80 603.60 1319.58 585.14
00004604 00000026 965.78 241.34 435.33 515.81 1115.17 396.86 1307.41 377.69 1250.09 509.62 1151.41 601.13 1318.73 583.61
00004605 00000027 963.62 241.91 437.23 509.79 1110.57 399.59 1307.11 378.60 1247.00 511.92 1148.49 602.84 1320.09 583.60
00004606 00000028 962.84 247.65 438.12 500.33 1110.05 401.39 1307.72 383.12 1244.01 512.75 1145.17 602.53 1318.06 585.94
00004607 00000029 960.72 250.08 439.98 503.86 1107.68 404.50 1304.50 386.06 1240.63 515.52 1143.85 605.30 1315.44 588.52
00004608 00000030 959.66 251.41 440.94 502.11 1106.77 407.43 1302.60 389.13 1238.10 518.64 1143.18 607.88 1312.05 591.38
00004609 00000031 957.45 259.43 444.48 497.58 1104.76 411.48 1301.77 394.43 1234.68 522.06 1140.20 610.33 1309.85 595.12
00004610 00000032 957.96 259.61 443.33 503.73 1104.08 413.78 1302.33 396.30 1234.92 526.43 1140.88 615.21 1308.68 599.53
00004611 00000033 958.67 256.60 440.04 512.85 1104.21 412.02 1302.16 397.28 1234.28 528.20 1139.72 618.05 1304.80 604.73
00004612 00000034 958.86 258.23 440.54 518.06 1104.95 410.06 1302.70 396.50 1235.44 529.52 1143.30 621.76 1304.31 609.05
00004613 00000035 958.85 259.71 439.86 515.41 1103.54 410.40 1302.42 398.06 1233.73 528.60 1143.15 622.86 1302.37 611.13
00004614 00000036 958.65 259.90 438.82 515.45 1100.22 409.10 1299.14 398.28 1227.67 524.19 1140.02 623.56 1295.78 612.88
00004615 00000037 957.94 257.60 437.40 516.12 1098.32 406.22 1296.88 396.24 1224.62 521.61 1136.86 620.98 1293.00 611.01
00004616 00000038 956.22 258.50 436.74 513.22 1094.53 405.25 1292.13 393.96 1218.51 521.37 1132.69 618.52 1289.31 607.42
00004617 00000039 952.20 258.11 436.08 513.37 1088.82 404.37 1289.02 394.09 1211.87 520.93 1124.05 617.08 1283.73 606.71
00004618 00000040 950.51 257.15 435.49 516.73 1085.97 403.15 1284.67 392.61 1207.61 520.59 1119.49 616.64 1279.92 605.89
00004619 00000041 948.35 259.52 437.07 514.06 1083.66 404.74 1283.53 394.43 1205.18 519.88 1118.78 618.19 1277.81 607.48
00004620 00000042 948.42 262.36 435.52 512.60 1083.58 405.20 1283.29 394.90 1204.80 521.69 1121.05 621.18 1277.23 610.34
00004621 00000043 947.59 264.26 436.88 514.93 1084.13 406.37 1282.89 395.46 1206.63 521.96 1125.33 624.54 1278.41 613.08
00004622 00000044 946.82 258.81 440.33 532.08 1084.30 407.73 1280.93 398.08 1206.72 520.41 1129.19 630.18 1280.59 619.96
00004623 00000045 946.13 264.97 441.40 523.64 1084.39 410.87 1284.59 400.74 1209.99 524.07 1127.47 630.30 1282.92 619.78
00004624 00000046 946.70 270.07 439.25 508.86 1086.46 418.92 1288.57 407.28 1212.81 528.43 1125.59 626.97 1288.20 615.47
00004625 00000047 946.32 272.21 437.82 498.21 1086.87 422.87 1287.75 411.94 1210.92 528.47 1119.00 621.50 1285.33 611.17
00004626 00000048 948.51 267.74 433.19 500.44 1084.03 421.70 1282.06 401.93 1207.22 534.76 1118.14 626.54 1278.55 607.27
00004627 00000049 945.59 266.11 436.14 507.81 1079.98 421.66 1278.51 398.33 1205.30 534.98 1117.33 631.42 1277.95 609.00
00004628 00000050 942.73 266.72 439.51 514.03 1075.16 419.77 1273.06 397.23 1198.20 532.80 1110.40 629.13 1275.42 607.19
00004629 00000051 938.87 269.21 438.31 509.48 1067.22 420.98 1267.75 395.86 1192.62 532.26 1106.52 630.36 1274.85 605.87
00004630 00000052 931.81 270.23 446.29 513.27 1068.83 428.04 1260.13 407.49 1195.19 527.51 1102.84 628.79 1272.25 610.17
00004631 00000053 924.85 263.52 448.84 516.49 1066.33 427.20 1257.24 405.66 1193.03 523.02 1100.92 626.96 1269.22 607.64
00004632 00000054 922.31 263.15 446.30 513.83 1060.39 426.57 1250.39 402.78 1187.13 521.88 1098.92 625.25 1267.73 604.43
00004633 00000055 918.45 264.51 446.09 510.82 1056.03 426.41 1244.61 402.36 1180.69 522.64 1094.62 622.99 1262.82 602.10
00004634 00000056 912.26 263.34 448.71 511.77 1051.01 425.97 1240.56 400.13 1177.41 521.93 1092.43 622.62 1260.57 600.26
00004635 00000057 911.06 261.70 444.01 518.55 1051.65 420.55 1239.31 396.84 1176.63 517.29 1096.12 624.26 1259.86 603.16
00004636 00000058 911.00 260.50 443.78 526.39 1052.08 414.55 1240.71 389.16 1179.58 516.23 1100.88 628.28 1261.80 605.25
00004637 00000059 913.29 254.46 441.88 535.18 1055.23 408.07 1245.26 380.32 1188.91 514.32 1107.69 632.33 1264.12 607.25
00004638 00000060 914.63 250.01 440.17 541.42 1055.55 403.02 1244.76 374.00 1193.83 508.48 1110.57 629.76 1263.98 603.32
00004639 00000061 915.80 245.78 440.00 535.27 1057.19 399.08 1249.17 370.23 1196.92 504.67 1112.86 625.96 1264.85 599.49
00004640 00000062 913.35 237.54 437.39 531.48 1057.81 396.48 1249.40 366.08 1200.12 499.41 1110.27 618.98 1266.80 591.15
00004641 00000063 913.11 232.18 436.00 531.44 1059.50 393.25 1249.43 364.15 1199.98 494.12 1110.25 614.79 1263.57 588.09
00004642 00000064 912.31 228.19 437.99 540.95 1059.99 391.92 1250.26 361.88 1201.09 493.83 1109.37 612.59 1267.45 585.07
00004643 00000065 914.28 227.06 440.21 553.39 1061.33 390.70 1251.63 359.69 1203.33 491.64 1117.53 623.60 1266.18 595.05
00004644 00000066 916.73 223.78 438.84 545.93 1066.96 390.63 1255.26 361.88 1207.42 488.07 1119.49 616.16 1269.33 589.50
00004645 00000067 915.90 224.77 440.39 538.26 1069.07 387.65 1258.14 361.42 1209.94 486.96 1119.46 610.89 1269.98 586.18
00004646 00000068 916.98 227.97 440.56 532.84 1071.47 386.04 1258.66 362.73 1210.26 486.35 1120.01 608.93 1266.61 586.66
00004647 00000069 920.16 225.72 438.71 534.61 1073.39 386.22 1261.01 365.13 1211.22 488.37 1118.68 607.13 1267.60 586.56
00004648 00000070 928.09 228.99 435.99 533.12 1075.55 387.60 1265.46 365.85 1213.26 490.84 1120.54 611.15 1270.64 590.15
00004649 00000071 935.41 240.50 436.89 527.72 1079.72 392.37 1271.69 369.38 1216.52 497.20 1125.40 616.82 1278.57 594.44
00004650 00000072 939.33 242.36 439.11 529.92 1081.85 393.11 1278.19 371.57 1219.81 500.22 1126.30 620.73 1282.30 599.74
00004651 00000073 942.09 241.95 438.07 533.50 1084.62 380.65 1286.68 364.99 1221.26 504.12 1139.95 622.85 1287.09 606.91
00004652 00000074 944.56 239.24 437.78 533.96 1086.88 380.68 1289.63 363.12 1226.36 502.77 1144.59 625.37 1291.83 607.78
00004653 00000075 946.43 238.69 437.55 521.80 1091.19 381.83 1293.57 365.54 1229.97 501.17 1144.11 616.94 1296.62 600.67
00004654 00000076 947.35 240.97 437.80 513.66 1093.88 379.43 1297.75 366.18 1232.11 498.90 1141.77 611.82 1295.83 598.05
00004655 00000077 947.19 233.33 438.45 515.56 1095.39 374.58 1298.73 359.67 1233.07 493.69 1142.92 608.32 1294.25 593.25
00004656 00000078 947.73 232.54 439.72 513.50 1096.90 370.12 1298.77 355.16 1233.59 489.98 1145.23 605.07 1292.17 590.02
00004657 00000079 947.90 227.48 440.53 514.66 1097.23 367.46 1297.97 350.99 1232.73 484.87 1146.63 602.40 1290.78 586.14
00004658 00000080 947.92 228.25 441.87 513.51 1096.87 364.17 1297.13 345.16 1234.16 479.05 1146.64 598.14 1293.26 580.02
00004659 00000081 948.71 223.09 442.52 516.31 1096.85 362.38 1296.76 340.62 1235.04 475.41 1146.92 594.72 1297.29 574.07
00004660 00000082 949.30 216.96 442.56 520.00 1095.30 360.85 1296.67 336.17 1234.29 472.34 1144.98 591.49 1300.05 568.15
00004661 00000083 949.49 216.67 442.56 518.97 1092.52 359.00 1295.64 332.75 1231.22 467.88 1143.10 589.25 1300.75 564.51
00004662 00000084 950.41 216.59 441.74 520.04 1090.25 356.66 1294.41 330.16 1227.13 464.05 1139.46 586.37 1299.49 561.56
00004663 00000085 949.38 219.54 441.53 517.25 1085.82 354.85 1290.70 327.32 1222.91 462.94 1135.83 584.98 1297.16 559.40
00004664 00000086 949.60 220.86 440.15 516.71 1083.35 351.85 1288.65 326.35 1218.48 463.09 1132.01 583.17 1293.13 559.31
00004665 00000087 949.84 218.17 438.28 528.04 1081.89 352.62 1285.30 327.92 1212.98 463.77 1127.79 583.56 1290.13 560.40
00004666 00000088 946.49 221.03 439.82 532.40 1076.92 353.12 1280.77 328.15 1207.51 463.31 1123.93 585.78 1288.98 562.25
00004667 00000089 945.33 222.23 439.50 537.17 1075.60 357.72 1277.59 332.20 1204.78 464.87 1122.27 588.74 1288.16 564.72
00004668 00000090 942.63 224.17 440.36 537.73 1074.85 359.88 1275.34 334.76 1203.52 466.14 1120.42 588.73 1286.58 565.11
00004669 00000091 943.54 224.83 439.37 529.40 1075.80 361.61 1276.35 336.95 1203.88 465.68 1119.79 585.02 1286.67 561.95
00004670 00000092 941.98 224.13 440.50 527.12 1075.18 361.69 1275.78 337.35 1203.36 466.43 1117.25 583.03 1286.10 560.33
00004671 00000093 938.71 222.19 441.85 530.90 1073.01 362.58 1273.16 338.37 1200.45 465.28 1113.24 584.86 1282.97 562.31
00004672 00000094 935.25 220.29 445.49 550.13 1071.65 367.26 1265.46 345.42 1199.21 467.75 1103.73 590.48 1274.11 569.79
00004673 00000095 930.90 223.42 444.63 544.41 1064.82 367.13 1257.98 341.83 1193.39 466.10 1106.65 598.31 1263.71 574.81
00004674 00000096 927.05 220.28 449.27 532.25 1063.09 362.93 1253.03 341.22 1185.24 461.44 1107.52 589.54 1257.25 568.16
00004675 00000097 921.50 219.36 451.83 523.41 1063.33 359.07 1249.31 342.20 1181.92 459.12 1104.64 583.02 1248.75 565.67
00004676 00000098 918.39 219.17 448.72 516.12 1057.24 357.86 1244.55 339.34 1177.14 458.10 1100.95 581.44 1244.78 562.73
00004677 00000099 913.19 223.23 448.57 514.81 1053.22 361.13 1240.57 341.25 1175.50 462.56 1098.24 582.83 1242.44 562.91
00004678 00000100 910.99 223.19 446.01 517.77 1052.56 366.56 1240.67 349.83 1174.70 471.27 1096.67 587.53 1240.01 570.20
00004679 00000101 909.64 225.51 443.03 524.56 1053.38 374.81 1241.66 357.45 1177.72 479.65 1096.86 594.30 1242.55 576.42
00004680 00000102 910.43 229.64 444.55 525.00 1054.43 376.57 1242.18 358.66 1178.78 482.56 1099.60 599.68 1240.83 581.48
00004681 00000103 912.23 227.91 442.30 527.86 1054.64 377.49 1239.90 353.68 1182.30 478.93 1107.42 604.85 1241.27 582.28
00004682 00000104 916.82 222.74 440.02 531.85 1056.81 375.41 1241.75 347.96 1185.24 471.64 1114.36 603.54 1248.22 577.84
00004683 00000105 917.32 221.06 443.04 530.87 1058.89 371.32 1245.45 342.92 1189.47 468.18 1116.40 600.63 1254.30 573.93
00004684 00000106 924.61 219.39 434.21 525.34 1060.03 373.98 1246.26 342.21 1189.80 466.00 1120.38 600.18 1259.44 570.45
00004685 00000107 927.08 218.24 433.52 530.26 1062.22 372.83 1249.60 343.25 1190.99 466.31 1122.18 601.63 1260.86 573.57
00004686 00000108 935.67 216.17 429.82 532.73 1070.04 372.11 1254.59 342.72 1199.10 464.61 1131.40 601.02 1269.04 572.92
00004687 00000109 940.39 215.03 429.30 539.75 1073.37 370.45 1256.24 339.92 1204.91 456.24 1138.38 601.66 1275.40 572.65
CROP_BBOX: 715 0 1624 924
