Video ID: 	QEL1UveR6Ps
H: 	1080
W: 	1920
FPS: 	25.0

FRAME INDEX X0 Y0 W H [Landmarks (5 Points)]

00006522 00000000 918.28 201.56 378.39 545.51 985.62 467.60 1159.31 509.30 1041.99 609.33 991.10 635.37 1128.59 669.08
00006523 00000001 918.54 206.62 380.32 543.25 988.77 469.44 1160.86 513.28 1043.30 609.03 991.79 635.97 1125.66 671.69
00006524 00000002 921.29 216.70 382.05 544.04 989.29 474.36 1163.43 523.03 1042.09 618.29 989.30 638.29 1128.42 678.31
00006525 DELETE   922.68 227.05 383.43 542.31 994.63 476.65 1169.60 532.22 1046.45 624.41 986.80 636.18 1133.16 682.30
00006526 00000004 926.60 231.17 379.24 540.93 1000.03 477.89 1173.45 533.32 1051.60 623.89 988.51 635.86 1136.61 682.06
00006527 00000005 927.47 225.71 377.75 544.20 1002.27 476.23 1175.18 528.68 1054.03 619.10 991.83 634.40 1140.55 678.00
00006528 00000006 928.27 230.42 374.48 533.76 1003.93 472.78 1174.55 525.47 1054.67 613.83 993.22 631.05 1137.42 674.82
00006529 00000007 927.40 228.43 374.26 528.39 1003.60 470.92 1173.72 522.19 1055.36 609.82 994.75 629.17 1135.60 671.76
00006530 00000008 927.49 220.68 370.53 525.48 1005.37 467.90 1174.73 516.14 1059.08 603.71 996.27 625.44 1134.64 665.33
00006531 00000009 926.22 218.86 370.15 521.31 1007.35 465.38 1175.72 511.67 1062.28 599.94 997.45 621.38 1135.38 659.61
00006532 00000010 927.78 211.99 368.62 524.64 1011.80 464.34 1178.75 509.94 1066.46 593.07 997.90 617.22 1136.51 654.74
00006533 DELETE   927.71 211.64 369.45 525.56 1013.37 463.14 1181.17 508.05 1068.37 590.80 998.88 615.79 1138.86 652.83
00006534 00000012 927.12 212.29 368.20 520.38 1012.98 460.64 1178.93 506.16 1067.22 586.65 998.54 609.90 1138.97 647.06
00006535 00000013 926.60 209.30 367.16 520.77 1012.76 457.85 1179.44 503.01 1067.48 583.82 997.94 605.95 1141.10 642.65
00006536 00000014 926.52 210.56 366.48 515.10 1012.30 452.66 1179.57 498.81 1066.45 579.35 997.20 599.64 1143.19 637.14
00006537 00000015 925.74 219.24 365.56 502.56 1013.75 450.22 1178.53 496.04 1066.80 577.59 998.05 594.88 1141.57 632.32
00006538 00000016 927.52 213.34 365.24 507.96 1013.92 448.22 1178.87 493.46 1066.82 575.75 998.99 593.64 1143.84 630.46
00006539 00000017 926.56 212.15 367.04 508.95 1013.08 446.78 1177.87 492.71 1065.78 576.19 998.08 591.84 1143.45 629.27
00006540 00000018 924.42 210.12 366.98 511.15 1012.34 447.09 1177.24 491.48 1066.39 576.00 997.63 591.30 1144.19 627.44
00006541 00000019 922.50 208.73 366.22 512.15 1010.09 446.84 1176.14 490.88 1064.95 577.08 995.98 590.44 1144.19 626.30
00006542 00000020 921.35 203.55 367.32 515.62 1008.59 444.74 1175.43 488.70 1064.74 574.35 994.85 588.83 1144.84 624.44
00006543 00000021 917.86 198.92 370.66 516.77 1004.72 443.96 1172.19 486.48 1061.48 573.31 994.80 590.86 1139.76 625.28
00006544 00000022 915.17 196.72 372.81 516.10 999.25 445.80 1167.93 485.17 1056.59 573.50 993.46 591.45 1137.70 622.87
00006545 00000023 910.28 200.33 372.98 514.82 994.26 448.28 1161.32 485.08 1051.72 574.73 988.47 590.35 1134.09 619.96
00006546 00000024 908.51 194.16 371.26 522.76 993.14 449.20 1158.31 484.53 1052.15 575.50 986.43 592.18 1131.63 620.59
00006547 00000025 907.97 196.04 368.14 521.52 990.95 449.83 1153.52 485.16 1048.63 575.77 983.45 592.08 1126.65 620.39
00006548 00000026 907.73 198.86 364.47 519.02 988.25 448.10 1148.63 484.37 1044.94 576.65 980.54 592.32 1123.09 621.36
00006549 00000027 906.27 196.85 362.66 521.04 984.69 447.91 1142.76 485.31 1040.60 578.36 976.07 591.05 1119.20 620.96
00006550 00000028 903.70 194.88 361.39 525.28 979.96 448.79 1136.28 486.74 1034.42 581.41 971.76 591.97 1115.01 622.26
00006551 00000029 895.37 193.44 362.81 528.43 969.75 437.48 1132.61 478.48 1013.68 577.44 964.65 589.11 1109.44 622.00
00006552 00000030 894.40 193.03 364.10 526.76 970.53 436.36 1131.61 476.65 1013.80 575.67 964.98 588.96 1106.84 621.35
00006553 00000031 895.19 192.66 362.77 527.49 970.35 436.15 1131.84 476.77 1013.38 576.02 965.21 589.95 1106.12 622.57
00006554 00000032 893.81 193.18 362.42 530.34 967.53 435.86 1130.12 478.42 1011.27 578.04 962.52 591.61 1104.57 625.74
00006555 00000033 894.02 195.33 363.18 530.04 966.26 436.77 1130.59 480.63 1009.56 579.99 961.47 593.12 1104.91 628.33
00006556 00000034 897.97 190.30 365.08 532.99 972.90 446.80 1131.77 487.94 1027.09 588.53 964.07 595.25 1109.76 628.24
00006557 00000035 899.08 190.61 363.98 534.12 972.86 447.61 1131.68 489.00 1026.21 590.05 964.59 596.95 1110.36 630.10
00006558 00000036 897.51 191.03 365.78 534.25 972.23 449.21 1132.11 490.27 1025.84 590.60 964.69 597.47 1110.81 630.46
00006559 00000037 899.22 193.23 365.24 532.11 973.47 448.09 1132.94 488.97 1026.92 589.26 965.84 595.58 1112.70 628.55
00006560 00000038 891.93 193.48 369.92 534.70 967.33 434.15 1132.12 475.70 1010.75 579.15 963.57 592.34 1108.59 626.11
00006561 DELETE   897.54 178.18 372.40 543.19 966.14 426.15 1135.11 470.94 1015.40 570.12 954.41 576.57 1102.17 614.17
00006562 00000040 896.64 152.41 361.11 544.46 955.99 403.42 1117.88 448.66 1003.04 547.52 951.13 562.19 1092.26 598.22
00006563 DELETE   891.96 120.38 352.53 555.86 943.83 376.54 1100.79 419.57 985.86 527.72 939.58 547.08 1081.36 580.53
00006564 00000042 884.83 100.43 363.26 567.69 942.00 362.86 1098.45 389.78 984.48 497.43 931.00 534.82 1072.42 556.73
00006565 DELETE   879.22 106.91 359.10 544.80 935.28 336.39 1084.08 370.22 965.37 471.26 923.15 513.69 1059.64 540.93
00006566 00000044 860.21 90.97 365.34 548.80 911.82 322.40 1067.87 358.28 944.48 466.31 903.53 506.65 1047.96 536.01
00006567 00000045 858.34 81.69 364.22 548.54 908.33 317.95 1057.45 349.16 934.64 443.25 916.93 494.15 1040.48 518.39
00006568 00000046 851.59 78.63 362.05 548.42 899.71 314.44 1046.37 342.13 926.33 434.88 909.45 490.70 1031.29 511.25
00006569 00000047 849.67 69.40 355.99 554.02 893.24 308.98 1037.40 333.79 919.94 427.31 904.27 487.55 1025.35 505.54
00006570 00000048 848.79 62.87 354.73 559.51 889.81 305.47 1031.33 330.13 912.73 423.88 902.63 481.73 1025.52 499.44
00006571 00000049 840.07 52.76 356.89 567.09 882.64 311.55 1023.16 326.74 906.99 423.99 886.65 484.37 1012.39 496.60
00006572 00000050 832.44 50.31 359.43 567.84 877.10 309.43 1016.65 322.96 902.67 420.66 882.89 483.20 1007.81 493.36
00006573 00000051 829.40 51.85 360.97 565.77 872.95 308.07 1012.77 319.98 898.19 419.35 879.87 483.13 1006.21 491.41
00006574 00000052 829.20 53.23 359.53 565.22 869.96 309.69 1009.68 321.10 894.15 420.82 878.29 484.54 1002.96 492.31
00006575 00000053 826.90 55.89 357.65 563.88 866.63 310.93 1005.93 321.83 890.15 422.79 877.45 486.53 1001.79 493.76
00006576 00000054 826.19 58.18 356.81 561.67 865.70 313.23 1004.91 323.29 889.59 423.84 876.82 486.53 1001.95 492.94
00006577 00000055 825.92 57.42 357.77 563.35 865.77 313.21 1004.62 322.41 889.71 423.29 877.84 486.97 1003.19 492.78
00006578 00000056 827.66 66.41 346.77 551.49 863.63 314.22 1002.11 327.84 880.48 418.91 880.12 483.58 1002.38 493.93
00006579 00000057 826.51 58.89 357.45 562.71 865.10 315.86 1003.68 322.95 889.43 425.04 878.19 488.78 1003.31 492.75
00006580 00000058 829.27 59.60 356.93 560.87 867.11 315.79 1006.26 324.29 891.58 425.12 879.40 489.22 1004.17 494.31
00006581 00000059 829.26 57.82 358.42 563.69 867.21 316.59 1006.90 324.88 892.24 425.33 879.73 490.06 1004.21 495.05
00006582 00000060 830.35 57.47 358.50 565.81 869.02 317.00 1008.04 326.67 892.69 425.95 880.80 490.65 1005.17 496.76
00006583 00000061 830.96 60.15 358.18 564.98 871.28 318.58 1008.80 327.79 893.97 426.78 882.99 491.88 1005.90 497.60
00006584 00000062 831.10 59.81 359.61 564.61 872.37 319.56 1009.35 328.07 896.02 426.67 884.26 493.40 1006.82 498.65
00006585 00000063 833.43 55.84 358.20 571.86 874.97 321.13 1012.63 329.13 900.55 429.98 886.22 494.63 1010.25 499.88
00006586 00000064 832.97 59.91 359.99 569.19 875.83 322.58 1013.84 330.78 901.01 433.24 887.54 495.73 1013.18 501.02
00006587 00000065 840.41 64.55 351.08 571.40 873.93 314.83 1015.01 334.15 896.18 432.34 894.92 492.65 1018.82 505.92
00006588 00000066 841.36 65.59 351.26 574.01 874.90 317.90 1015.32 335.82 897.44 433.69 896.89 494.63 1020.37 506.77
00006589 00000067 828.78 72.09 363.59 574.17 875.88 323.24 1020.06 337.54 902.72 444.07 886.97 501.38 1016.49 512.30
00006590 00000068 828.85 74.73 363.89 572.48 874.98 325.01 1018.77 339.36 902.18 445.29 886.99 504.29 1015.95 515.07
00006591 00000069 827.47 76.31 364.70 571.07 874.02 325.93 1018.56 340.15 902.56 446.63 886.70 505.56 1016.10 516.26
00006592 00000070 825.35 75.29 364.95 571.22 872.65 325.30 1018.32 339.20 902.47 446.10 884.74 504.71 1015.22 515.30
00006593 00000071 825.79 73.40 364.33 573.09 872.93 325.73 1018.57 338.79 902.80 445.57 885.21 505.53 1015.45 515.43
00006594 00000072 826.75 74.49 364.61 572.55 874.12 327.75 1019.40 340.33 904.21 446.36 886.85 507.83 1016.14 517.26
00006595 00000073 830.87 77.56 361.73 568.65 877.92 329.44 1021.88 342.56 907.07 447.42 891.13 506.53 1019.69 516.17
00006596 00000074 832.81 77.90 360.35 567.81 880.42 328.63 1023.53 341.74 909.01 446.58 892.76 505.36 1019.98 515.01
00006597 00000075 835.53 77.23 359.51 566.99 881.77 328.23 1024.22 341.37 909.13 447.25 894.34 505.35 1020.74 515.05
00006598 00000076 838.23 79.29 359.35 563.54 883.03 327.39 1025.52 341.72 909.99 448.27 895.54 506.45 1022.91 517.09
00006599 00000077 848.87 78.46 355.20 562.91 883.46 327.52 1025.44 343.14 906.86 440.99 905.77 501.09 1029.12 511.86
00006600 00000078 840.29 81.25 364.36 561.40 887.58 334.70 1020.81 345.19 909.07 452.45 895.35 512.84 1022.25 520.04
00006601 00000079 840.63 80.54 364.58 563.08 886.80 336.63 1020.19 345.65 909.04 453.06 895.87 515.12 1020.74 521.15
00006602 00000080 841.88 81.57 355.29 564.13 882.89 332.45 1021.66 345.51 906.89 451.34 896.52 515.83 1017.83 525.64
00006603 00000081 838.04 82.56 353.66 564.31 878.57 327.99 1015.35 340.08 897.13 443.09 889.38 510.77 1009.29 520.16
00006604 00000082 835.48 78.35 356.25 570.09 878.25 326.21 1014.67 337.96 895.66 440.03 888.95 506.73 1009.21 515.69
00006605 00000083 845.99 71.82 350.61 567.25 878.18 321.56 1016.05 337.27 897.83 434.35 902.78 495.90 1023.88 505.93
00006606 00000084 846.04 69.35 351.14 560.87 878.36 321.24 1018.89 335.15 900.77 433.75 902.91 492.68 1027.76 501.47
00006607 00000085 841.79 70.75 350.54 552.95 875.26 316.95 1015.61 333.05 898.24 430.72 897.62 488.73 1021.58 499.06
00006608 00000086 838.33 69.85 349.32 554.06 871.18 314.91 1009.61 332.33 892.01 427.95 891.20 489.12 1014.41 500.36
00006609 00000087 828.09 71.28 359.89 556.03 862.04 317.65 1007.17 327.38 885.57 436.46 886.03 498.78 1013.48 508.04
00006610 00000088 817.19 72.01 365.33 561.91 864.56 317.86 1009.99 332.20 889.50 439.93 872.98 494.94 1009.17 506.20
00006611 00000089 815.76 72.75 366.69 567.60 862.63 320.93 1007.19 332.97 888.50 439.03 873.78 499.05 1006.88 508.42
00006612 00000090 812.06 74.48 366.42 568.60 857.49 320.86 1001.11 334.93 880.47 441.44 868.26 500.02 1004.00 511.00
00006613 00000091 807.32 75.01 365.65 563.79 849.76 319.78 993.31 334.62 871.34 444.84 860.37 500.12 998.94 511.66
00006614 00000092 818.51 79.17 351.60 548.55 851.77 324.64 992.01 338.27 871.26 437.50 875.51 498.20 997.88 508.77
00006615 00000093 816.79 81.57 355.67 547.04 854.35 325.14 996.69 337.92 876.77 435.42 874.15 497.11 998.32 507.32
00006616 00000094 814.03 78.78 355.93 551.59 854.16 324.88 994.83 337.16 875.57 432.81 873.52 495.54 997.94 505.33
00006617 00000095 809.32 76.75 357.66 551.84 850.91 322.96 990.11 337.46 870.82 431.78 870.20 494.69 992.32 505.95
00006618 00000096 806.37 75.33 357.42 549.04 847.48 324.38 985.54 338.52 867.88 431.83 869.45 496.22 987.23 506.83
00006619 00000097 799.16 74.09 358.28 555.87 841.67 329.97 976.23 340.82 861.67 435.87 866.71 503.07 979.31 510.79
00006620 00000098 795.36 78.20 359.03 558.56 837.18 334.71 971.65 346.85 856.72 440.09 861.80 506.18 974.80 514.95
00006621 00000099 795.95 82.36 359.37 555.54 837.71 337.89 973.45 348.86 857.76 443.06 862.70 508.20 976.23 516.31
00006622 00000100 795.96 85.86 360.71 552.49 839.30 339.79 975.52 349.99 859.32 444.28 864.75 508.19 979.85 515.56
00006623 00000101 792.23 85.98 363.07 552.58 836.30 340.28 973.27 348.05 858.91 443.39 863.16 508.75 977.96 513.79
00006624 00000102 789.73 84.73 363.25 555.92 835.37 342.28 970.07 348.35 858.97 443.75 863.37 507.54 979.55 511.11
00006625 00000103 788.79 89.28 366.37 554.95 835.17 343.85 969.96 350.01 856.85 446.68 862.06 506.77 982.29 510.19
00006626 00000104 788.02 88.29 367.75 551.18 832.62 338.20 966.88 341.85 856.25 453.44 851.90 514.45 982.15 516.75
00006627 00000105 789.77 88.73 366.95 547.39 834.09 339.08 968.77 342.04 859.18 453.60 853.66 513.76 984.28 515.64
00006628 00000106 794.90 98.52 362.46 536.47 839.60 346.21 974.47 352.17 861.08 446.79 867.42 503.72 987.45 507.33
00006629 00000107 783.60 95.56 362.70 541.14 828.65 343.98 968.86 349.15 856.74 450.20 842.88 510.08 979.61 513.34
00006630 00000108 781.42 99.02 362.32 537.99 826.78 345.67 967.63 350.66 855.29 451.58 840.98 511.34 978.80 514.35
00006631 00000109 781.98 106.86 361.84 530.17 826.26 348.29 967.79 351.89 854.79 452.95 841.35 513.70 980.00 515.44
00006632 00000110 781.55 108.39 361.34 531.47 826.20 351.17 965.60 354.27 854.37 455.52 841.49 517.19 979.81 518.39
00006633 00000111 782.21 108.45 360.29 540.26 826.71 355.35 966.05 358.08 853.74 459.81 841.85 522.01 979.22 523.05
00006634 00000112 782.76 113.37 358.64 546.42 824.88 363.26 966.21 366.38 855.07 468.77 843.33 531.66 980.56 532.71
00006635 00000113 782.21 119.21 360.86 546.10 824.37 372.79 964.73 374.07 860.00 476.25 847.50 539.67 980.40 539.06
00006636 00000114 786.28 126.58 359.83 541.77 828.69 376.06 967.73 379.61 864.52 481.66 851.94 543.40 981.66 544.39
00006637 00000115 791.80 125.83 356.84 543.54 834.54 376.27 973.38 381.60 868.97 484.07 856.27 544.82 987.15 547.20
00006638 00000116 799.47 127.10 360.93 547.06 849.53 378.35 982.51 376.17 878.46 486.91 869.32 547.10 998.69 541.41
00006639 00000117 801.52 129.82 356.25 543.07 850.59 377.85 982.65 382.71 874.51 475.99 878.77 540.47 996.92 542.49
CROP_BBOX: 471 0 1584 1003
