Video ID: 	iH0cKLQbDEs
H: 	1080
W: 	1920
FPS: 	29.97002997002997

FRAME INDEX X0 Y0 W H [Landmarks (5 Points)]

00002949 00000000 572.85 94.08 442.92 592.04 704.75 311.20 915.69 261.89 871.65 372.59 801.40 546.13 971.86 502.92
00002950 DELETE   573.38 94.77 445.81 587.85 706.71 313.57 916.95 261.35 875.21 365.10 807.02 544.18 976.98 498.77
00002951 DELETE   574.29 94.98 445.26 582.46 707.61 313.30 917.48 261.35 877.79 362.91 810.35 543.09 979.38 498.24
00002952 00000003 574.61 97.60 447.67 575.75 711.64 315.12 919.85 266.91 884.10 360.17 816.23 541.43 983.23 500.12
00002953 00000004 578.18 101.60 447.00 571.07 716.21 321.81 922.78 274.40 890.43 362.59 821.47 540.96 989.91 500.33
00002954 00000005 580.89 103.82 449.68 574.31 719.85 326.50 927.62 281.93 894.91 366.81 827.03 544.81 994.96 506.25
00002955 DELETE   584.66 117.48 450.65 565.27 724.08 331.21 930.73 286.19 896.79 375.99 826.55 546.96 994.78 507.75
00002956 00000007 588.40 119.38 450.44 566.71 726.95 335.90 934.46 289.71 898.07 380.24 828.38 551.21 997.12 511.22
00002957 00000008 594.31 128.13 443.55 561.72 733.99 336.02 936.25 295.64 902.34 384.43 827.91 561.17 992.15 522.36
00002958 00000009 595.58 127.13 444.38 571.94 736.33 338.40 939.43 300.31 906.38 385.06 828.19 564.73 993.31 528.33
00002959 00000010 596.96 135.60 442.24 569.97 735.25 337.89 937.47 298.29 909.48 384.63 826.77 567.77 991.83 531.29
00002960 00000011 598.03 138.91 440.82 570.49 734.70 337.64 936.79 296.62 909.55 385.56 828.49 570.33 992.22 533.18
00002961 00000012 597.20 137.97 441.67 574.91 732.90 337.35 936.42 296.66 912.09 383.49 826.16 571.27 993.77 534.52
00002962 00000013 597.12 128.51 444.01 578.63 738.49 341.17 940.33 303.06 912.38 386.87 823.37 564.74 994.10 529.03
00002963 00000014 595.51 122.83 447.69 576.65 741.97 343.97 941.15 310.78 906.60 382.50 821.12 554.50 991.22 523.16
00002964 DELETE   594.80 118.39 449.69 576.08 739.07 339.78 947.13 306.41 906.78 382.04 816.10 545.43 995.54 517.09
00002965 00000016 597.10 113.08 448.28 576.52 739.55 333.66 951.06 301.18 907.66 378.74 818.20 543.56 998.37 515.19
00002966 00000017 596.58 112.14 449.31 577.80 736.73 325.10 949.29 292.15 906.65 376.74 820.17 543.31 998.09 513.55
00002967 00000018 600.63 108.15 446.65 578.50 735.16 319.12 952.63 288.05 905.14 375.96 818.82 544.28 997.70 515.42
00002968 00000019 599.36 106.19 450.84 579.59 735.72 317.92 954.25 285.80 905.22 375.22 819.52 543.16 999.54 513.17
00002969 00000020 603.14 101.88 448.31 583.76 737.77 315.16 957.63 283.93 905.46 374.84 818.45 541.93 999.73 512.33
00002970 00000021 605.31 101.85 445.47 582.98 739.22 315.20 959.24 282.95 905.59 377.56 819.18 542.75 999.33 512.32
00002971 00000022 606.74 101.92 443.51 584.20 740.70 316.19 959.78 284.44 906.33 377.62 821.23 543.38 1000.04 513.27
00002972 00000023 608.17 98.02 441.17 592.99 741.91 315.89 963.22 285.67 909.46 378.97 818.37 544.51 1001.45 515.73
00002973 00000024 608.05 99.87 441.19 589.23 742.93 317.49 964.20 288.72 910.26 380.02 819.51 544.79 1001.08 517.42
00002974 00000025 607.28 97.67 443.31 591.09 742.56 318.42 962.29 287.56 907.98 380.23 820.11 544.33 999.78 515.24
00002975 00000026 607.63 96.86 443.77 591.55 741.86 318.05 961.78 286.33 907.73 379.15 819.43 543.89 1000.48 514.08
00002976 00000027 606.28 100.16 443.85 589.25 740.30 317.61 959.80 284.61 904.97 380.58 817.43 544.37 997.89 513.34
00002977 00000028 604.27 99.66 443.52 587.32 738.60 316.96 956.31 285.64 903.32 379.89 815.97 543.18 993.20 513.98
00002978 00000029 602.86 103.22 442.75 587.54 736.85 317.72 956.03 288.35 903.88 382.16 813.76 545.82 993.26 518.54
00002979 00000030 599.35 104.36 445.09 592.51 733.78 318.03 951.04 287.47 902.01 382.84 809.69 545.66 991.54 517.67
00002980 00000031 596.61 111.93 446.62 583.15 730.58 319.21 948.07 287.81 899.28 383.27 809.97 546.65 990.45 518.04
00002981 00000032 593.74 109.69 448.65 589.10 728.34 318.35 946.39 286.34 897.42 384.03 807.24 547.41 988.44 518.32
00002982 00000033 591.43 110.70 449.84 589.34 726.66 319.41 945.12 284.28 897.22 385.34 806.15 548.66 988.94 517.14
00002983 00000034 589.98 111.15 451.96 590.30 725.90 320.51 944.74 284.78 898.44 386.56 806.69 550.25 989.87 518.22
00002984 00000035 589.23 107.11 453.41 596.09 726.50 323.14 944.02 284.47 899.55 387.38 807.06 551.62 990.15 517.37
00002985 00000036 589.10 112.92 454.71 591.22 725.33 324.84 944.45 286.71 899.17 389.56 805.43 552.81 990.46 519.23
00002986 00000037 589.61 114.63 454.52 585.91 725.08 324.89 945.46 287.83 898.55 390.14 805.20 552.27 990.79 519.53
00002987 00000038 589.22 112.22 455.57 586.23 723.82 323.63 946.77 287.53 896.53 389.50 804.04 551.11 992.10 518.98
00002988 00000039 588.28 113.23 454.41 584.50 722.16 323.52 946.33 285.84 895.64 390.01 801.44 551.51 991.22 518.19
00002989 00000040 587.32 111.76 455.32 585.77 721.17 322.71 946.14 286.10 892.34 389.47 796.26 548.79 988.93 516.69
00002990 00000041 586.67 115.83 455.54 580.77 718.86 323.26 944.04 286.52 887.06 390.43 792.40 546.87 986.79 514.70
00002991 00000042 585.30 102.06 457.37 596.25 716.97 322.72 943.10 284.36 884.69 386.94 789.90 545.98 985.94 512.49
00002992 00000043 584.66 99.24 456.34 599.84 716.34 321.82 941.32 284.17 882.63 386.96 788.90 546.24 983.60 513.13
00002993 00000044 586.07 104.11 453.99 595.16 714.96 323.73 939.43 285.66 879.42 389.06 789.34 548.11 981.85 514.61
00002994 00000045 588.18 111.91 450.27 588.30 714.99 325.82 937.54 286.82 879.09 393.47 791.05 552.52 979.43 518.39
00002995 00000046 587.57 115.53 450.17 588.51 713.96 331.54 937.23 290.27 880.69 402.53 792.16 559.22 978.46 523.44
00002996 00000047 587.77 120.92 449.95 590.00 714.09 337.60 937.24 296.60 880.68 411.68 790.75 568.61 973.93 533.68
00002997 00000048 588.53 126.82 450.21 590.46 716.35 347.21 942.15 309.20 882.34 422.66 787.99 576.55 973.15 543.91
00002998 00000049 593.44 124.60 449.75 596.22 719.52 351.25 947.74 315.11 882.02 429.17 786.25 579.37 975.46 548.21
00002999 00000050 594.51 134.91 452.86 598.85 724.58 354.32 949.19 316.12 887.91 430.77 795.15 593.66 981.52 558.95
00003000 00000051 596.61 131.61 451.03 611.90 727.52 351.11 947.71 311.56 892.74 429.26 796.37 596.57 977.74 561.24
00003001 00000052 599.15 132.03 447.42 610.78 732.63 346.42 949.20 306.16 899.84 424.90 801.11 594.11 976.93 558.55
00003002 DELETE   601.30 126.21 448.23 607.00 735.70 340.96 951.65 302.68 905.48 414.49 805.42 585.44 981.36 551.07
00003003 00000054 600.51 124.86 449.85 603.07 735.63 336.87 953.39 300.29 906.95 406.71 805.86 580.08 985.23 546.89
00003004 00000055 602.44 124.39 448.13 603.79 737.21 332.02 955.17 296.16 908.79 404.91 805.82 578.52 986.08 545.57
00003005 00000056 605.57 118.26 444.42 619.63 739.96 330.39 954.37 297.20 910.09 402.91 807.02 580.50 981.47 549.56
00003006 00000057 607.20 120.37 440.21 638.27 740.57 328.27 951.32 297.35 911.73 403.11 807.84 588.08 975.87 559.55
00003007 00000058 611.05 125.65 436.64 647.66 738.75 331.63 953.17 302.20 910.53 406.93 806.38 597.29 978.64 570.37
00003008 00000059 613.57 130.36 433.21 648.73 738.65 332.11 954.16 304.65 906.96 416.18 801.75 602.28 973.79 577.36
00003009 00000060 613.71 128.33 436.45 651.56 739.89 336.33 956.60 308.32 906.21 420.93 800.32 604.24 973.84 578.91
00003010 00000061 614.83 131.99 436.36 646.17 740.88 340.42 956.08 311.97 906.66 425.27 800.25 604.33 974.09 578.86
00003011 00000062 612.24 129.20 441.47 640.32 743.51 343.52 960.00 317.26 905.13 429.03 802.25 599.36 975.97 575.44
00003012 00000063 612.34 130.48 442.27 629.10 746.17 344.97 963.89 321.77 905.60 431.11 805.72 596.28 977.95 574.36
00003013 00000064 613.05 127.97 442.29 621.18 748.18 346.12 968.34 325.22 906.63 430.47 809.60 591.80 984.01 571.00
00003014 00000065 614.21 125.35 441.59 617.48 750.02 346.79 968.69 324.68 907.60 431.19 811.67 589.45 986.15 567.29
00003015 00000066 613.77 128.45 442.07 611.97 750.68 345.21 968.81 322.43 908.98 430.08 812.92 588.85 985.65 566.27
00003016 00000067 612.93 130.14 443.46 606.77 751.71 345.92 968.15 322.00 910.25 428.85 813.25 584.99 987.06 561.36
00003017 DELETE   612.34 130.51 443.44 605.13 751.93 346.88 968.72 322.53 912.55 426.98 812.83 585.33 989.57 561.05
00003018 00000069 611.48 129.80 443.36 599.77 753.39 345.34 969.89 321.82 913.99 426.22 814.68 582.87 989.77 558.82
00003019 00000070 612.03 125.34 442.52 597.41 754.97 342.89 969.15 318.07 913.86 424.07 817.31 579.61 988.78 554.41
00003020 00000071 611.36 126.36 443.66 591.77 756.30 341.69 967.59 315.70 915.89 421.14 821.23 578.21 988.21 551.76
00003021 00000072 610.26 121.80 446.78 594.76 756.86 341.09 967.71 314.97 918.05 417.14 823.30 576.12 991.06 549.62
00003022 00000073 610.05 119.86 448.25 595.96 757.06 339.91 967.89 312.90 919.04 416.45 824.60 574.73 992.17 547.39
00003023 00000074 610.13 122.06 448.68 592.72 757.83 339.26 968.46 312.15 919.61 416.69 826.51 575.59 992.15 548.14
00003024 00000075 612.68 122.01 448.25 596.05 758.42 340.95 971.07 311.34 921.74 417.02 827.28 578.75 996.29 549.56
00003025 00000076 612.65 123.52 450.85 593.04 759.53 344.07 974.37 311.32 923.33 420.15 827.27 578.95 1002.14 547.38
00003026 00000077 616.70 116.78 445.69 596.32 761.39 349.17 975.21 315.97 924.56 416.15 826.01 576.11 1004.69 544.95
00003027 DELETE   616.25 116.16 448.85 596.35 763.01 353.01 977.01 318.46 928.92 416.60 825.90 574.89 1008.07 543.11
00003028 00000079 615.39 118.58 449.13 596.72 762.67 349.11 974.07 314.15 928.95 415.46 827.95 575.90 1004.77 543.49
00003029 00000080 614.31 114.24 449.79 602.99 762.71 347.29 971.83 308.57 929.59 417.66 829.56 576.97 1003.22 541.02
00003030 00000081 613.75 119.63 450.39 599.52 762.17 343.63 972.83 305.87 931.02 418.50 829.74 578.25 1003.23 542.89
00003031 00000082 613.24 120.08 451.16 599.46 762.45 342.61 973.60 306.28 931.31 419.45 830.88 578.66 1003.12 544.37
00003032 00000083 612.28 120.98 452.22 607.36 761.29 343.15 972.01 303.71 933.81 419.33 829.55 581.36 1003.17 544.70
00003033 DELETE   614.65 122.21 447.20 608.82 762.78 341.03 973.57 305.89 935.90 418.97 829.52 582.44 1000.27 549.59
00003034 00000085 613.43 122.57 449.15 620.88 762.84 338.56 971.74 304.37 937.85 414.00 835.27 586.71 1001.74 554.64
00003035 DELETE   614.93 122.21 449.28 627.51 762.98 338.48 971.09 302.29 937.52 413.92 833.95 587.67 1001.84 554.31
00003036 00000087 615.95 122.14 448.40 625.94 763.04 338.70 970.71 301.91 938.38 414.14 834.50 587.03 1002.60 553.06
00003037 00000088 615.81 121.71 448.15 623.33 762.76 338.55 971.39 301.27 938.05 415.31 834.93 586.77 1002.79 552.31
00003038 00000089 615.98 121.61 448.94 620.21 763.61 339.20 972.98 302.40 938.92 416.42 836.49 585.19 1004.32 550.95
00003039 00000090 614.27 120.40 451.47 618.31 763.20 339.45 972.55 302.77 940.47 415.21 834.35 583.73 1005.64 549.39
00003040 00000091 614.76 119.45 452.00 615.14 763.51 339.58 973.51 303.73 940.57 415.90 833.57 582.91 1004.81 549.20
00003041 00000092 615.62 121.21 452.69 609.12 763.25 340.45 974.19 303.85 939.86 417.12 832.21 581.88 1005.45 547.40
00003042 00000093 615.10 119.64 455.93 609.07 763.52 341.65 975.23 303.91 939.48 416.42 832.08 580.61 1007.66 545.25
00003043 00000094 615.38 118.43 457.80 611.07 764.14 342.32 977.08 302.71 941.86 416.89 831.65 580.68 1010.47 544.03
00003044 DELETE   615.08 117.85 459.05 617.01 764.15 341.22 978.09 302.79 942.26 417.38 830.84 581.57 1010.24 546.11
00003045 00000096 615.00 115.77 459.51 619.93 765.72 340.88 980.11 300.77 945.16 420.32 830.16 582.54 1011.17 545.99
00003046 00000097 615.67 116.24 461.62 620.73 765.72 340.84 980.93 299.12 945.18 420.36 831.24 582.23 1013.20 544.31
00003047 00000098 615.85 113.43 463.75 622.82 766.07 340.99 983.17 300.20 946.44 419.14 830.66 580.82 1015.28 543.85
00003048 00000099 617.88 113.72 464.96 621.10 766.59 340.01 984.81 298.09 947.35 417.93 832.06 579.85 1018.07 542.06
00003049 00000100 620.95 107.28 465.06 626.32 768.56 339.00 988.21 296.16 949.35 416.24 833.71 577.70 1021.45 539.35
00003050 00000101 622.43 106.44 466.82 623.58 772.52 341.62 994.73 300.14 953.16 416.40 837.57 577.03 1027.07 539.97
00003051 00000102 625.63 105.35 464.69 625.42 775.05 342.69 996.25 301.51 955.56 414.67 841.34 576.47 1029.84 539.42
00003052 00000103 628.70 99.71 463.76 630.83 773.81 333.57 993.81 300.42 950.06 412.97 844.17 573.42 1031.20 544.90
00003053 00000104 631.54 93.75 464.90 636.32 776.79 335.64 995.53 298.40 952.06 413.23 847.55 573.56 1034.26 541.81
00003054 00000105 631.80 90.00 467.20 640.56 779.37 334.81 999.30 298.28 956.49 413.15 849.96 573.51 1037.00 542.16
00003055 00000106 631.58 91.88 468.03 641.96 780.53 334.11 1001.38 299.26 960.90 412.16 851.17 575.04 1039.02 544.89
00003056 00000107 635.56 93.01 466.82 645.12 782.60 333.48 1002.81 297.44 966.69 410.80 853.34 576.96 1041.01 546.12
00003057 00000108 637.44 95.33 467.41 647.78 783.33 331.87 1003.80 296.38 969.68 410.57 854.84 580.66 1041.34 550.37
00003058 00000109 636.36 94.27 468.79 658.13 781.88 330.25 1003.15 295.43 971.51 408.22 850.81 583.28 1040.47 553.65
00003059 00000110 636.86 89.53 468.72 670.28 781.29 328.92 1002.81 293.87 973.61 403.84 849.24 584.96 1040.69 555.25
00003060 00000111 639.16 98.71 466.50 672.25 779.43 327.96 1002.93 293.77 972.92 402.63 847.21 588.31 1041.95 559.41
00003061 00000112 641.94 97.39 463.96 679.93 779.31 326.35 1002.37 292.50 974.36 400.05 847.59 591.00 1042.38 562.24
00003062 00000113 640.86 94.44 463.91 685.35 777.86 325.34 1001.56 291.60 973.49 399.43 844.41 591.01 1041.49 562.53
00003063 00000114 641.01 87.85 464.79 692.74 778.50 324.17 1003.59 292.03 973.15 396.71 842.68 589.34 1042.38 562.02
00003064 00000115 639.84 84.83 466.99 695.27 779.04 323.64 1004.04 291.40 974.46 396.68 842.21 588.44 1042.93 560.97
00003065 00000116 640.89 82.77 466.18 697.31 779.96 322.93 1004.75 289.63 975.69 395.62 842.88 587.46 1044.03 558.94
00003066 00000117 642.76 83.84 463.66 694.91 781.06 322.64 1006.28 288.64 976.81 396.02 841.25 586.29 1043.88 557.61
00003067 00000118 647.30 90.93 459.42 694.30 788.87 323.84 1010.91 281.70 984.96 395.85 847.99 590.60 1049.21 552.16
00003068 00000119 645.96 95.05 464.34 672.46 791.63 327.52 1009.68 279.06 983.80 400.40 854.57 582.54 1051.72 538.61
00003069 00000120 642.82 81.17 472.76 657.82 789.10 327.29 1013.38 281.16 980.35 400.61 853.68 567.82 1056.83 528.08
00003070 00000121 646.04 79.80 470.28 649.83 790.24 329.17 1016.37 282.83 979.38 402.46 853.47 564.87 1058.32 525.16
00003071 00000122 645.95 82.03 471.43 644.41 791.20 328.68 1018.58 281.47 980.06 403.91 854.70 564.17 1059.98 523.69
00003072 00000123 646.37 81.72 470.83 641.42 792.67 329.81 1019.97 281.72 979.72 404.93 855.73 562.86 1060.88 521.61
00003073 00000124 647.42 87.47 468.45 633.52 794.86 332.92 1018.88 286.28 980.63 406.02 856.34 561.89 1060.22 522.38
00003074 DELETE   648.52 93.83 468.59 624.65 796.57 339.04 1021.61 294.02 980.16 409.07 855.42 561.82 1060.23 524.23
00003075 00000126 649.79 94.72 466.62 628.24 797.59 341.31 1021.50 295.25 982.81 410.53 855.23 565.80 1058.15 527.84
00003076 DELETE   649.78 96.52 464.17 636.70 797.46 341.22 1017.17 295.87 984.06 409.70 855.12 570.32 1055.59 532.80
00003077 00000128 650.35 96.04 465.11 638.60 797.37 341.62 1017.84 297.48 982.58 411.30 857.15 572.62 1055.70 535.72
00003078 DELETE   650.39 96.84 465.19 635.14 798.31 341.88 1019.13 298.58 981.85 414.16 857.08 572.03 1054.92 535.63
00003079 00000130 651.42 94.96 466.80 632.00 800.11 343.09 1022.89 299.06 982.69 417.60 859.32 571.79 1056.64 534.75
00003080 00000131 652.73 98.76 465.85 625.48 801.33 342.51 1025.57 298.82 983.13 418.53 862.50 571.86 1058.21 534.79
00003081 00000132 652.07 98.69 465.95 625.81 800.88 342.06 1024.67 298.16 982.69 419.39 861.69 571.37 1057.83 534.11
00003082 00000133 653.06 102.09 464.95 624.53 801.03 344.62 1022.13 298.49 981.99 421.61 864.27 575.00 1056.86 536.06
00003083 00000134 652.86 104.16 462.72 623.94 799.78 345.17 1021.50 299.81 981.47 423.34 865.53 577.80 1056.84 539.40
00003084 00000135 654.16 104.49 461.60 623.53 800.24 346.42 1021.69 302.13 981.46 423.14 867.34 578.81 1057.34 541.25
00003085 00000136 657.55 106.27 456.63 618.55 801.90 349.79 1023.16 307.00 981.83 423.57 867.28 577.98 1058.05 541.93
00003086 00000137 658.42 110.36 453.38 616.52 801.87 355.07 1026.52 313.42 983.36 425.55 866.11 582.17 1059.16 547.39
00003087 00000138 657.52 110.71 453.64 625.59 800.54 354.33 1023.52 313.65 982.56 424.84 865.37 586.61 1056.34 552.65
00003088 00000139 659.73 121.22 454.00 631.76 805.52 352.32 1019.38 308.62 987.36 420.75 871.23 593.51 1056.88 555.86
00003089 00000140 657.19 109.26 458.39 630.94 801.03 350.71 1022.00 310.10 981.65 422.38 867.89 586.14 1056.51 551.90
00003090 00000141 658.88 106.67 458.19 624.95 802.49 349.82 1025.59 307.68 982.00 423.43 870.36 583.53 1058.78 547.88
00003091 00000142 662.12 103.84 457.48 625.88 804.42 346.52 1029.41 304.58 983.72 423.14 870.99 580.32 1062.16 544.37
00003092 00000143 666.42 113.85 453.86 619.31 810.43 348.21 1028.60 303.88 988.10 423.33 878.48 587.01 1063.02 546.78
00003093 00000144 664.82 102.50 458.43 626.77 806.32 343.55 1032.46 300.80 986.84 418.87 874.87 578.52 1066.95 541.50
00003094 00000145 666.50 113.22 454.93 620.74 810.53 347.47 1029.52 301.77 990.23 421.17 878.94 587.33 1065.27 546.27
00003095 00000146 667.71 119.94 453.13 610.89 812.22 347.04 1031.89 303.93 991.36 424.53 878.03 586.00 1064.85 547.24
00003096 DELETE   667.12 119.14 453.48 610.19 812.49 347.00 1032.07 304.02 990.62 425.42 878.01 586.06 1064.57 547.26
00003097 00000148 665.53 119.19 456.03 610.22 812.23 346.96 1032.45 306.12 989.01 425.57 877.33 585.86 1064.16 548.69
00003098 00000149 666.77 117.65 454.43 613.65 811.44 347.19 1032.33 306.04 987.82 427.96 876.47 586.75 1063.35 549.34
00003099 00000150 664.15 113.53 456.39 625.76 810.18 348.02 1028.45 306.35 988.37 425.53 875.13 588.57 1060.65 551.07
00003100 00000151 663.53 116.59 457.20 621.67 809.46 348.91 1026.97 303.24 987.86 427.31 874.42 587.86 1061.62 547.42
00003101 DELETE   663.25 105.84 460.38 623.14 806.07 346.43 1031.45 302.26 984.61 424.42 872.71 578.99 1065.24 541.01
00003102 DELETE   662.98 115.94 459.84 612.05 811.39 348.87 1030.89 303.70 987.11 428.10 877.13 585.07 1065.04 544.66
00003103 00000154 663.06 121.89 461.14 607.24 812.56 347.65 1033.09 302.56 987.93 429.14 878.36 584.53 1067.94 544.10
00003104 00000155 664.88 119.25 460.30 610.61 813.06 348.15 1034.51 305.35 990.61 427.71 878.25 584.43 1069.28 545.75
00003105 00000156 665.77 120.87 461.45 610.86 814.70 349.49 1034.39 305.02 992.27 427.80 879.92 584.18 1070.68 544.33
00003106 00000157 667.71 120.37 461.64 614.06 816.72 349.27 1035.05 304.04 992.21 427.18 884.27 585.50 1072.10 544.67
00003107 00000158 670.24 114.81 459.65 616.89 820.73 349.77 1037.17 305.41 996.57 426.51 892.28 588.87 1073.06 547.91
00003108 00000159 672.46 109.11 458.32 618.82 825.20 347.84 1036.94 305.55 997.38 422.96 899.39 587.12 1071.14 548.37
00003109 00000160 676.35 114.09 452.49 606.12 829.08 343.97 1039.65 307.69 999.37 423.11 907.01 587.35 1070.80 553.19
00003110 00000161 682.87 118.35 445.95 598.67 831.89 344.09 1040.05 307.81 998.99 424.73 915.66 589.29 1072.18 555.12
00003111 00000162 684.01 112.11 446.82 607.72 833.18 343.69 1038.63 304.80 999.07 424.24 919.05 590.56 1070.52 554.73
00003112 00000163 687.37 111.42 445.58 605.17 834.83 343.29 1041.92 305.19 1000.22 425.42 919.68 590.12 1071.55 555.13
00003113 DELETE   687.87 110.88 446.32 606.44 835.31 343.03 1042.47 304.25 1001.57 424.83 919.90 590.25 1072.68 554.79
00003114 00000165 689.90 111.65 446.42 609.81 835.37 343.01 1044.61 302.38 1002.01 426.96 920.74 591.34 1074.17 554.60
00003115 00000166 690.55 111.96 445.95 608.77 835.98 343.05 1045.95 303.48 1003.29 427.40 919.23 590.99 1074.64 554.87
00003116 00000167 689.53 110.25 446.71 614.72 836.61 342.40 1046.90 303.43 1005.19 426.42 918.41 590.73 1075.35 554.77
00003117 00000168 689.72 109.81 449.52 619.41 837.93 340.52 1045.77 299.78 1007.88 424.51 920.95 588.39 1077.00 550.84
00003118 00000169 689.61 107.31 453.52 621.63 838.80 341.98 1049.29 301.80 1011.81 423.87 920.01 589.09 1080.87 552.21
