Video ID: 	1TXjc5d7-aU
H: 	1080
W: 	1920
FPS: 	25.0

FRAME INDEX X0 Y0 W H [Landmarks (5 Points)]

00001245 00000000 527.14 214.60 369.13 533.42 750.67 426.27 869.98 436.41 897.69 517.64 800.79 632.16 881.91 641.54
00001246 DELETE   531.79 219.65 370.09 537.33 764.22 429.63 870.84 435.88 905.96 522.71 810.89 637.68 882.98 643.74
00001247 00000002 539.48 219.18 373.97 548.22 767.65 430.98 876.33 435.02 914.24 527.85 814.08 644.07 891.45 648.57
00001248 00000003 545.79 213.48 372.34 561.69 777.79 435.48 872.31 448.44 908.72 528.18 815.77 638.40 882.72 649.34
00001249 00000004 553.62 216.43 369.81 566.63 782.85 441.67 880.85 456.54 911.32 535.09 816.33 644.13 886.85 656.35
00001250 00000005 558.42 218.21 368.23 568.23 787.55 444.34 890.70 459.09 914.54 538.84 816.07 646.98 890.00 659.22
00001251 00000006 560.49 218.18 367.60 570.03 788.85 446.65 892.94 460.38 916.76 540.42 817.31 649.72 891.92 661.28
00001252 00000007 558.92 221.41 367.28 568.47 790.37 457.02 894.91 471.96 918.38 543.66 817.56 651.44 892.28 663.00
00001253 DELETE   553.23 222.93 370.93 564.52 779.15 461.81 890.71 474.33 909.73 541.73 810.17 651.51 890.51 660.89
00001254 DELETE   548.97 225.57 378.34 562.22 769.48 462.00 897.35 476.62 904.67 538.03 802.61 652.39 895.94 662.72
00001255 DELETE   541.57 227.21 379.14 563.06 757.14 461.61 887.31 477.03 890.72 536.07 790.60 649.31 886.08 660.17
00001256 00000011 536.21 227.17 380.72 562.71 744.42 460.16 877.79 475.81 874.76 532.02 776.24 644.87 876.18 656.26
00001257 DELETE   532.95 230.80 379.32 555.51 736.81 459.40 872.07 479.61 862.69 534.12 764.99 642.01 865.17 657.02
00001258 00000013 524.77 231.47 379.72 555.64 728.61 455.10 862.38 478.30 849.41 536.87 753.71 640.43 851.91 658.40
00001259 00000014 527.53 230.69 373.86 547.16 726.17 448.50 876.29 470.08 860.23 537.48 739.58 646.05 854.03 663.91
00001260 00000015 524.07 229.00 375.47 547.74 720.31 447.83 872.69 469.75 853.47 536.63 734.52 646.09 850.14 664.00
00001261 00000016 518.84 227.54 376.08 548.54 714.78 446.78 867.33 470.64 847.78 532.79 730.52 644.11 845.70 663.62
00001262 00000017 517.31 229.34 377.91 550.14 710.47 448.85 863.92 470.74 843.67 532.09 727.17 645.46 844.73 663.37
00001263 00000018 514.81 230.58 378.83 549.17 708.73 449.78 861.44 471.53 840.80 532.99 725.75 645.82 841.94 663.53
00001264 00000019 513.35 234.12 379.58 549.72 705.54 452.45 857.79 472.18 838.04 533.87 723.71 647.81 840.80 664.08
00001265 00000020 514.20 235.37 379.31 549.62 705.08 453.35 856.51 471.36 836.35 535.00 723.36 648.75 839.81 663.77
00001266 00000021 513.73 234.39 379.45 553.47 703.18 453.78 855.18 471.16 835.96 534.81 723.46 650.75 840.65 665.29
00001267 00000022 513.82 235.52 379.13 554.38 702.58 454.61 854.23 471.37 834.89 536.94 723.22 652.24 840.06 666.35
00001268 00000023 511.93 235.83 378.73 554.84 699.07 456.46 851.54 471.32 832.10 537.86 722.56 653.87 839.01 666.29
00001269 00000024 509.76 236.89 380.04 557.47 698.12 457.85 851.12 475.21 831.54 540.26 721.30 656.73 837.58 671.24
00001270 00000025 508.26 238.29 380.43 553.49 694.78 459.73 850.40 476.74 828.61 541.70 716.58 656.21 835.41 670.50
00001271 00000026 504.43 237.79 380.43 545.55 687.66 462.46 851.17 476.26 825.22 543.71 714.19 657.45 836.90 668.40
00001272 00000027 498.30 239.02 383.70 545.11 685.05 465.95 847.93 479.85 821.89 544.34 712.08 657.82 834.81 668.51
00001273 00000028 496.35 238.68 383.22 550.47 684.57 464.80 840.85 477.37 817.45 543.17 709.70 656.22 828.64 666.25
00001274 00000029 493.02 236.99 380.98 553.84 680.42 465.72 832.23 476.01 812.89 543.23 713.26 660.07 825.34 668.08
00001275 00000030 488.54 241.03 381.29 542.33 676.31 467.47 831.06 474.40 811.12 540.35 715.76 658.78 829.51 663.23
00001276 00000031 484.56 243.16 381.53 543.41 674.00 468.29 826.36 475.60 807.90 541.26 716.25 660.84 826.96 665.39
00001277 00000032 481.81 242.42 381.72 551.22 670.22 469.85 819.03 475.57 801.86 542.95 712.62 664.69 820.53 668.45
00001278 00000033 479.44 244.81 382.99 547.37 666.88 472.01 817.22 475.48 799.86 543.48 709.82 664.57 819.46 666.62
00001279 00000034 478.72 245.93 382.47 546.72 663.42 475.50 815.25 476.05 797.36 548.71 708.87 668.26 818.64 667.89
00001280 00000035 476.71 251.68 382.99 541.64 660.00 480.35 811.16 478.83 793.85 553.57 706.16 671.17 815.29 669.33
00001281 00000036 473.82 256.86 384.84 540.43 657.43 487.93 809.64 484.07 791.87 561.53 703.17 676.41 813.56 672.85
00001282 00000037 473.44 259.14 382.55 546.43 658.05 495.47 806.77 485.60 792.10 572.55 702.97 686.38 810.95 678.14
00001283 00000038 473.51 259.12 384.48 556.83 657.78 505.67 806.25 492.40 790.82 581.81 700.05 694.49 811.37 683.17
00001284 00000039 472.03 262.96 383.76 558.82 658.79 513.59 802.86 495.99 792.21 589.05 700.09 700.88 808.07 686.17
00001285 00000040 465.44 269.53 387.00 552.18 655.58 517.34 800.23 500.03 791.43 590.88 701.72 703.58 807.02 689.26
00001286 00000041 461.89 271.09 386.84 551.66 651.42 519.20 795.23 500.76 787.49 590.50 700.41 704.19 805.70 689.22
00001287 00000042 457.78 272.19 386.89 551.45 647.40 518.85 791.54 500.29 783.37 592.11 697.88 706.44 803.47 691.38
00001288 00000043 450.40 272.48 389.85 553.43 640.89 518.91 783.09 497.50 775.76 593.79 690.63 706.77 796.86 689.64
00001289 00000044 441.49 276.39 389.10 555.85 633.72 516.26 774.73 495.51 768.33 594.80 680.52 707.55 788.84 691.17
00001290 00000045 433.59 274.93 392.34 559.00 621.91 516.58 768.68 495.15 760.25 594.73 670.52 710.19 783.53 693.62
00001291 00000046 428.28 262.25 390.03 566.38 617.09 513.51 765.94 493.13 764.58 592.33 659.26 713.80 774.49 697.04
00001292 00000047 426.96 267.25 386.84 561.31 610.54 510.10 762.27 491.90 757.00 589.22 656.32 713.43 771.35 698.29
00001293 00000048 420.03 267.09 386.82 561.30 601.67 509.47 755.45 493.89 743.43 589.22 649.38 712.71 763.97 699.13
00001294 00000049 412.85 267.54 389.40 560.24 593.11 509.48 747.37 494.34 733.14 589.60 644.42 712.33 756.84 698.97
00001295 00000050 408.67 273.33 390.82 555.02 581.42 509.16 739.68 494.06 720.02 591.59 635.08 712.05 747.77 698.64
00001296 00000051 400.34 276.28 394.36 555.93 574.29 507.70 734.13 494.68 712.95 596.78 622.54 711.80 737.06 700.63
00001297 00000052 396.03 277.76 393.53 555.38 570.91 509.37 728.88 500.48 705.01 602.07 612.26 711.01 726.49 703.59
00001298 00000053 389.18 279.36 392.24 550.29 564.43 515.26 727.79 509.63 694.57 606.31 599.71 709.75 716.79 705.99
00001299 00000054 388.15 280.70 394.11 557.62 563.65 513.00 732.53 515.43 692.40 612.12 588.03 708.69 713.12 711.67
00001300 DELETE   389.11 287.38 400.56 543.60 564.17 516.63 741.45 530.64 688.99 613.16 579.38 708.36 708.54 720.85
00001301 DELETE   389.08 305.32 420.82 555.43 566.80 525.11 741.18 551.13 681.12 620.10 573.36 709.83 713.29 730.57
00001302 DELETE   391.81 321.82 409.05 538.19 587.31 525.09 744.94 550.51 690.35 627.59 579.92 716.13 692.81 735.74
00001303 00000058 399.76 325.04 416.04 538.53 596.69 524.37 759.83 555.48 699.36 632.03 587.48 719.67 703.46 744.03
00001304 00000059 413.92 320.52 418.50 540.44 608.04 514.41 778.13 550.13 711.45 636.07 590.32 718.05 711.22 746.72
00001305 00000060 428.76 325.67 399.80 527.23 622.91 505.78 783.38 548.31 720.41 625.19 597.46 706.05 715.61 740.13
00001306 00000061 435.46 327.21 394.69 524.07 632.08 501.39 788.55 550.50 725.88 625.76 596.16 698.72 718.36 738.90
00001307 00000062 442.82 323.85 396.08 519.94 635.25 494.41 795.19 544.08 729.45 625.74 596.39 693.89 722.92 734.90
00001308 00000063 449.25 318.92 397.69 517.54 637.01 491.62 797.69 543.84 729.41 620.53 597.19 688.20 726.49 732.06
00001309 00000064 454.45 315.21 397.07 517.40 637.36 488.64 798.03 542.46 730.18 613.86 597.69 681.84 729.73 727.77
00001310 00000065 449.77 309.62 403.12 523.14 640.92 490.06 789.30 539.47 724.10 612.98 599.13 679.35 709.29 720.29
00001311 00000066 446.40 300.05 417.04 531.34 641.18 480.83 800.96 534.10 726.02 605.81 595.68 675.59 719.60 720.07
00001312 00000067 447.45 297.16 417.95 533.50 641.91 478.77 802.88 533.86 727.96 604.08 594.86 671.83 721.89 718.01
00001313 00000068 450.90 295.57 414.22 523.63 645.62 481.28 805.75 533.77 735.08 599.82 605.43 670.68 727.28 714.53
00001314 00000069 450.85 291.93 413.98 525.64 646.95 479.13 805.73 531.61 736.79 596.85 608.39 668.87 729.18 712.68
00001315 00000070 449.76 286.26 416.28 528.78 648.97 475.47 805.50 527.19 738.56 592.37 611.26 664.94 729.38 708.05
00001316 00000071 450.65 277.55 415.25 529.87 652.35 469.30 806.43 521.16 742.39 586.94 617.80 662.87 730.28 705.93
00001317 00000072 450.54 265.77 415.75 537.00 652.21 466.32 810.39 519.39 746.54 575.56 622.28 652.01 741.81 695.86
00001318 00000073 454.39 257.91 416.73 547.79 654.75 460.63 812.46 515.79 749.37 571.17 622.98 646.48 745.68 692.15
00001319 00000074 457.04 253.79 415.19 548.86 657.17 456.78 814.55 508.30 753.61 565.08 625.71 643.34 748.92 685.88
00001320 DELETE   460.53 248.51 406.29 542.24 658.06 448.95 812.92 498.89 755.60 553.92 631.09 634.88 752.45 675.82
00001321 00000076 464.72 246.67 399.25 529.87 658.72 439.05 813.39 486.24 758.35 538.64 638.01 626.20 757.12 664.06
00001322 00000077 466.56 239.31 396.42 525.04 654.22 429.44 810.56 473.42 758.10 524.58 642.99 617.17 759.31 652.18
00001323 00000078 461.15 218.51 398.95 536.28 651.72 423.74 815.53 468.91 765.53 520.02 645.09 610.64 769.64 648.02
00001324 00000079 462.22 216.71 397.35 535.72 650.90 421.91 816.91 467.20 766.12 515.75 645.25 607.36 772.07 644.76
00001325 00000080 461.91 214.03 398.00 536.65 650.68 420.11 816.63 464.57 766.98 513.56 647.16 606.60 773.32 643.28
00001326 00000081 461.71 206.42 396.71 543.51 650.18 418.32 816.73 462.76 769.30 509.37 649.62 604.61 776.51 641.11
00001327 00000082 462.95 198.96 396.05 544.33 649.83 414.84 817.54 456.41 772.63 504.13 655.69 604.10 781.84 638.15
00001328 00000083 464.67 198.63 397.44 538.88 650.63 414.77 820.84 452.30 775.79 503.16 661.01 603.09 788.62 633.58
00001329 00000084 464.94 192.85 396.26 541.54 649.52 413.28 819.96 449.14 775.76 499.65 662.92 602.15 790.34 631.04
00001330 00000085 464.30 191.75 394.23 537.73 647.77 409.01 817.40 444.54 773.19 495.42 660.42 598.89 787.50 627.63
00001331 00000086 465.68 189.80 393.37 541.49 646.54 407.51 815.53 441.14 772.10 491.48 660.64 597.82 787.51 624.99
00001332 00000087 466.61 186.72 390.33 541.56 643.60 405.20 811.03 436.74 767.03 485.77 658.87 592.50 785.07 618.11
00001333 00000088 466.49 185.61 388.38 533.78 643.71 401.10 813.08 433.97 767.15 478.95 657.00 583.30 787.72 609.85
00001334 00000089 466.68 187.11 389.23 526.99 645.02 401.84 816.74 433.50 771.19 477.48 658.80 582.78 793.22 608.25
00001335 00000090 466.12 188.60 390.89 524.77 646.19 408.11 817.06 436.68 772.47 477.41 661.49 585.22 795.07 608.03
00001336 DELETE   468.05 188.77 389.49 524.23 650.20 410.84 820.28 439.32 777.75 478.10 667.71 586.55 798.63 608.85
00001337 00000092 469.88 191.63 391.60 520.77 654.80 410.87 828.78 442.38 788.95 478.68 675.23 588.95 808.96 613.47
00001338 00000093 473.24 190.25 387.40 522.96 656.86 408.68 827.93 436.65 792.70 478.92 681.77 588.57 811.91 610.30
00001339 00000094 474.02 186.90 386.66 531.21 663.27 409.13 826.74 435.01 798.11 482.27 691.46 593.26 814.02 613.20
00001340 00000095 474.26 185.34 386.16 532.69 664.12 409.44 826.30 430.39 801.34 481.48 695.70 592.62 817.17 608.27
00001341 00000096 474.24 186.25 389.44 532.61 668.17 413.14 829.53 428.69 809.53 482.27 710.05 598.30 828.57 609.07
00001342 00000097 473.43 188.83 389.44 535.99 671.63 418.36 826.57 432.71 809.32 491.03 715.14 606.47 825.52 616.56
00001343 00000098 477.80 193.68 389.04 543.62 680.23 423.74 834.46 438.38 819.07 493.92 722.05 612.89 830.39 623.15
00001344 00000099 486.20 198.21 388.65 545.25 692.54 425.90 839.72 441.01 830.96 504.56 730.75 622.80 835.56 633.73
00001345 00000100 493.12 205.34 381.27 541.84 698.98 430.74 842.52 446.95 834.48 511.09 732.74 627.32 836.32 640.09
00001346 00000101 498.28 208.04 374.89 543.51 702.07 435.81 841.56 450.33 837.58 513.59 735.44 630.93 837.73 642.97
00001347 00000102 500.88 212.45 373.80 543.94 702.83 440.08 843.03 452.95 837.54 515.80 735.26 633.87 839.12 644.54
00001348 00000103 502.31 214.36 370.82 545.29 704.10 441.23 842.39 454.93 838.04 516.17 734.11 633.50 837.50 645.12
00001349 00000104 501.81 212.73 374.39 549.45 705.00 444.43 847.52 456.67 843.91 518.71 733.85 634.12 842.97 644.44
00001350 00000105 501.54 213.25 374.72 550.28 704.00 444.99 845.68 457.10 842.85 518.18 734.04 634.81 842.64 645.02
00001351 00000106 502.87 214.34 370.39 549.27 704.59 444.48 841.68 456.29 839.36 517.13 736.32 636.16 839.79 646.36
00001352 00000107 505.55 215.79 368.01 547.41 707.29 445.48 841.56 456.58 841.44 517.60 738.43 636.45 840.33 646.29
00001353 00000108 506.59 214.97 369.24 548.99 708.72 446.78 843.71 457.14 842.89 518.25 738.17 635.87 842.31 645.11
00001354 00000109 507.41 215.67 370.50 548.83 710.19 445.90 847.30 458.07 844.94 518.86 737.71 635.28 843.74 646.09
00001355 00000110 510.40 215.87 368.94 552.55 711.60 446.14 848.82 457.77 845.27 519.24 735.98 634.41 843.83 645.00
00001356 00000111 512.10 214.83 367.75 556.51 712.68 443.44 847.55 455.15 844.47 517.13 734.03 632.25 841.76 643.09
00001357 00000112 514.15 208.76 372.68 557.86 714.76 439.64 855.72 452.10 850.80 516.58 733.86 629.79 847.36 641.17
00001358 00000113 516.98 207.14 372.57 556.73 719.86 438.25 859.80 449.19 858.14 513.97 739.29 628.25 853.45 638.40
00001359 00000114 517.78 205.01 372.12 557.06 719.63 436.01 857.11 446.18 854.53 514.37 739.46 627.79 849.15 637.60
00001360 00000115 518.49 203.70 370.50 556.27 720.26 433.03 856.59 442.69 853.51 514.26 740.31 627.43 846.34 637.14
00001361 00000116 510.04 203.20 384.87 555.79 715.43 430.52 857.82 435.93 851.18 513.60 747.56 616.65 861.06 621.60
00001362 00000117 512.34 201.09 380.06 548.79 718.49 425.94 855.02 428.33 850.37 508.63 754.04 612.55 859.06 614.53
00001363 00000118 513.37 198.06 377.95 551.33 722.76 420.03 855.26 424.26 851.92 506.40 759.05 613.83 858.81 617.33
00001364 00000119 515.17 190.89 379.25 557.10 722.52 415.77 853.80 421.23 850.22 499.38 756.07 608.16 856.90 612.57
00001365 00000120 515.19 188.64 382.67 560.16 719.84 413.02 855.38 419.49 848.40 498.46 748.14 605.20 854.64 610.66
00001366 00000121 518.07 184.47 382.51 559.97 719.01 410.76 859.47 417.51 847.89 498.08 743.97 602.64 854.13 608.44
00001367 00000122 518.17 184.51 386.26 554.50 718.79 411.27 863.43 418.69 850.10 498.18 744.11 600.97 857.27 607.44
00001368 00000123 518.61 184.88 387.61 551.69 716.61 411.19 865.96 418.76 850.24 496.57 744.53 600.09 860.89 606.56
00001369 00000124 518.57 184.96 388.06 551.43 716.53 411.40 866.55 420.21 849.89 496.95 744.31 600.29 860.78 607.76
00001370 00000125 518.47 185.60 388.75 550.73 714.49 412.46 866.49 420.67 847.91 497.84 742.30 601.11 860.34 608.13
00001371 00000126 517.12 188.44 392.70 548.44 711.73 419.55 868.18 429.89 844.56 496.00 739.06 600.31 859.88 608.66
00001372 DELETE   517.07 186.77 390.44 548.88 709.54 423.79 866.27 434.84 839.97 496.67 735.74 600.27 856.42 609.18
00001373 DELETE   515.88 186.15 394.27 550.12 704.73 421.05 866.40 431.07 835.08 495.92 732.60 601.34 855.85 609.53
00001374 00000129 521.41 185.95 383.70 553.78 711.67 418.21 872.87 430.49 846.27 499.20 727.94 611.12 854.49 620.76
00001375 00000130 521.58 186.92 380.74 552.62 710.05 417.41 869.08 427.99 843.90 498.17 727.83 611.57 852.80 619.89
00001376 00000131 521.74 187.36 380.92 550.91 707.61 416.45 869.49 427.41 841.39 498.51 725.50 610.71 852.35 619.37
00001377 00000132 519.62 185.97 382.31 551.06 703.05 415.93 866.62 426.11 837.63 496.94 722.76 609.62 851.66 617.68
00001378 00000133 521.91 187.25 381.38 550.64 703.82 415.50 866.67 425.25 837.15 497.33 722.64 609.73 851.33 617.49
00001379 00000134 523.19 187.44 381.26 552.07 704.34 414.14 868.01 424.26 838.80 496.06 720.97 607.46 853.57 615.61
00001380 00000135 523.55 184.82 384.12 550.80 704.34 413.11 871.26 422.43 841.37 494.24 720.74 603.80 858.16 611.35
00001381 00000136 524.12 181.73 382.77 553.10 703.71 412.89 869.38 419.40 840.24 491.88 720.39 601.21 858.71 606.47
00001382 00000137 523.45 183.24 382.60 550.75 701.53 412.86 869.57 418.76 839.71 493.38 719.89 601.93 859.41 606.48
00001383 00000138 522.25 184.74 384.42 551.84 698.47 416.09 868.28 419.66 837.65 497.28 720.15 607.08 859.78 609.59
00001384 00000139 520.55 188.71 386.89 552.35 695.37 420.40 867.66 423.54 835.38 500.61 720.38 613.11 860.02 614.99
00001385 00000140 520.11 191.53 387.57 554.14 694.78 421.36 864.33 426.07 830.70 503.64 719.52 616.27 854.87 619.51
00001386 00000141 519.82 194.33 385.18 557.90 694.27 424.39 857.69 429.25 825.88 504.72 718.59 620.08 848.96 623.64
00001387 00000142 518.64 196.02 385.07 559.33 692.84 426.40 854.12 430.79 822.84 505.82 717.95 621.74 846.34 624.79
00001388 00000143 517.68 197.25 384.76 557.24 691.86 428.50 852.85 433.49 821.43 506.87 718.03 622.48 845.43 625.88
00001389 00000144 513.27 204.87 390.45 551.16 683.93 428.66 847.46 427.18 812.79 511.99 720.47 621.49 848.14 621.44
00001390 00000145 515.12 201.75 384.70 547.45 687.33 436.95 851.22 440.35 819.21 511.30 716.71 624.11 846.09 626.18
00001391 00000146 511.68 211.68 388.10 542.10 682.21 434.84 843.33 431.46 810.88 514.14 720.46 624.05 846.42 622.30
00001392 00000147 516.61 204.02 379.85 546.08 683.60 437.40 845.13 435.98 817.91 512.67 714.22 630.15 841.54 629.01
00001393 00000148 519.80 204.83 379.60 547.65 687.92 437.33 847.53 438.19 821.39 512.50 716.64 630.63 843.61 631.60
00001394 00000149 517.24 212.11 386.35 546.51 688.45 436.58 844.83 434.75 814.10 514.69 726.39 625.09 848.85 624.72
00001395 00000150 517.89 212.55 386.55 544.28 689.24 437.42 845.21 434.25 815.86 514.03 730.43 624.49 851.88 622.87
00001396 00000151 516.71 210.81 386.37 546.63 690.06 438.40 843.75 433.52 816.49 514.35 733.91 625.62 851.66 622.53
00001397 00000152 522.19 208.29 379.96 544.80 695.32 440.53 848.31 437.45 828.52 510.43 729.72 631.87 850.31 629.98
00001398 00000153 522.57 211.02 378.88 547.58 693.94 444.00 850.07 442.27 828.27 514.79 726.47 635.54 850.58 634.57
00001399 00000154 521.87 214.65 378.71 547.54 693.80 446.76 851.67 447.80 829.47 517.26 721.38 634.87 849.82 636.17
00001400 00000155 520.95 218.99 380.88 547.60 694.39 451.38 853.87 451.20 831.28 522.95 721.58 639.14 852.42 639.13
00001401 00000156 520.51 225.32 380.82 548.93 692.77 456.63 848.56 454.20 826.74 526.97 719.95 643.97 847.84 642.31
00001402 00000157 522.27 229.53 379.54 546.37 694.13 459.50 851.45 456.42 827.56 531.94 721.39 647.92 849.35 645.55
00001403 00000158 520.32 230.33 380.41 545.47 693.64 460.80 851.97 458.17 825.90 534.70 719.12 649.39 846.85 647.43
00001404 00000159 512.89 229.84 385.32 548.43 690.35 461.28 848.35 458.15 823.94 535.12 716.51 649.71 843.59 647.13
00001405 00000160 506.58 228.26 388.44 552.26 687.46 462.13 845.31 459.17 821.65 536.33 714.66 650.77 841.30 648.00
00001406 00000161 503.24 227.74 393.72 556.86 688.33 468.57 848.79 466.56 823.16 539.48 713.99 654.89 843.39 652.75
00001407 00000162 499.62 227.36 396.55 562.11 690.04 469.53 848.92 472.27 822.75 541.78 712.70 656.86 841.23 658.87
00001408 00000163 496.10 227.80 398.58 562.67 684.96 465.13 849.09 467.90 820.01 540.79 710.74 657.06 839.99 658.76
00001409 00000164 493.10 226.59 398.85 565.04 684.94 463.20 846.39 464.16 820.52 539.99 711.99 657.88 837.67 658.06
00001410 00000165 493.44 224.06 398.74 570.64 686.39 459.70 845.12 459.18 821.95 539.96 714.36 659.03 837.35 658.24
00001411 00000166 492.76 222.29 399.79 572.49 688.67 459.88 846.41 460.00 825.73 539.34 718.18 659.78 840.12 659.45
00001412 00000167 493.57 218.98 402.27 577.63 691.71 459.38 849.11 458.58 830.79 538.75 720.97 660.34 844.16 659.43
00001413 00000168 492.62 213.88 404.30 582.20 694.20 457.88 849.72 457.94 834.43 536.12 722.82 657.63 845.40 657.42
00001414 00000169 493.68 211.41 405.27 585.55 698.70 456.55 853.26 459.67 839.23 537.44 726.92 658.55 847.71 660.81
00001415 00000170 495.49 209.58 405.80 588.04 701.12 456.16 857.37 460.48 842.56 538.66 728.49 659.66 850.55 662.94
