Video ID: 	VMTAWy8CGKU
H: 	1080
W: 	1920
FPS: 	25.0

FRAME INDEX X0 Y0 W H [Landmarks (5 Points)]

00000260 00000000 843.82 221.01 442.04 621.07 927.56 464.82 1132.71 450.07 1022.28 590.89 969.12 697.15 1135.06 683.37
00000261 00000001 843.79 221.39 439.15 626.27 925.81 462.98 1130.35 450.99 1016.68 590.11 963.27 700.67 1124.26 689.76
00000262 DELETE   847.09 214.31 441.75 633.59 932.47 455.24 1138.40 446.65 1024.17 582.58 969.13 698.59 1125.96 689.84
00000263 DELETE   853.15 210.56 435.68 635.99 947.85 452.57 1151.57 441.85 1045.66 572.62 989.52 699.01 1136.43 688.20
00000264 00000004 857.11 209.61 432.43 641.14 954.08 455.30 1154.53 442.87 1053.01 573.71 997.53 702.90 1142.14 690.84
00000265 00000005 853.67 215.26 435.34 640.95 949.86 456.16 1151.89 444.95 1048.28 578.30 993.20 704.95 1140.23 693.54
00000266 00000006 849.90 217.14 439.08 641.86 942.73 458.36 1149.44 446.62 1041.90 578.84 984.40 707.37 1135.33 695.89
00000267 00000007 849.06 212.25 440.10 641.32 942.83 452.97 1152.34 443.09 1043.76 575.48 983.55 702.22 1137.69 691.91
00000268 DELETE   850.58 208.14 443.13 641.96 946.77 452.88 1158.12 445.60 1047.57 577.90 982.84 696.75 1146.77 687.94
00000269 00000009 851.30 209.59 447.85 640.58 947.23 459.22 1162.32 450.48 1049.17 579.77 980.61 695.84 1155.49 685.68
00000270 00000010 855.86 215.44 447.21 642.82 949.92 464.43 1164.35 455.21 1049.13 586.13 981.95 700.65 1161.18 689.98
00000271 00000011 863.80 219.65 444.66 640.37 955.37 471.65 1169.43 460.80 1052.54 592.70 987.10 703.61 1170.04 691.89
00000272 00000012 869.98 217.75 443.25 638.89 959.52 471.99 1175.24 460.96 1056.55 592.83 989.93 702.79 1174.17 691.09
00000273 00000013 874.39 211.33 449.81 646.78 961.18 466.69 1179.05 456.69 1059.58 593.14 991.63 701.87 1170.61 694.16
00000274 00000014 873.50 208.89 451.52 653.99 960.04 464.43 1178.68 456.18 1057.39 592.95 987.49 701.55 1167.68 695.43
00000275 00000015 861.22 202.08 462.78 659.45 946.39 461.89 1162.68 453.37 1035.10 593.74 977.07 697.76 1151.55 691.00
00000276 00000016 852.04 205.41 455.82 666.53 935.31 452.95 1149.61 449.29 1019.36 585.99 960.67 698.58 1141.46 693.47
00000277 00000017 850.17 206.62 455.79 667.83 933.35 453.35 1147.06 449.36 1017.35 585.23 958.26 700.16 1139.86 694.97
00000278 00000018 847.81 209.23 457.25 660.67 933.87 457.43 1153.66 448.85 1028.24 589.22 960.83 698.48 1153.62 689.44
00000279 00000019 847.63 207.01 457.46 653.34 932.23 458.03 1155.17 447.33 1031.49 583.39 959.28 694.31 1158.13 683.68
00000280 00000020 847.90 202.47 458.75 652.39 930.85 455.47 1156.07 446.49 1030.08 580.02 955.92 691.41 1158.13 682.23
00000281 00000021 848.42 199.90 460.06 658.99 934.32 453.38 1161.30 446.59 1033.69 578.60 956.74 691.33 1160.05 683.73
00000282 00000022 856.61 197.18 470.37 674.48 947.87 457.46 1167.51 447.25 1040.45 583.47 972.58 694.64 1166.76 686.06
00000283 00000023 865.81 194.16 462.58 684.61 955.59 455.70 1180.06 444.60 1056.29 582.32 978.39 700.07 1177.06 690.54
00000284 00000024 873.15 199.10 465.86 672.40 962.45 457.43 1190.98 448.56 1065.03 587.79 984.72 700.50 1184.28 692.23
00000285 00000025 876.27 203.30 467.55 666.07 963.91 459.36 1194.74 453.13 1067.91 596.74 989.38 705.24 1183.42 699.34
00000286 00000026 876.54 205.63 468.08 670.05 964.24 461.87 1193.95 456.92 1067.16 601.28 991.12 711.65 1179.39 707.34
00000287 00000027 875.46 206.18 469.07 673.49 963.73 462.60 1193.37 460.76 1065.17 603.79 991.75 719.04 1169.55 718.24
00000288 00000028 874.18 204.56 468.51 678.70 960.26 464.40 1191.59 460.83 1063.37 604.24 992.12 727.32 1162.07 725.71
00000289 00000029 870.45 201.09 469.17 690.46 958.03 461.21 1185.94 457.52 1058.92 599.63 989.75 728.67 1152.53 727.28
00000290 00000030 865.20 198.98 473.65 703.45 957.75 458.04 1182.92 455.06 1056.87 591.86 986.13 729.92 1144.64 729.29
00000291 00000031 863.76 193.89 473.96 702.45 954.20 458.71 1181.04 452.17 1055.83 589.55 985.02 727.88 1147.55 724.12
00000292 00000032 863.62 190.43 477.32 698.74 952.74 455.18 1185.19 451.84 1056.47 591.95 976.70 720.12 1156.77 718.19
00000293 00000033 863.48 189.93 478.91 695.26 953.39 455.50 1184.94 454.38 1055.34 596.86 976.63 718.09 1156.09 717.79
00000294 00000034 869.34 195.12 478.23 693.17 957.15 456.36 1187.89 461.58 1054.80 607.29 981.19 726.55 1151.80 732.46
00000295 00000035 864.78 198.52 476.64 692.78 953.37 462.28 1185.24 465.81 1050.98 609.02 977.60 729.53 1145.88 733.66
00000296 00000036 861.85 198.43 481.04 697.34 951.02 461.43 1181.84 465.73 1047.36 609.75 976.94 730.95 1141.42 736.15
00000297 00000037 860.37 195.97 482.58 695.64 948.29 459.49 1179.18 463.86 1044.11 607.77 972.42 726.02 1141.43 731.01
00000298 00000038 859.99 195.55 483.04 699.35 946.86 458.21 1177.36 462.65 1040.52 607.54 968.64 725.08 1140.88 730.00
00000299 00000039 861.12 197.91 486.88 700.54 947.77 464.13 1180.19 467.36 1037.90 610.28 966.23 725.34 1149.24 729.96
00000300 00000040 863.80 204.29 486.54 696.67 948.96 466.81 1182.73 473.67 1040.34 616.28 963.44 724.94 1155.78 732.66
00000301 00000041 864.04 207.72 486.68 694.33 948.70 470.86 1182.75 478.63 1039.10 616.98 959.43 724.59 1156.00 733.04
00000302 00000042 866.10 207.20 485.74 693.20 948.77 468.03 1182.58 477.21 1037.07 614.94 957.02 721.07 1156.33 730.75
00000303 00000043 866.40 205.72 485.78 690.99 949.62 463.97 1182.59 474.45 1036.78 612.55 956.71 717.19 1155.84 728.05
00000304 00000044 868.38 203.19 483.33 690.11 948.80 460.20 1181.71 472.00 1034.14 610.59 955.48 714.26 1155.26 726.22
00000305 00000045 862.84 201.60 484.51 690.80 945.99 461.55 1178.81 473.61 1033.52 611.61 952.22 714.15 1151.61 726.21
00000306 00000046 855.96 200.17 487.08 687.86 942.69 468.22 1173.15 479.07 1030.44 610.58 948.96 713.87 1147.66 724.61
00000307 00000047 851.02 196.52 488.80 687.37 936.74 464.25 1165.30 472.16 1021.97 604.81 943.67 710.86 1140.52 719.14
00000308 00000048 850.19 197.08 480.35 675.37 928.70 457.25 1164.41 466.82 1019.85 597.49 945.01 704.02 1141.90 712.37
00000309 00000049 846.01 195.87 480.82 676.16 924.74 456.89 1162.44 461.68 1019.18 596.40 944.61 704.61 1143.97 708.77
00000310 00000050 839.29 195.61 490.56 707.09 929.07 460.74 1162.73 463.75 1016.96 600.88 937.40 715.01 1143.43 718.56
00000311 00000051 839.70 197.78 486.47 726.81 929.00 467.57 1166.75 469.71 1017.47 604.93 940.65 734.94 1142.05 737.63
00000312 00000052 845.21 197.09 480.74 723.51 933.34 465.58 1167.68 465.78 1033.97 609.18 952.29 739.68 1144.20 741.05
00000313 00000053 840.33 202.27 486.31 695.56 929.46 464.47 1174.42 469.34 1032.65 608.77 954.49 739.46 1133.66 744.48
00000314 00000054 841.66 193.74 481.37 716.07 931.29 461.87 1166.48 461.30 1037.01 607.95 960.76 739.06 1133.24 739.88
00000315 00000055 839.27 195.76 480.82 720.48 928.46 460.41 1165.34 461.76 1034.43 610.43 954.07 737.85 1134.45 740.12
00000316 00000056 836.77 197.99 480.82 719.86 926.85 464.17 1162.74 464.65 1032.64 612.06 951.45 738.65 1136.30 740.08
00000317 00000057 832.59 199.80 485.67 721.98 923.62 469.50 1158.02 466.15 1026.25 615.52 952.17 741.96 1139.18 739.97
00000318 00000058 831.09 203.41 485.41 724.47 921.20 474.36 1156.26 470.71 1022.76 617.20 946.10 742.47 1142.27 739.78
00000319 00000059 830.99 206.06 485.86 726.14 921.40 480.58 1157.33 477.63 1021.30 620.61 941.18 742.47 1149.46 739.95
00000320 00000060 833.05 209.67 483.44 721.57 921.37 484.86 1157.66 482.07 1021.21 626.00 940.00 743.68 1154.20 741.23
00000321 00000061 832.76 212.88 484.11 713.36 920.68 486.66 1158.33 484.58 1021.55 631.68 943.29 745.34 1151.63 743.69
00000322 00000062 836.71 214.95 483.09 703.45 922.86 487.50 1158.67 487.35 1024.45 633.26 951.98 751.40 1135.28 752.14
00000323 00000063 838.76 216.11 480.65 700.82 929.88 495.94 1157.80 498.14 1027.68 628.06 954.06 754.83 1119.35 758.41
00000324 00000064 840.80 215.35 479.34 720.57 937.80 494.65 1153.66 499.29 1024.97 619.84 956.57 759.39 1106.95 765.59
00000325 00000065 830.11 221.79 498.20 722.76 940.68 482.51 1165.12 492.67 1019.71 615.28 952.02 759.74 1101.07 770.58
00000326 00000066 833.43 216.61 496.43 729.96 942.47 474.62 1167.18 487.61 1022.99 614.62 952.95 757.51 1105.77 770.58
00000327 00000067 837.14 207.66 494.29 736.17 940.75 465.03 1172.02 478.39 1025.91 613.30 951.96 754.81 1117.40 768.20
00000328 00000068 845.05 198.50 488.38 736.78 937.95 464.54 1172.86 471.44 1025.14 609.94 953.64 749.96 1117.94 757.79
00000329 00000069 845.47 198.70 491.38 732.47 942.72 462.61 1176.67 468.46 1031.81 606.10 959.42 747.79 1119.37 754.71
00000330 00000070 847.22 199.45 491.52 721.08 947.22 461.44 1180.80 468.24 1038.54 606.60 964.53 743.04 1124.84 750.61
00000331 00000071 852.69 198.11 482.09 717.31 951.92 460.86 1183.78 472.15 1049.61 610.68 969.88 742.35 1129.54 753.95
00000332 00000072 856.98 202.63 480.63 708.24 956.46 463.04 1189.96 478.89 1055.43 616.74 971.39 741.69 1134.18 757.16
00000333 00000073 857.02 204.66 482.00 702.59 959.90 465.20 1193.71 481.39 1061.19 615.86 974.18 739.65 1137.66 755.28
00000334 00000074 856.40 203.57 484.19 704.81 960.07 464.44 1195.31 481.41 1062.48 616.23 973.44 739.51 1138.76 755.60
00000335 00000075 854.51 202.89 485.39 706.27 958.55 463.83 1193.57 481.65 1059.48 616.73 971.57 738.95 1137.07 755.78
00000336 00000076 851.44 206.33 492.67 704.26 954.65 470.10 1191.34 482.83 1050.02 616.08 967.03 743.10 1132.88 755.81
00000337 00000077 851.13 206.27 493.60 716.77 955.00 469.69 1189.98 482.13 1048.44 615.08 967.70 747.26 1127.82 759.89
00000338 00000078 842.75 203.53 495.71 723.80 945.46 466.77 1181.39 479.22 1035.60 615.13 956.81 747.97 1117.13 760.70
00000339 DELETE   839.20 199.10 481.95 725.58 924.81 462.07 1149.14 472.40 1007.50 614.15 943.92 743.81 1099.96 754.60
00000340 00000080 827.49 204.85 479.41 720.81 903.40 466.26 1133.18 479.81 981.19 616.80 917.99 748.33 1078.08 761.91
00000341 00000081 822.70 208.00 480.76 716.16 902.12 468.91 1132.53 481.81 984.16 620.07 918.90 749.34 1080.30 762.38
00000342 00000082 823.70 203.71 484.99 717.16 909.49 469.72 1137.23 474.08 995.14 613.33 933.45 746.53 1094.22 752.28
00000343 00000083 825.80 202.05 487.72 712.30 912.27 470.88 1141.87 473.10 1000.04 614.61 936.92 741.74 1106.21 745.15
00000344 00000084 829.55 203.12 488.89 709.34 915.30 470.53 1149.14 475.96 1004.09 616.66 932.64 736.12 1118.17 741.41
00000345 00000085 833.32 208.75 488.63 696.42 919.69 470.64 1158.64 482.21 1011.08 620.52 936.87 730.69 1125.05 740.79
00000346 00000086 838.50 208.91 485.71 691.97 922.71 468.11 1161.99 480.52 1013.73 618.46 941.47 732.13 1126.45 743.27
00000347 00000087 843.03 209.49 484.15 686.84 927.23 466.52 1167.04 481.53 1019.48 618.43 945.72 731.17 1127.95 744.67
00000348 00000088 845.39 210.49 484.40 687.69 930.05 465.37 1169.36 481.26 1022.95 620.87 949.07 732.95 1128.71 747.22
00000349 00000089 846.64 206.46 491.08 703.36 937.36 469.41 1174.38 480.57 1026.96 622.74 953.14 737.89 1127.33 749.12
00000350 00000090 850.43 206.78 489.89 707.71 941.73 471.56 1177.72 482.09 1032.34 622.30 957.08 740.51 1129.36 751.33
00000351 00000091 854.83 210.08 487.93 712.12 945.77 473.62 1181.48 485.44 1035.81 623.44 959.22 744.42 1131.54 756.43
00000352 00000092 857.54 212.78 486.10 720.12 946.58 474.38 1181.97 486.15 1035.64 625.26 961.70 751.58 1130.34 763.68
00000353 00000093 859.47 211.30 486.25 722.54 949.03 473.63 1182.97 485.59 1036.60 624.47 963.20 751.34 1131.25 763.67
00000354 00000094 858.87 218.06 489.66 725.74 957.30 472.84 1188.80 485.42 1045.30 627.18 964.40 749.55 1144.98 761.92
00000355 00000095 863.40 217.61 484.18 738.03 959.18 473.51 1191.31 487.34 1044.46 626.78 961.11 749.11 1161.71 761.30
00000356 00000096 863.11 219.32 486.99 742.94 959.58 476.89 1191.47 491.68 1042.94 628.87 959.92 748.72 1165.72 761.39
00000357 00000097 859.77 222.02 490.70 730.49 955.61 477.51 1188.92 492.28 1039.61 633.94 956.78 745.35 1156.92 758.56
00000358 00000098 854.62 211.42 491.02 719.98 937.20 478.77 1173.89 495.17 1019.77 637.00 946.32 743.54 1135.52 759.44
00000359 00000099 844.92 216.29 489.97 708.26 926.76 477.37 1166.90 495.89 1009.95 637.63 933.45 741.73 1130.20 759.18
00000360 00000100 837.23 215.33 489.35 703.04 924.88 476.51 1167.45 494.55 1013.79 636.74 932.05 740.29 1129.86 757.01
00000361 00000101 836.94 209.72 485.60 705.14 931.42 467.86 1165.05 481.75 1030.06 632.00 945.84 733.05 1135.13 745.16
00000362 00000102 833.44 207.99 488.61 692.82 926.39 468.85 1168.47 484.11 1024.00 625.99 941.97 726.39 1136.02 739.52
00000363 00000103 828.94 200.16 489.90 703.19 919.76 464.04 1157.32 474.90 1014.66 619.59 932.59 716.25 1140.75 725.05
00000364 00000104 825.86 197.99 490.47 704.39 915.26 464.52 1154.35 473.02 1011.17 617.35 926.85 715.67 1141.03 722.48
00000365 00000105 825.69 198.96 488.70 712.25 913.50 466.30 1153.12 474.45 1006.78 617.68 922.25 719.83 1142.38 726.18
00000366 00000106 827.14 197.27 488.07 726.18 911.21 464.67 1148.26 471.33 998.78 615.28 922.66 728.63 1136.57 733.96
00000367 00000107 825.97 197.10 489.62 718.75 908.87 465.79 1146.89 472.67 996.27 618.14 922.83 729.89 1130.33 735.55
00000368 00000108 822.99 196.89 493.76 721.58 910.21 463.85 1148.06 473.41 998.58 618.93 923.28 729.43 1122.64 737.92
00000369 00000109 822.51 196.07 495.96 724.27 911.01 461.70 1151.09 473.78 999.86 618.76 919.92 727.09 1124.28 737.62
00000370 00000110 824.24 196.35 495.72 717.13 913.20 459.03 1153.65 474.38 1003.53 619.14 921.21 726.87 1120.71 740.62
00000371 00000111 825.00 199.11 490.19 710.41 916.20 459.16 1151.84 475.62 1006.03 619.86 926.39 727.13 1112.01 742.42
00000372 00000112 824.82 200.30 488.48 709.14 915.76 460.47 1150.96 475.86 1007.22 620.22 928.70 729.66 1110.41 744.19
00000373 00000113 825.17 197.99 491.98 712.64 916.79 459.84 1154.73 473.64 1010.70 619.28 929.18 727.24 1120.61 739.84
00000374 00000114 827.63 196.82 495.45 716.01 921.57 463.51 1159.86 472.82 1019.63 618.64 936.70 726.82 1133.25 735.08
00000375 00000115 833.86 205.45 494.91 704.67 927.93 469.66 1171.59 481.57 1027.09 627.59 947.14 731.92 1138.63 742.55
00000376 00000116 835.83 208.90 496.33 702.27 928.60 472.32 1173.48 482.14 1025.99 633.21 947.27 736.73 1139.31 746.15
00000377 00000117 840.38 209.48 496.39 697.81 932.24 475.16 1177.02 483.23 1030.27 633.07 951.89 737.62 1143.00 745.62
00000378 00000118 845.17 209.84 496.62 699.08 938.48 477.34 1180.56 484.52 1035.40 630.66 956.91 736.66 1148.66 744.01
00000379 00000119 849.08 213.19 492.98 691.97 945.11 494.30 1181.94 501.15 1040.58 628.30 957.85 738.03 1152.50 745.01
00000380 00000120 853.26 213.65 486.84 683.20 951.31 493.43 1183.15 502.71 1045.42 615.80 965.74 735.76 1153.00 743.29
00000381 00000121 850.78 212.80 488.05 687.68 946.21 487.23 1181.80 496.17 1042.08 618.13 965.57 741.46 1146.83 749.20
00000382 00000122 844.73 209.42 491.05 697.07 938.91 481.61 1177.64 489.48 1037.68 622.30 961.75 744.35 1140.38 751.50
00000383 00000123 839.01 207.75 494.11 705.76 933.28 476.37 1172.49 484.19 1031.22 624.91 956.92 744.96 1136.62 752.31
00000384 00000124 836.83 208.25 493.21 709.01 927.01 476.07 1168.04 480.86 1025.19 622.27 953.54 749.06 1130.18 754.03
00000385 00000125 834.68 206.65 490.88 701.96 924.60 475.08 1166.12 479.28 1022.95 620.28 950.19 744.35 1128.41 748.95
00000386 00000126 832.75 205.05 490.14 694.85 922.05 472.82 1163.96 476.80 1020.91 617.74 947.89 739.37 1126.91 743.75
00000387 00000127 831.97 195.57 487.41 708.69 922.76 467.88 1154.27 467.19 1021.94 612.75 951.88 738.07 1125.50 738.71
00000388 00000128 827.07 201.76 482.21 703.74 914.05 464.88 1150.33 465.90 1012.41 610.52 941.25 742.48 1115.09 743.87
00000389 00000129 821.85 201.69 483.66 699.91 908.83 462.52 1146.44 466.73 1005.10 609.67 933.64 738.72 1106.20 743.30
00000390 00000130 817.06 200.10 486.81 702.21 908.39 461.08 1146.37 468.27 1003.76 603.68 927.55 734.71 1100.65 742.28
00000391 00000131 809.93 200.38 489.80 707.08 903.04 463.40 1140.83 469.14 999.19 601.72 922.18 737.00 1093.62 743.61
00000392 00000132 802.39 197.21 489.51 708.31 896.35 461.45 1133.89 470.98 991.34 605.22 914.03 734.65 1083.45 744.39
00000393 00000133 788.95 191.62 492.88 714.90 887.31 460.20 1120.92 471.53 979.80 604.32 903.27 731.40 1068.52 742.44
00000394 00000134 777.21 190.84 501.63 706.42 877.02 461.40 1111.12 462.47 968.38 596.00 896.01 732.29 1058.58 735.36
00000395 00000135 764.46 185.82 506.62 716.43 866.86 458.43 1099.90 456.65 957.15 591.95 892.77 731.88 1051.97 732.30
00000396 00000136 756.23 186.91 510.74 718.24 859.47 459.52 1090.43 452.74 948.20 585.50 888.55 731.83 1047.31 727.82
00000397 00000137 758.57 184.75 497.83 729.12 850.40 460.11 1077.81 452.90 940.60 594.71 885.37 734.79 1045.28 730.29
00000398 00000138 755.83 189.10 493.74 724.81 844.77 466.68 1071.76 455.86 936.66 600.68 882.99 739.84 1042.76 732.47
00000399 00000139 755.01 191.28 496.73 725.14 841.65 470.73 1069.89 457.14 933.24 605.77 880.77 742.15 1049.03 731.82
00000400 00000140 755.55 191.78 497.15 723.64 838.87 474.68 1072.77 457.75 934.08 607.79 876.76 741.21 1066.02 727.11
00000401 00000141 754.53 189.56 496.51 722.22 839.64 478.96 1072.89 459.37 935.37 605.48 874.65 735.72 1075.38 718.89
00000402 00000142 751.51 199.30 491.34 702.59 835.83 477.49 1076.47 454.45 942.62 602.47 879.42 732.45 1082.35 713.03
00000403 00000143 743.76 197.35 494.74 695.62 828.63 474.86 1069.03 447.10 938.12 598.51 878.74 728.40 1079.42 704.70
00000404 00000144 726.06 195.69 504.66 687.96 814.77 476.89 1052.94 441.12 927.84 595.72 874.15 726.64 1068.31 696.61
00000405 00000145 716.19 196.56 505.98 684.91 800.22 477.83 1038.09 437.18 914.49 593.81 865.01 727.04 1059.67 692.48
00000406 DELETE   703.93 192.70 509.09 690.13 787.08 477.81 1024.93 435.65 898.63 593.79 853.64 729.32 1046.48 694.91
00000407 00000147 690.42 193.88 513.28 690.89 775.50 484.81 1010.19 436.95 884.04 596.66 847.30 738.39 1034.00 698.76
00000408 00000148 675.12 192.99 518.15 698.55 762.23 488.63 997.86 438.29 872.37 599.61 840.86 752.78 1012.67 711.64
00000409 00000149 664.52 196.80 515.97 696.24 749.37 482.09 983.84 431.94 858.52 600.99 832.07 742.71 1008.70 700.86
00000410 00000150 657.37 197.55 517.53 699.28 742.68 481.75 977.08 434.37 854.57 605.38 824.24 742.73 1001.43 703.90
00000411 00000151 649.78 199.06 516.33 701.42 735.53 483.90 972.00 441.18 849.88 610.69 813.50 749.41 987.44 715.09
00000412 00000152 640.92 207.20 512.64 696.78 730.08 485.39 962.48 449.82 842.46 613.96 804.70 752.27 968.84 724.14
00000413 00000153 639.60 208.70 509.12 693.92 722.82 490.04 957.46 453.18 834.51 618.37 792.66 749.33 969.64 719.72
00000414 00000154 638.74 211.76 508.63 687.36 719.53 492.13 952.73 454.45 829.78 620.30 788.66 745.31 970.51 714.71
00000415 00000155 636.41 214.08 513.48 683.37 719.32 494.10 950.77 454.07 828.28 618.69 790.45 742.97 975.03 710.08
00000416 00000156 639.06 214.73 513.39 678.47 720.02 493.59 950.98 450.50 827.55 616.15 793.39 741.05 980.20 705.33
00000417 00000157 640.70 211.22 514.13 690.30 723.04 491.15 954.56 447.48 831.26 613.89 796.32 742.46 986.22 706.17
00000418 00000158 643.67 210.28 514.41 701.03 728.78 487.86 961.25 446.68 836.62 614.03 800.39 746.80 986.28 712.98
00000419 00000159 647.98 211.71 510.47 694.08 730.43 488.18 964.71 450.74 838.65 616.68 800.22 748.15 981.41 717.84
00000420 00000160 657.20 214.31 503.41 691.66 737.50 499.80 967.52 460.42 840.44 616.39 802.18 749.09 982.25 717.52
00000421 00000161 667.32 208.77 502.77 695.45 748.92 509.79 967.84 466.93 840.25 615.80 803.10 752.16 983.00 717.20
00000422 00000162 670.05 209.49 502.28 691.28 748.94 503.50 968.78 464.11 839.29 615.17 802.00 745.22 983.28 713.02
00000423 00000163 666.30 205.37 508.16 697.63 749.92 496.29 971.05 456.91 844.79 616.96 812.34 747.31 988.91 714.52
00000424 00000164 667.72 214.61 498.10 685.64 740.49 492.72 968.98 449.83 840.10 616.90 807.86 746.90 994.19 711.32
00000425 00000165 669.12 214.92 495.88 675.93 739.85 485.63 968.11 445.76 835.17 609.51 803.43 740.51 986.67 707.30
00000426 00000166 670.11 211.57 494.75 672.10 740.93 479.47 967.28 443.21 832.62 603.58 804.05 737.07 977.30 706.87
