Video ID: 	k8v84GopFTI
H: 	1080
W: 	1920
FPS: 	23.976023976023978

FRAME INDEX X0 Y0 W H [Landmarks (5 Points)]

00003579 00000000 539.05 174.92 451.77 649.43 753.41 440.45 933.24 410.97 922.03 539.08 811.20 680.65 950.27 653.71
00003580 00000001 541.48 172.77 449.88 650.57 754.16 435.10 933.46 408.22 921.01 535.59 813.79 680.94 949.30 656.43
00003581 00000002 540.84 173.33 450.68 650.45 755.68 433.51 935.04 410.11 920.38 536.15 811.77 680.04 946.98 658.36
00003582 00000003 543.16 181.31 452.16 641.42 755.66 433.66 938.98 409.89 922.47 539.72 811.94 680.28 950.15 658.21
00003583 00000004 544.26 182.59 453.77 637.68 756.46 433.16 942.55 409.96 923.72 540.72 809.12 677.59 951.41 656.31
00003584 00000005 544.05 181.33 454.82 641.46 759.14 433.30 940.61 411.20 925.03 540.58 808.54 674.93 949.77 654.73
00003585 00000006 547.07 181.76 452.49 642.06 762.32 434.24 941.11 414.66 925.61 540.36 809.24 674.48 947.70 656.63
00003586 00000007 556.78 157.17 444.54 662.48 758.02 438.64 935.88 416.26 914.00 544.84 814.34 674.90 945.64 657.30
00003587 00000008 556.36 151.28 445.63 665.08 758.71 438.20 936.76 414.13 915.41 546.08 816.60 674.98 947.27 655.94
00003588 00000009 554.32 152.65 446.48 663.76 757.17 434.49 934.91 411.52 914.12 543.89 813.24 673.72 944.49 655.60
00003589 00000010 553.29 154.98 447.98 664.72 754.53 431.31 933.52 410.51 911.42 543.24 809.59 673.34 942.90 656.92
00003590 00000011 552.71 157.49 448.04 659.58 753.75 429.90 932.99 410.00 910.02 542.10 810.28 671.87 942.90 656.11
00003591 00000012 551.86 157.49 448.32 655.35 753.75 427.59 934.38 409.34 910.43 542.50 810.91 671.27 942.84 656.80
00003592 00000013 551.29 157.14 449.04 657.36 752.99 427.62 934.26 410.77 908.76 543.23 809.71 672.19 941.98 658.82
00003593 00000014 545.50 180.03 448.14 630.81 757.07 426.76 940.13 411.44 919.19 540.72 807.54 673.35 942.06 658.63
00003594 00000015 544.52 182.81 447.93 627.26 754.67 427.35 938.95 412.56 916.77 541.25 806.10 674.42 940.28 659.92
00003595 00000016 542.62 185.76 447.93 625.10 752.38 427.66 937.33 411.34 914.60 541.84 803.61 674.27 939.02 658.49
00003596 00000017 541.55 186.47 449.60 625.56 751.08 428.95 936.39 410.73 913.59 542.14 803.07 674.83 939.52 657.41
00003597 00000018 542.68 182.72 449.92 630.30 753.25 430.35 937.76 412.54 916.02 543.23 805.50 675.97 940.77 658.86
00003598 00000019 549.65 162.82 446.26 652.23 752.76 441.70 932.47 425.59 906.58 546.14 810.12 675.45 938.94 663.07
00003599 00000020 549.96 171.16 446.22 642.85 752.23 447.34 931.21 431.38 904.05 546.90 809.51 677.64 935.63 665.83
00003600 DELETE   545.31 195.20 446.56 619.29 749.87 442.21 933.90 427.23 907.46 545.89 800.45 678.27 934.35 663.42
00003601 DELETE   540.01 180.98 445.23 633.55 741.56 433.75 928.29 420.93 901.16 542.70 791.14 676.43 928.13 663.59
00003602 00000023 537.30 181.63 446.82 635.02 731.35 428.96 924.88 409.87 893.10 542.75 784.42 677.82 926.77 659.26
00003603 00000024 535.76 178.33 445.01 642.24 724.37 425.08 920.84 405.07 887.08 542.04 780.83 681.53 923.98 662.19
00003604 00000025 535.67 179.35 442.36 638.17 724.75 427.98 920.22 407.41 886.59 543.49 783.67 681.85 925.41 661.78
00003605 00000026 535.54 175.54 443.03 642.74 725.44 432.39 920.86 410.25 888.36 545.99 786.76 684.12 928.35 662.42
00003606 00000027 533.91 172.37 447.67 654.31 725.63 432.77 920.91 410.78 888.23 549.07 783.54 685.42 926.17 664.23
00003607 00000028 532.13 186.77 449.51 650.15 723.52 435.61 919.53 411.73 884.57 551.32 776.22 686.51 925.04 664.02
00003608 00000029 529.38 193.13 449.84 649.60 719.74 441.40 918.23 414.23 883.19 558.53 768.74 690.49 921.04 665.65
00003609 00000030 525.99 193.46 450.74 657.65 717.85 446.06 916.75 415.98 885.96 567.97 760.68 696.72 917.18 670.25
00003610 00000031 526.11 196.93 448.37 655.04 715.61 449.45 914.86 420.03 884.20 573.15 758.55 697.64 915.76 672.01
00003611 00000032 527.86 198.29 446.63 650.61 716.38 450.80 915.15 423.05 882.19 574.38 770.21 702.66 919.92 677.35
00003612 00000033 528.70 199.15 446.46 646.73 718.21 453.34 917.52 424.96 885.36 577.11 778.84 707.36 926.17 681.18
00003613 00000034 530.29 197.49 445.68 645.65 719.41 455.70 917.15 427.29 886.24 579.95 781.40 709.09 927.04 682.89
00003614 00000035 529.49 197.85 445.07 648.30 717.76 456.92 915.18 427.75 884.95 581.80 778.93 711.45 924.61 684.86
00003615 00000036 529.84 197.66 444.91 649.83 716.82 457.17 915.83 428.60 883.29 583.80 777.78 713.17 923.71 687.09
00003616 00000037 529.94 201.34 445.06 648.52 715.82 456.76 915.13 428.75 883.20 584.17 777.77 714.17 923.87 688.66
00003617 00000038 532.83 200.54 444.89 649.16 719.12 455.62 918.50 429.73 885.01 583.52 782.11 713.71 927.03 689.62
00003618 00000039 534.98 203.83 444.03 645.32 721.54 454.19 921.03 429.60 887.57 582.25 784.08 712.03 929.69 688.80
00003619 00000040 535.52 205.22 446.26 643.11 722.03 453.90 922.91 429.74 888.30 581.66 784.20 711.19 931.92 688.14
00003620 00000041 535.65 199.48 445.27 652.32 723.48 451.97 922.73 429.34 890.21 580.43 782.94 711.78 929.37 690.41
00003621 00000042 534.49 202.04 445.50 658.41 722.93 450.99 919.65 429.02 889.83 579.54 779.89 713.64 925.59 693.19
00003622 00000043 534.95 200.74 445.30 656.26 723.21 452.76 924.14 429.36 890.17 580.60 782.01 711.65 931.25 689.27
00003623 00000044 533.69 202.48 446.63 649.35 721.21 453.31 924.39 427.83 889.87 579.72 782.43 709.87 933.41 685.64
00003624 00000045 533.50 198.51 447.63 654.37 722.84 451.75 925.88 427.43 892.19 576.88 784.70 709.72 935.83 686.41
00003625 00000046 530.78 220.51 450.28 637.20 734.48 454.08 920.21 433.88 896.19 577.99 786.05 711.85 923.69 692.94
00003626 00000047 530.13 221.52 451.21 639.03 739.56 451.92 918.51 433.37 899.56 575.41 791.16 713.31 922.30 695.87
00003627 00000048 532.09 225.95 450.47 636.35 740.47 451.04 920.66 433.71 900.98 574.45 792.90 713.67 923.87 697.09
00003628 00000049 532.45 225.55 450.46 636.97 739.66 449.73 919.72 433.03 899.43 573.60 791.66 712.13 922.61 696.14
00003629 00000050 530.99 220.81 450.54 641.07 737.73 447.19 917.95 431.48 897.21 570.81 789.37 710.08 920.23 695.01
00003630 00000051 529.22 218.20 450.98 642.44 735.28 444.77 913.58 429.42 894.27 565.04 788.44 707.13 916.75 692.38
00003631 00000052 532.39 194.78 445.68 661.25 728.01 436.67 917.63 416.79 892.83 556.27 791.70 703.32 926.92 684.07
00003632 00000053 530.67 197.12 448.31 648.50 726.22 435.25 920.01 412.79 892.78 555.74 794.18 701.47 931.22 679.63
00003633 00000054 530.73 199.71 447.78 641.96 725.80 435.38 919.75 412.47 892.16 554.55 794.63 699.94 931.66 677.79
00003634 00000055 529.51 202.77 448.00 639.63 732.08 449.15 917.22 427.17 892.15 556.36 792.96 698.32 927.47 677.74
00003635 00000056 530.49 205.64 449.26 638.20 730.72 450.86 916.12 430.15 883.46 553.96 783.88 694.50 920.17 675.29
00003636 00000057 530.41 203.10 446.78 638.69 729.02 452.75 913.32 434.13 878.91 551.83 777.14 689.76 915.90 672.27
00003637 00000058 527.71 201.36 446.24 639.78 721.60 452.68 907.85 431.25 872.26 551.84 772.59 689.83 912.64 669.98
00003638 00000059 527.99 196.94 444.40 643.49 714.03 448.92 903.43 431.39 862.94 551.59 762.74 687.39 904.02 670.68
00003639 00000060 518.41 172.59 452.10 658.09 701.50 451.31 896.12 432.21 847.53 556.47 744.10 680.99 889.57 665.70
00003640 00000061 515.12 169.91 454.64 647.21 694.06 443.80 891.54 433.54 833.28 552.69 729.69 672.23 876.44 664.74
00003641 00000062 515.07 167.55 456.54 653.18 691.21 432.13 889.06 436.72 822.21 548.25 707.99 664.91 859.46 670.21
00003642 DELETE   521.45 180.77 452.34 651.96 702.29 417.76 895.46 437.41 826.11 544.95 706.99 662.28 851.01 677.13
00003643 DELETE   523.47 161.93 458.32 661.87 705.18 426.70 900.31 436.11 835.93 550.15 717.98 664.72 866.53 673.19
00003644 DELETE   526.05 192.13 456.26 643.15 713.65 424.78 907.85 439.63 845.52 552.03 723.92 666.13 871.10 677.00
00003645 00000066 529.96 199.33 452.65 636.11 717.14 433.75 907.86 445.15 848.96 554.41 731.82 671.79 875.69 679.77
00003646 00000067 528.75 209.30 456.03 629.23 711.33 442.60 907.66 446.29 846.90 562.79 735.38 679.99 882.68 681.46
00003647 00000068 529.85 198.64 457.23 644.16 710.95 446.08 907.60 447.49 848.95 565.14 743.33 685.10 888.28 684.18
00003648 00000069 528.81 190.72 461.49 653.96 715.81 444.35 913.76 444.31 855.66 569.45 747.30 688.97 891.33 686.73
00003649 00000070 530.53 188.50 462.65 661.74 716.69 444.54 913.90 445.01 857.14 572.29 743.75 690.09 890.68 688.52
00003650 00000071 532.39 186.52 461.89 666.81 718.70 441.46 916.56 445.48 858.42 575.28 743.02 692.04 890.09 693.31
00003651 00000072 533.43 188.31 460.74 663.00 715.25 443.13 916.09 447.24 855.67 580.35 743.77 696.24 890.64 697.35
00003652 00000073 533.51 188.89 458.01 657.63 713.81 443.29 915.19 448.74 852.50 583.48 741.41 698.32 887.21 700.26
00003653 00000074 531.96 185.42 459.47 661.44 709.21 443.28 914.36 449.03 848.80 584.39 736.32 698.93 885.49 701.01
00003654 00000075 533.03 187.88 459.25 659.95 709.98 443.34 916.16 449.23 849.28 586.63 735.64 700.79 885.60 703.15
00003655 00000076 534.05 194.00 458.76 653.45 712.71 444.31 917.85 449.52 851.69 589.54 738.45 702.72 886.97 704.61
00003656 00000077 534.57 191.51 460.41 656.06 714.55 444.97 918.12 449.19 853.44 590.38 741.85 704.25 887.28 705.50
00003657 00000078 535.06 190.67 460.78 656.94 715.23 445.39 918.70 450.06 853.50 590.67 741.83 703.45 887.84 705.11
00003658 00000079 535.83 189.80 460.80 657.35 712.48 446.29 919.11 450.25 852.02 591.98 737.14 700.17 890.37 701.30
00003659 00000080 536.05 191.21 460.58 658.75 712.45 447.14 918.91 451.41 850.62 594.37 734.06 700.25 890.58 701.83
00003660 00000081 536.05 182.73 461.20 675.32 715.10 447.14 917.74 454.24 851.46 596.66 734.13 706.61 882.98 710.56
00003661 00000082 536.66 190.85 460.62 676.60 721.87 446.75 918.48 455.82 855.77 598.78 737.95 710.94 878.54 716.90
00003662 00000083 536.28 189.41 461.60 678.96 722.21 447.06 918.79 456.68 856.45 598.88 734.80 710.39 877.86 717.03
00003663 00000084 536.73 190.33 460.60 669.25 719.57 447.52 918.32 454.87 854.87 597.46 734.80 706.02 881.99 710.60
00003664 00000085 535.44 187.27 460.93 669.10 716.77 446.88 917.62 454.09 853.03 595.14 734.20 703.45 883.30 707.72
00003665 00000086 534.29 191.16 459.68 664.71 714.35 446.50 917.09 453.28 851.94 594.79 732.88 702.84 883.24 706.59
00003666 00000087 535.60 191.22 458.67 663.34 715.21 446.70 917.33 453.13 852.25 594.20 738.73 706.16 883.68 709.22
00003667 00000088 536.00 191.46 459.06 655.86 715.16 445.14 916.89 450.87 851.11 591.42 743.88 705.21 884.31 707.33
00003668 00000089 535.41 190.28 462.10 655.26 713.73 443.07 917.57 447.63 850.87 586.93 743.99 701.13 887.14 702.22
00003669 00000090 534.44 192.83 462.27 647.25 713.54 441.29 918.26 444.42 851.61 582.84 746.04 698.91 890.42 698.53
00003670 00000091 532.58 189.24 464.34 653.86 712.82 438.84 917.07 441.99 851.65 579.51 744.17 697.43 888.52 697.34
00003671 00000092 532.79 188.15 459.98 665.03 721.69 440.85 913.09 449.71 854.57 574.55 747.90 696.49 877.03 701.97
00003672 00000093 530.70 192.09 463.39 663.57 721.92 443.68 913.71 451.54 856.16 570.82 747.30 696.15 878.29 701.22
00003673 00000094 530.15 190.94 466.72 663.34 722.17 447.63 917.47 452.82 858.14 577.28 747.86 693.77 889.84 695.81
00003674 00000095 533.54 194.68 465.33 658.64 725.58 452.71 921.83 455.69 862.31 582.81 752.76 699.04 895.84 699.07
00003675 00000096 538.17 197.55 461.04 657.58 728.59 457.19 921.92 457.72 867.06 588.94 757.02 703.46 900.73 701.42
00003676 00000097 540.23 193.92 458.49 669.57 730.17 460.21 920.23 461.34 869.38 592.72 750.01 706.85 895.77 706.06
00003677 00000098 540.08 199.66 458.12 669.47 728.81 464.28 918.52 464.31 867.14 597.60 746.97 711.31 893.11 709.95
00003678 00000099 539.99 206.03 457.58 663.03 726.94 469.68 917.55 469.27 864.62 603.16 745.90 714.41 892.67 712.81
00003679 00000100 540.72 212.00 455.19 654.95 726.26 478.04 915.19 476.95 860.11 605.15 744.80 715.95 890.78 714.18
00003680 00000101 539.45 210.98 456.50 653.01 725.86 478.96 916.01 475.18 861.88 605.08 746.44 715.46 891.90 711.57
00003681 00000102 539.25 209.24 456.58 655.51 725.98 468.77 916.52 467.63 862.98 599.87 747.14 713.56 892.10 711.20
00003682 00000103 540.00 196.24 460.63 669.28 728.01 453.95 921.37 456.85 866.35 597.47 749.58 709.81 893.00 710.30
00003683 00000104 540.48 203.67 458.21 655.77 725.24 450.00 921.75 451.05 866.11 594.48 755.44 710.63 896.57 709.18
00003684 00000105 539.07 197.42 458.23 656.60 721.96 448.14 922.31 449.59 863.20 592.71 757.28 708.71 899.13 707.24
00003685 00000106 536.57 196.78 457.26 654.70 719.49 445.30 920.11 447.10 860.31 588.37 752.72 705.53 894.72 704.37
00003686 00000107 532.61 193.77 457.51 656.99 716.29 442.39 915.81 444.61 856.32 583.66 743.41 697.72 890.18 697.01
00003687 00000108 531.26 189.15 456.69 653.14 711.92 437.26 914.23 438.90 852.10 573.46 736.63 688.17 887.47 687.35
00003688 00000109 528.18 187.54 453.81 646.83 707.40 431.86 908.10 434.57 846.10 563.76 730.62 679.74 882.87 679.86
00003689 00000110 527.01 190.16 450.06 640.64 704.87 428.74 904.10 431.39 843.97 560.33 726.27 676.33 880.46 676.48
00003690 00000111 525.93 187.73 449.67 641.56 703.86 426.22 902.85 430.71 842.50 558.71 721.25 673.00 878.47 674.73
00003691 00000112 523.96 185.64 450.42 647.23 703.17 424.17 901.88 430.43 839.98 557.56 715.79 670.73 876.62 673.91
00003692 00000113 522.25 180.85 452.61 656.95 703.08 422.53 901.41 429.27 839.41 557.55 714.24 670.32 875.42 673.81
00003693 00000114 523.10 181.36 452.36 662.17 703.64 420.81 900.21 428.86 838.94 556.84 713.98 672.56 871.39 676.91
00003694 00000115 522.19 185.81 452.55 657.44 705.46 419.87 901.40 429.69 839.73 555.96 716.72 674.27 869.52 680.11
00003695 00000116 523.82 178.80 456.27 660.99 704.79 420.14 906.61 429.74 841.85 556.04 722.27 673.44 875.88 678.93
00003696 00000117 526.84 184.10 455.98 654.28 705.19 420.01 909.31 426.86 844.89 556.85 728.73 672.88 884.16 676.06
00003697 00000118 528.17 184.88 453.86 651.88 706.30 419.10 909.98 426.17 845.41 555.63 729.39 672.94 884.82 676.24
00003698 00000119 527.69 183.44 453.29 656.12 707.20 418.02 907.23 424.82 843.76 554.76 727.52 672.63 879.36 675.96
00003699 00000120 526.94 183.18 451.80 659.39 708.26 419.10 904.07 427.43 842.96 555.21 719.51 671.64 874.20 676.30
00003700 00000121 526.46 181.27 453.87 662.05 704.28 419.11 902.65 428.44 839.00 555.90 712.97 670.82 872.54 676.35
00003701 00000122 526.00 177.07 453.10 661.75 697.54 417.48 899.39 426.66 829.21 553.35 706.08 669.04 868.22 674.37
00003702 00000123 521.27 152.87 457.78 669.79 685.43 420.88 891.78 427.35 818.31 554.01 700.01 665.42 863.13 671.34
00003703 00000124 520.31 157.28 452.74 661.39 677.10 423.88 883.61 431.23 807.94 556.51 691.07 665.11 854.10 672.23
00003704 00000125 519.11 166.23 448.60 651.82 672.28 424.22 880.08 434.12 802.41 557.97 685.04 666.01 846.17 675.69
00003705 00000126 518.65 169.15 448.76 650.80 671.06 422.90 879.79 434.22 799.84 558.00 685.80 668.99 842.95 679.98
00003706 00000127 519.43 188.43 443.47 643.81 672.90 419.40 880.89 433.24 797.93 553.92 686.79 673.35 840.19 682.92
00003707 00000128 520.08 181.70 444.17 656.40 675.95 421.32 881.49 435.31 801.72 550.97 693.40 675.47 842.61 685.36
00003708 00000129 523.92 165.46 447.60 671.37 683.64 430.55 885.57 437.31 811.68 547.99 707.76 678.80 853.56 685.85
00003709 DELETE   525.88 162.88 448.52 669.35 694.82 432.32 888.58 436.25 823.80 549.06 721.29 678.16 859.48 682.68
00003710 00000131 526.43 173.33 451.18 672.48 699.33 431.39 894.39 438.81 832.88 551.96 726.90 681.17 866.07 685.57
00003711 00000132 524.82 152.95 461.22 685.37 699.52 432.23 900.36 432.04 837.21 561.23 733.35 687.86 875.54 687.94
00003712 00000133 528.31 173.16 456.13 672.49 700.95 431.78 902.88 435.33 841.01 564.13 737.42 691.43 877.73 691.94
00003713 00000134 528.09 170.37 459.84 678.68 703.48 431.90 905.33 436.17 842.14 566.42 736.72 692.78 877.01 693.86
00003714 00000135 528.70 173.97 459.88 679.73 708.38 431.54 906.53 441.42 839.86 566.28 727.19 688.13 871.02 694.36
00003715 00000136 529.38 183.11 457.55 667.22 707.89 430.43 907.44 443.24 835.55 567.39 713.56 682.51 867.74 691.57
00003716 00000137 532.59 164.27 459.26 671.44 703.98 429.90 905.59 444.59 829.51 569.96 708.31 675.43 864.58 688.40
00003717 00000138 534.30 161.56 455.14 663.81 701.11 426.35 904.08 441.79 826.57 565.31 703.92 668.85 863.65 682.50
00003718 00000139 533.43 165.45 454.17 656.07 699.20 424.56 902.34 438.91 825.73 562.32 705.13 667.52 863.20 680.37
00003719 00000140 533.36 163.70 454.61 656.10 699.36 423.64 902.02 437.57 825.84 561.85 706.11 665.99 864.04 678.44
00003720 00000141 533.75 155.52 454.66 663.33 701.46 425.33 902.64 439.55 827.04 563.04 707.42 665.68 864.18 678.33
00003721 00000142 533.74 158.14 455.99 666.14 703.56 427.89 904.16 442.37 828.18 567.06 708.51 668.82 864.94 681.66
00003722 00000143 537.40 170.68 455.14 662.61 711.07 425.21 913.04 448.90 832.70 571.88 705.98 664.37 865.92 684.82
00003723 00000144 533.43 161.90 457.87 672.26 704.13 428.92 905.29 443.05 828.84 568.19 709.69 673.53 866.40 685.89
00003724 00000145 533.97 155.93 456.80 675.04 704.82 426.96 905.86 439.62 832.47 564.15 713.21 672.79 869.17 683.90
00003725 00000146 535.38 153.17 456.46 671.13 705.57 425.79 907.95 436.59 835.30 563.55 715.94 671.78 871.76 681.40
00003726 00000147 534.01 154.31 460.40 669.48 709.27 428.35 910.78 436.98 839.75 565.25 721.86 673.09 875.74 680.94
00003727 00000148 534.88 157.75 461.47 665.57 711.49 429.49 912.40 435.00 843.02 566.59 727.81 674.42 879.85 679.66
00003728 00000149 532.86 160.32 464.86 662.14 709.48 432.28 913.51 433.14 843.89 567.86 729.66 676.24 882.60 677.48
00003729 00000150 532.32 160.70 462.67 657.13 706.73 432.95 911.47 433.32 842.47 567.26 728.25 674.02 882.45 674.75
00003730 00000151 529.71 149.59 459.69 662.64 700.59 427.92 905.73 432.17 835.73 563.63 719.49 667.39 876.04 671.32
00003731 00000152 528.67 150.24 455.78 654.96 693.72 424.38 901.64 431.33 827.58 560.67 711.58 664.73 869.34 671.17
00003732 00000153 529.34 156.42 455.88 648.54 695.12 423.47 902.37 428.37 830.08 560.56 715.84 664.98 871.63 669.73
00003733 00000154 531.05 149.27 459.51 662.69 703.12 426.28 909.02 427.42 840.64 563.63 729.97 672.34 881.41 673.39
00003734 00000155 530.85 152.47 461.07 664.82 705.37 425.33 909.22 425.31 841.42 564.12 737.54 678.05 882.00 678.08
00003735 00000156 530.04 151.99 460.08 667.24 698.82 424.73 903.32 425.29 835.19 561.80 733.06 679.11 876.30 679.71
00003736 00000157 526.75 152.02 459.59 673.79 697.09 423.17 899.12 427.77 830.72 560.33 723.75 676.87 869.67 681.22
00003737 00000158 524.06 180.72 452.83 656.18 702.20 417.69 900.65 428.05 831.90 554.59 713.44 672.70 861.96 679.06
00003738 00000159 527.96 187.38 451.36 645.66 704.83 419.67 903.16 428.57 836.58 554.02 715.59 671.97 868.70 677.53
00003739 00000160 528.83 160.72 457.24 659.60 704.72 422.77 901.79 429.62 836.91 557.67 721.57 669.82 870.79 676.26
00003740 00000161 528.66 160.51 457.17 657.22 702.68 423.32 900.87 429.75 834.54 558.87 720.33 669.49 869.84 675.68
00003741 00000162 529.57 159.67 454.77 657.92 701.64 422.47 899.90 429.53 833.55 558.79 718.42 668.64 868.88 675.33
00003742 00000163 528.96 158.26 455.78 658.80 701.53 422.90 900.25 430.15 833.61 558.63 718.47 668.65 868.89 675.47
00003743 00000164 528.62 157.07 448.69 658.40 702.86 434.75 896.92 440.10 832.83 556.85 718.84 667.18 865.94 672.54
00003744 00000165 529.23 153.07 447.10 661.52 703.64 436.52 895.33 441.76 832.35 557.96 718.84 666.65 865.44 671.88
00003745 00000166 529.45 147.82 448.09 666.84 703.40 433.58 896.82 441.09 832.14 558.15 716.42 666.48 864.25 673.56
00003746 00000167 526.88 148.27 453.95 667.68 699.16 429.81 897.69 437.20 828.45 559.91 713.25 668.95 864.03 675.95
00003747 00000168 527.79 149.22 454.57 668.99 699.47 427.51 899.05 436.16 829.25 560.56 711.41 668.81 863.81 676.97
00003748 00000169 528.37 149.27 454.76 672.07 699.90 425.39 898.11 434.43 830.00 560.61 712.99 669.80 864.31 678.24
00003749 00000170 528.79 144.94 454.92 678.46 700.59 426.44 898.29 436.01 830.55 561.05 713.23 669.82 865.16 678.50
