Video ID: 	3QHmhgyUsGk
H: 	1080
W: 	1920
FPS: 	25.0

FRAME INDEX X0 Y0 W H [Landmarks (5 Points)]

00003993 00000000 833.91 240.67 363.81 500.79 932.91 441.35 1096.91 475.41 1001.22 548.66 909.67 604.60 1061.84 633.94
00003994 DELETE   837.88 236.37 369.23 504.01 945.06 437.34 1106.72 474.39 1015.29 545.93 920.37 602.25 1065.94 633.97
00003995 DELETE   843.83 213.69 380.05 521.13 961.25 429.37 1125.12 470.18 1028.43 536.56 941.63 603.63 1066.53 637.78
00003996 DELETE   857.92 209.56 374.91 518.42 975.76 426.36 1137.85 452.88 1047.51 528.92 965.65 600.72 1084.85 623.60
00003997 00000004 865.15 198.49 375.01 518.67 986.09 420.40 1146.36 443.68 1061.35 520.05 984.62 596.16 1101.93 616.60
00003998 DELETE   872.58 189.36 374.27 515.29 989.59 414.37 1151.91 436.90 1068.54 513.96 994.61 592.78 1115.27 612.31
00003999 00000006 877.33 186.84 371.78 515.77 992.38 412.43 1155.82 431.90 1075.19 511.05 1003.77 593.47 1124.28 610.56
00004000 00000007 878.22 187.42 370.23 515.06 992.84 413.05 1156.90 429.63 1077.65 512.13 1007.92 594.44 1128.30 609.30
00004001 00000008 877.19 189.45 370.50 516.34 991.66 414.97 1157.70 430.87 1078.12 517.27 1009.10 598.43 1130.38 612.86
00004002 00000009 874.84 193.16 371.53 519.63 991.67 416.51 1158.43 430.56 1079.63 520.82 1010.58 603.39 1129.25 616.42
00004003 00000010 873.98 196.26 372.10 519.81 990.55 419.23 1157.30 431.07 1078.45 524.66 1010.77 607.16 1127.91 618.36
00004004 00000011 873.76 198.27 371.59 520.08 990.10 420.20 1155.17 433.15 1076.58 525.96 1007.53 606.38 1125.22 618.76
00004005 00000012 873.27 197.44 372.76 523.74 989.65 421.01 1154.77 434.73 1075.69 525.77 1005.27 605.09 1125.54 618.25
00004006 00000013 872.66 195.74 373.54 528.31 989.89 419.69 1155.80 433.55 1076.06 524.51 1002.02 603.46 1125.76 616.90
00004007 00000014 872.31 196.09 373.63 532.58 989.77 418.34 1158.13 434.71 1077.46 523.67 994.90 600.14 1130.56 615.63
00004008 00000015 872.39 196.70 371.74 528.93 989.32 418.10 1158.47 435.26 1076.93 522.90 990.70 595.63 1132.52 611.56
00004009 00000016 872.03 198.47 371.36 523.95 988.73 418.23 1158.17 433.60 1076.90 521.35 990.56 593.10 1133.87 607.53
00004010 00000017 871.34 200.31 369.80 521.73 987.29 418.86 1157.64 434.46 1076.20 522.62 988.16 593.65 1132.56 608.48
00004011 00000018 869.88 200.81 368.37 521.71 985.81 418.74 1156.87 435.57 1074.33 523.39 985.57 594.20 1129.91 610.19
00004012 00000019 867.74 200.97 368.26 525.12 983.40 418.47 1153.43 436.35 1069.86 523.40 981.63 593.56 1125.98 610.34
00004013 00000020 865.93 200.11 367.11 529.31 980.12 417.71 1150.17 436.05 1066.12 523.54 978.12 593.83 1123.83 610.96
00004014 00000021 865.36 199.29 363.73 524.10 977.82 418.20 1143.85 436.58 1059.93 523.19 976.97 591.82 1116.86 608.87
00004015 00000022 863.53 197.63 362.59 521.52 974.04 415.24 1140.83 434.42 1055.19 519.50 974.84 589.65 1113.41 607.31
00004016 00000023 859.33 196.03 364.31 521.64 970.20 413.69 1137.65 432.82 1051.57 516.77 971.07 588.50 1111.16 605.97
00004017 00000024 856.41 196.23 365.47 520.39 968.78 412.77 1136.57 434.04 1049.32 515.26 966.96 587.83 1106.96 607.07
00004018 00000025 854.99 196.13 365.47 520.31 967.89 413.90 1137.57 437.92 1047.69 515.01 962.42 585.28 1106.77 606.44
00004019 00000026 854.41 196.67 366.49 521.75 967.97 416.48 1137.03 440.68 1047.03 517.36 963.10 586.86 1105.75 608.06
00004020 00000027 855.36 197.31 366.41 522.66 968.64 419.33 1137.07 443.24 1047.38 519.02 965.34 590.55 1105.34 611.30
00004021 00000028 856.94 199.03 365.36 519.31 970.47 420.10 1136.18 442.75 1048.16 519.73 970.50 593.55 1103.34 613.51
00004022 00000029 858.46 200.45 366.43 517.38 972.00 422.40 1134.99 441.92 1048.98 521.74 976.74 596.19 1102.62 613.52
00004023 00000030 859.09 202.47 366.76 515.87 974.23 424.68 1135.35 442.74 1052.60 524.42 983.00 600.17 1104.16 616.16
00004024 DELETE   858.69 205.81 368.45 514.49 976.06 428.06 1137.63 441.91 1058.34 527.44 988.25 604.14 1106.50 616.38
00004025 DELETE   859.85 205.11 367.73 517.72 977.37 428.24 1139.96 443.26 1060.97 527.96 991.56 606.22 1109.27 619.25
00004026 00000033 859.72 201.99 370.50 522.56 975.54 425.91 1140.75 438.55 1061.12 529.56 992.68 609.08 1111.01 620.36
00004027 DELETE   860.95 200.72 369.11 522.57 974.56 424.97 1139.69 437.48 1059.14 528.27 993.12 609.32 1111.67 620.62
00004028 00000035 861.28 199.00 369.57 522.73 974.05 424.11 1138.51 435.75 1058.31 527.54 993.84 609.23 1111.99 619.86
00004029 00000036 862.00 197.75 368.18 522.30 973.13 421.78 1139.34 433.08 1058.71 525.68 993.72 609.46 1113.41 619.96
00004030 00000037 860.96 195.26 367.96 519.35 971.35 419.29 1139.08 430.57 1057.71 522.47 990.96 607.94 1114.44 618.38
00004031 00000038 861.73 192.46 367.51 519.33 971.67 415.97 1139.46 427.39 1058.50 516.86 989.97 602.28 1115.75 612.91
00004032 00000039 863.07 190.07 366.81 513.61 974.24 413.03 1136.43 423.55 1060.23 509.20 993.04 599.95 1113.43 609.52
00004033 00000040 862.60 183.73 365.93 517.95 973.58 407.37 1135.41 421.77 1059.30 499.79 987.65 591.58 1112.50 604.30
00004034 00000041 862.92 178.54 363.13 520.90 970.41 401.28 1134.95 416.80 1055.96 495.26 978.20 584.34 1112.14 598.20
00004035 00000042 861.33 174.99 361.24 521.82 968.00 395.41 1131.59 409.51 1054.50 491.05 972.49 579.36 1109.16 592.42
00004036 00000043 859.14 170.36 360.74 524.79 965.84 389.77 1129.40 402.65 1053.03 487.47 969.07 574.95 1107.43 587.05
00004037 00000044 854.90 168.18 363.08 527.87 962.21 388.42 1126.56 401.00 1049.79 485.26 963.35 571.67 1107.21 583.51
00004038 00000045 851.15 168.93 362.65 526.83 960.67 389.24 1122.16 405.37 1045.39 483.61 959.59 566.76 1103.99 581.52
00004039 00000046 846.06 171.00 365.08 530.55 955.55 389.92 1116.60 405.19 1040.51 482.76 956.49 566.55 1099.66 580.86
00004040 00000047 844.18 170.08 365.31 535.40 950.90 389.15 1111.50 405.51 1033.04 483.74 950.47 566.93 1094.23 581.67
00004041 00000048 849.05 172.54 362.21 530.03 940.95 390.98 1108.76 400.71 1019.56 487.95 947.65 570.74 1092.43 581.65
00004042 00000049 841.96 168.89 363.33 538.89 938.89 388.77 1103.30 398.73 1017.82 491.00 940.36 574.25 1084.15 583.14
00004043 00000050 841.99 174.61 363.06 538.67 936.87 394.52 1101.03 404.70 1014.03 500.03 938.56 579.16 1081.95 588.21
00004044 00000051 843.99 182.92 364.08 534.94 939.80 401.05 1102.07 411.87 1015.17 504.65 938.32 583.63 1081.37 593.15
00004045 00000052 843.81 189.46 365.21 533.41 942.14 405.46 1102.90 417.10 1017.51 511.56 939.95 584.65 1085.06 595.01
00004046 00000053 845.78 196.14 366.17 528.76 945.96 411.73 1106.16 423.21 1021.90 517.64 942.03 585.07 1088.50 595.49
00004047 00000054 848.46 201.38 365.37 521.64 950.07 414.23 1111.64 425.01 1028.93 523.34 945.10 584.95 1094.35 594.94
00004048 00000055 848.82 202.58 367.89 515.39 957.07 414.16 1125.51 432.40 1034.61 526.89 957.16 585.31 1101.42 601.53
00004049 00000056 851.67 204.60 366.16 509.05 958.74 414.96 1128.90 431.72 1037.31 526.43 960.05 586.18 1104.75 601.35
00004050 00000057 854.29 204.56 363.69 504.87 960.21 414.00 1130.88 428.98 1039.91 525.40 962.68 586.01 1106.47 599.79
00004051 00000058 857.80 202.94 361.72 503.34 963.00 411.92 1132.64 426.42 1042.43 522.66 965.07 584.26 1107.78 597.64
00004052 00000059 859.91 201.32 360.89 503.51 965.04 410.43 1133.76 424.39 1045.07 520.56 968.02 583.08 1109.80 596.07
00004053 00000060 862.11 200.08 359.83 502.70 965.04 409.25 1134.20 422.75 1045.31 518.40 969.33 582.65 1112.00 595.28
00004054 00000061 863.50 198.77 358.97 503.11 965.85 408.29 1134.90 421.11 1046.58 517.51 970.48 582.71 1113.03 594.92
00004055 00000062 864.13 199.86 358.98 502.03 965.81 408.53 1135.17 421.34 1046.16 517.71 970.20 582.87 1112.72 595.10
00004056 00000063 864.82 199.81 358.71 502.34 966.66 408.81 1135.26 421.85 1046.49 517.54 970.40 582.98 1112.02 595.48
00004057 00000064 864.04 200.40 360.31 501.31 968.04 413.94 1136.37 428.13 1046.48 515.42 969.91 581.59 1111.47 594.74
00004058 00000065 864.16 198.76 362.19 504.07 969.20 414.83 1134.46 429.46 1047.11 514.68 972.75 581.37 1110.95 594.71
00004059 00000066 864.27 199.21 361.85 505.21 968.14 412.91 1135.59 426.34 1047.22 515.36 972.21 583.17 1111.35 595.67
00004060 00000067 865.03 198.75 361.09 507.10 968.91 412.96 1134.14 426.71 1046.41 516.85 973.24 583.57 1110.52 596.54
00004061 00000068 865.46 198.57 361.06 507.85 968.40 410.58 1133.63 424.21 1045.84 517.93 973.26 584.67 1109.73 597.68
00004062 00000069 865.80 196.44 360.84 509.50 968.52 408.27 1133.45 422.23 1045.97 516.22 973.81 583.95 1110.18 597.20
00004063 00000070 865.33 195.14 361.60 511.34 968.37 407.68 1132.81 421.54 1046.31 515.91 974.58 584.28 1110.09 597.42
00004064 00000071 865.25 194.71 362.04 512.11 967.99 407.52 1132.80 420.83 1046.25 516.02 975.06 585.01 1110.09 597.68
00004065 00000072 865.13 194.96 362.41 511.67 967.92 407.49 1132.83 420.78 1046.11 516.02 975.06 584.97 1109.99 597.60
00004066 00000073 864.43 194.16 362.90 513.33 967.71 407.16 1132.46 420.88 1046.15 516.30 974.89 585.23 1109.50 598.17
00004067 00000074 864.63 193.89 362.66 514.44 967.61 406.82 1132.25 420.75 1045.89 515.92 974.61 585.02 1109.46 598.17
00004068 00000075 864.39 193.05 362.70 516.37 967.52 405.85 1132.63 420.06 1046.00 514.97 974.21 584.69 1109.89 598.08
00004069 00000076 863.98 192.19 362.55 517.74 967.20 404.78 1132.62 419.43 1046.00 514.04 973.99 584.23 1110.39 597.94
00004070 00000077 863.26 191.32 362.95 521.12 966.39 404.03 1132.59 419.22 1046.06 513.50 971.41 582.55 1111.54 596.80
00004071 00000078 862.28 189.38 363.27 523.08 965.01 401.67 1131.27 417.13 1045.16 511.69 967.93 580.14 1112.05 594.49
00004072 00000079 862.06 187.54 363.75 525.54 963.28 400.25 1129.86 414.40 1043.49 509.91 964.24 577.19 1114.15 590.26
00004073 00000080 860.91 186.22 365.03 523.73 961.30 398.59 1127.81 411.58 1041.94 507.83 960.98 574.19 1112.68 586.40
00004074 00000081 858.74 181.48 365.77 523.76 958.84 392.48 1122.56 406.13 1037.73 495.67 956.03 565.32 1108.99 577.70
00004075 00000082 857.41 177.82 365.21 523.91 955.15 384.91 1116.60 398.73 1030.43 483.88 950.33 555.64 1105.70 568.03
00004076 00000083 854.71 169.57 365.67 531.29 952.23 377.34 1111.76 392.19 1025.55 474.72 945.07 549.51 1100.69 562.60
00004077 00000084 854.59 164.23 365.26 534.29 949.29 372.91 1109.72 387.18 1020.68 466.74 944.51 544.50 1098.14 557.17
00004078 00000085 853.46 157.79 360.70 527.94 939.97 373.09 1105.75 381.01 1020.49 472.65 940.24 539.99 1098.95 545.88
00004079 00000086 853.81 156.70 359.44 515.93 934.88 372.96 1100.47 380.32 1012.70 473.04 937.29 539.53 1093.94 546.01
00004080 00000087 854.32 152.60 356.24 513.94 932.42 369.93 1098.14 376.31 1008.73 468.28 938.62 544.10 1089.34 550.37
00004081 00000088 851.80 147.68 359.06 516.22 933.70 368.35 1094.99 373.01 1008.29 460.78 946.72 548.32 1081.70 553.11
00004082 00000089 849.27 144.75 363.19 523.20 932.80 369.72 1093.77 371.61 1007.53 460.82 952.16 553.93 1080.25 556.25
00004083 00000090 851.12 144.60 363.52 524.95 932.30 370.92 1095.05 372.67 1007.16 463.22 951.03 552.41 1082.75 554.56
00004084 00000091 852.25 146.21 363.16 524.84 933.22 370.63 1096.87 373.17 1008.85 464.19 950.57 551.78 1086.14 554.44
00004085 00000092 854.29 144.47 360.72 525.55 935.62 367.40 1098.39 371.96 1010.24 461.43 949.40 547.85 1088.08 552.08
00004086 00000093 856.54 143.22 357.97 523.74 935.06 364.56 1100.01 370.68 1008.07 459.95 941.31 540.94 1090.09 546.74
00004087 00000094 858.41 146.91 357.10 520.80 934.85 364.18 1101.21 371.09 1006.94 460.56 937.19 538.86 1092.73 545.27
00004088 00000095 858.93 146.45 357.50 522.44 934.96 365.23 1102.05 371.36 1006.94 460.49 937.17 538.58 1095.55 544.27
00004089 00000096 859.44 145.03 355.44 519.14 930.17 368.82 1099.76 370.94 1001.62 456.96 934.50 537.86 1093.99 540.40
00004090 00000097 860.45 143.16 351.03 515.58 922.73 363.24 1090.79 361.98 988.61 450.46 929.97 535.93 1088.49 535.63
00004091 00000098 858.74 137.65 346.75 515.82 918.51 350.17 1080.01 352.95 973.24 442.48 923.59 529.54 1079.38 532.07
00004092 DELETE   847.99 133.95 349.29 509.54 906.33 339.59 1071.79 342.39 962.84 428.60 914.52 523.03 1067.02 526.02
00004093 DELETE   840.11 118.17 362.30 522.99 901.51 333.10 1065.75 335.06 947.88 418.30 910.34 507.42 1058.11 511.16
00004094 DELETE   837.56 114.96 356.59 516.82 886.99 316.76 1052.53 319.06 933.26 407.42 895.11 504.37 1043.89 507.36
00004095 00000102 838.90 107.84 356.42 507.96 889.30 306.68 1046.34 307.97 926.03 392.60 898.13 490.90 1028.61 493.61
00004096 00000103 834.85 95.12 360.35 513.25 889.92 294.51 1043.17 296.66 921.31 380.38 896.09 484.24 1017.59 488.14
00004097 00000104 830.85 85.11 356.92 514.03 889.81 282.36 1040.61 293.18 918.51 369.45 893.90 474.80 997.43 482.36
00004098 00000105 833.32 73.29 357.21 517.09 886.52 274.75 1035.95 285.02 910.78 364.21 888.44 464.14 997.91 471.45
00004099 00000106 833.76 66.16 355.64 514.87 887.67 269.38 1036.44 279.44 913.11 362.47 890.06 458.22 1001.58 465.36
00004100 00000107 834.20 61.47 356.17 519.44 890.10 268.21 1042.00 279.26 915.67 363.59 891.07 458.63 1009.62 466.63
00004101 00000108 834.64 58.65 355.97 526.17 893.74 267.71 1047.40 279.28 921.60 359.99 895.32 461.83 1010.76 470.41
00004102 00000109 836.81 59.63 352.74 522.83 898.21 266.03 1050.98 276.78 928.41 354.63 899.99 462.57 1009.31 470.77
00004103 00000110 836.67 60.65 354.09 523.29 897.93 268.80 1050.30 278.16 927.25 353.34 899.66 462.68 1006.31 469.99
00004104 00000111 836.04 63.52 355.06 524.63 896.97 271.70 1051.44 281.74 926.26 355.38 899.16 464.10 1007.75 471.73
00004105 00000112 837.92 73.65 354.76 524.59 896.31 275.95 1051.18 290.11 924.22 367.77 897.66 468.65 1010.41 479.15
00004106 00000113 837.19 82.66 357.35 521.43 897.15 280.67 1055.24 296.49 928.21 376.70 897.47 473.99 1018.00 485.87
00004107 00000114 834.83 83.17 365.24 521.31 893.31 283.30 1053.82 292.45 929.12 382.41 899.80 478.31 1029.99 487.42
00004108 00000115 834.39 92.18 364.92 513.60 892.33 288.26 1052.43 298.04 928.21 388.63 898.71 480.77 1029.47 490.42
00004109 00000116 833.18 95.98 365.29 517.05 890.24 294.62 1051.18 304.41 926.87 394.49 896.12 486.08 1029.83 495.76
00004110 00000117 835.83 100.64 361.45 515.06 889.01 302.46 1049.72 311.64 925.78 402.02 894.03 492.64 1029.71 502.02
00004111 00000118 835.75 104.79 361.46 515.51 889.29 304.93 1048.09 318.65 922.15 409.32 892.06 494.72 1027.34 507.50
00004112 00000119 836.45 108.35 357.67 520.83 891.86 309.33 1046.86 324.83 923.91 412.54 893.37 500.04 1022.12 514.01
00004113 00000120 837.57 109.59 355.19 523.22 893.73 312.79 1047.93 328.24 925.64 414.79 896.09 504.04 1021.25 517.84
00004114 00000121 837.53 109.85 354.17 524.30 893.70 314.30 1047.60 328.97 926.38 414.66 897.10 504.95 1021.96 518.01
00004115 00000122 836.83 109.43 353.86 527.18 892.41 315.90 1048.42 329.34 929.76 416.60 896.73 506.54 1026.04 518.55
00004116 00000123 835.63 110.51 354.44 527.99 890.77 319.31 1046.97 333.12 929.55 420.85 895.95 509.67 1025.78 521.90
00004117 00000124 836.71 107.45 360.07 526.06 892.96 327.83 1050.60 337.06 930.16 425.49 898.15 508.45 1030.90 517.73
00004118 00000125 835.76 112.30 361.33 522.42 894.32 330.85 1052.32 339.30 933.87 428.65 899.27 510.71 1031.05 519.74
00004119 00000126 835.68 114.42 362.50 523.53 894.87 334.08 1052.62 340.77 934.86 431.81 900.80 515.43 1029.84 523.34
CROP_BBOX: 555 0 1513 879
