Video ID: 	MmqfC9mH_nU
H: 	1080
W: 	1920
FPS: 	29.97002997002997

FRAME INDEX X0 Y0 W H [Landmarks (5 Points)]

00004160 00000000 613.30 209.63 394.97 537.12 746.41 428.22 925.96 397.43 876.33 519.32 813.94 628.96 950.13 602.43
00004161 DELETE   622.54 212.84 392.59 529.49 755.45 424.59 935.50 397.61 883.89 517.18 820.42 625.38 955.55 601.91
00004162 00000002 633.19 207.21 388.94 536.21 764.89 421.60 943.15 394.99 894.32 512.88 826.85 624.42 962.09 601.54
00004163 00000003 646.06 200.97 384.77 543.01 776.55 419.28 953.98 389.13 910.06 497.78 832.15 628.49 966.83 601.87
00004164 00000004 655.64 203.12 384.59 535.89 782.14 419.69 959.91 388.17 916.77 493.59 837.38 623.02 976.73 594.56
00004165 00000005 662.90 202.73 387.35 536.28 791.56 412.44 973.66 387.24 923.55 489.62 847.53 612.95 992.76 590.21
00004166 00000006 669.16 196.09 391.33 535.65 797.60 413.02 981.90 383.62 931.52 483.89 857.19 611.10 1003.73 584.71
00004167 00000007 676.75 195.76 388.00 532.13 801.01 404.01 980.87 375.76 930.37 484.41 869.13 607.61 1009.22 584.65
00004168 00000008 681.37 199.18 387.57 528.46 807.92 403.77 986.77 374.81 937.82 486.93 876.30 607.36 1013.99 583.61
00004169 DELETE   686.94 196.67 388.43 531.73 812.40 401.12 992.08 372.89 942.55 483.28 882.64 606.33 1020.81 582.42
00004170 00000010 692.36 195.34 387.70 534.63 816.41 400.28 996.41 372.58 945.59 484.62 886.97 606.94 1025.12 582.95
00004171 00000011 695.69 195.32 388.47 534.42 821.45 401.37 1001.78 374.33 951.32 487.53 891.33 607.25 1028.34 583.56
00004172 00000012 700.22 193.73 388.50 533.42 826.04 400.01 1005.87 372.59 955.84 485.28 895.44 606.12 1031.90 581.94
00004173 00000013 706.32 192.11 385.58 534.83 831.90 399.45 1009.43 372.40 961.37 484.82 898.42 604.26 1035.30 580.42
00004174 00000014 709.33 188.24 387.19 538.80 837.28 397.56 1016.73 373.47 967.56 483.65 900.05 603.89 1037.83 582.46
00004175 00000015 711.01 186.31 388.48 539.84 841.34 396.46 1021.25 373.92 971.42 483.38 901.35 602.71 1039.67 582.42
00004176 00000016 714.18 184.03 387.63 540.97 844.63 397.57 1025.09 374.79 974.97 482.32 903.40 602.84 1041.96 582.42
00004177 00000017 716.64 185.31 387.72 538.59 847.01 397.61 1028.83 375.19 977.11 482.81 904.55 602.99 1043.57 582.95
00004178 00000018 721.42 185.92 388.00 536.76 850.45 398.61 1032.05 375.94 979.33 481.62 906.86 601.82 1048.21 581.63
00004179 00000019 723.94 182.70 388.00 540.30 852.29 399.26 1035.41 376.50 981.92 481.38 908.45 602.78 1051.15 582.53
00004180 00000020 727.90 178.94 387.61 544.68 855.88 400.36 1039.37 377.53 985.56 482.11 911.41 603.32 1054.64 583.07
00004181 00000021 731.50 180.72 387.80 541.02 859.03 400.10 1043.74 377.53 989.25 480.42 914.82 603.17 1057.78 583.07
00004182 00000022 732.53 180.52 386.96 539.23 861.56 399.36 1046.04 376.57 992.74 481.05 916.71 601.66 1059.60 581.38
00004183 00000023 736.46 180.99 384.65 535.85 864.14 399.03 1048.98 375.60 995.75 478.82 918.77 600.08 1062.31 579.19
00004184 00000024 736.98 182.64 386.00 532.64 866.23 398.29 1051.50 374.32 998.55 476.31 920.09 597.52 1064.96 576.16
00004185 00000025 738.54 183.76 386.05 531.91 868.34 398.95 1053.02 375.49 1000.83 475.26 921.12 597.33 1066.65 576.38
00004186 00000026 739.47 183.26 386.97 532.00 869.74 399.34 1054.40 377.03 1001.92 475.67 922.48 597.54 1067.62 577.40
00004187 00000027 741.56 184.99 386.71 532.24 871.53 400.15 1056.42 378.77 1003.52 476.15 923.72 599.19 1069.57 579.77
00004188 00000028 742.52 183.55 387.75 533.82 872.05 400.53 1057.83 378.38 1004.84 477.26 924.95 600.31 1071.37 580.19
00004189 00000029 743.56 181.80 388.46 534.56 872.55 400.30 1058.95 378.01 1005.15 476.86 925.78 601.04 1071.61 580.73
00004190 00000030 743.07 185.38 388.85 533.38 873.50 400.87 1058.78 377.87 1006.76 477.79 927.05 601.21 1071.97 580.39
00004191 00000031 743.27 183.09 388.07 534.08 873.08 400.00 1058.92 377.48 1006.50 477.39 926.83 600.53 1071.91 580.08
00004192 00000032 741.70 184.15 389.08 533.94 872.47 398.66 1058.48 376.48 1005.40 477.63 925.82 600.30 1070.67 580.16
00004193 00000033 741.69 181.36 386.73 535.12 871.00 398.07 1056.20 376.48 1003.00 476.50 923.71 598.99 1068.62 579.46
00004194 00000034 738.96 179.67 385.25 533.82 868.42 395.91 1053.77 374.46 1001.39 475.15 920.34 596.48 1064.62 577.34
00004195 00000035 732.07 181.77 388.41 536.45 864.58 393.91 1048.79 373.07 997.51 476.28 917.43 596.04 1059.85 577.41
00004196 00000036 728.95 176.71 387.78 537.12 859.66 393.04 1043.20 373.13 991.15 476.40 913.58 595.37 1053.76 577.48
00004197 00000037 723.13 175.84 385.81 539.78 854.11 389.16 1035.89 372.07 984.32 475.92 908.50 594.62 1045.28 579.03
00004198 00000038 714.13 178.43 389.48 540.31 846.96 385.43 1030.57 370.21 978.18 475.16 903.04 594.83 1040.79 580.60
00004199 00000039 706.57 177.15 391.06 543.16 840.58 384.14 1023.00 371.03 969.78 474.13 898.66 594.35 1033.75 581.97
00004200 00000040 698.94 176.38 391.16 543.63 832.87 383.49 1015.17 368.90 963.04 475.26 892.92 594.35 1028.07 581.06
00004201 00000041 689.94 181.97 390.05 536.31 826.28 383.96 1007.24 371.56 955.92 475.34 884.73 592.81 1019.35 582.00
00004202 00000042 684.95 181.60 385.88 533.59 819.43 382.56 1001.07 373.71 946.45 474.76 873.90 592.06 1008.96 584.92
00004203 00000043 676.24 177.64 386.88 538.37 813.58 382.71 994.15 374.81 942.21 473.02 863.26 590.00 1003.08 584.07
00004204 00000044 671.09 169.57 388.50 539.23 805.77 390.97 995.82 375.28 941.62 469.33 853.76 592.26 1002.09 577.29
00004205 00000045 665.73 163.64 390.57 544.88 800.66 390.28 988.77 371.63 935.85 468.48 849.99 590.80 996.59 573.37
00004206 00000046 661.23 167.85 390.73 540.56 797.03 390.12 983.34 371.89 932.11 467.50 847.30 588.97 991.98 572.08
00004207 00000047 657.89 171.16 391.32 539.73 794.15 391.07 979.28 372.71 929.28 469.07 845.57 590.55 988.30 573.64
00004208 00000048 655.49 176.29 392.80 537.56 793.33 393.89 979.15 375.36 928.56 471.99 844.77 592.99 988.00 575.99
00004209 00000049 655.51 176.60 392.69 537.26 793.33 394.03 979.02 375.43 928.56 472.19 844.85 593.10 988.00 576.04
00004210 00000050 655.53 176.57 392.67 537.07 793.28 394.14 978.98 375.36 928.52 472.26 844.90 593.20 987.94 576.01
00004211 00000051 655.66 176.43 392.58 536.77 793.25 394.22 978.78 375.38 928.46 472.34 844.97 593.18 987.81 575.94
00004212 00000052 655.76 176.60 392.39 536.89 793.13 394.31 978.51 375.33 928.37 472.13 844.93 593.21 987.81 575.87
00004213 00000053 655.72 177.08 392.35 536.89 793.10 394.19 978.29 375.21 928.45 472.12 844.95 593.32 987.55 576.04
00004214 00000054 655.86 177.04 392.29 536.72 793.06 394.24 978.33 375.21 928.48 472.09 845.03 593.41 987.57 576.08
00004215 00000055 655.83 176.67 392.37 536.99 793.02 394.19 978.32 375.27 928.38 472.23 844.85 593.21 987.48 575.95
00004216 00000056 655.74 176.76 392.42 536.93 793.01 394.21 978.26 375.07 928.40 472.21 844.99 593.37 987.56 575.93
00004217 00000057 655.74 176.71 392.44 536.96 793.02 394.20 978.26 375.06 928.40 472.22 845.00 593.36 987.56 575.92
00004218 00000058 655.75 176.67 392.42 536.99 793.02 394.20 978.26 375.06 928.39 472.22 845.00 593.36 987.56 575.92
00004219 00000059 655.74 176.71 392.43 536.96 793.02 394.20 978.26 375.06 928.40 472.22 845.00 593.36 987.56 575.92
00004220 00000060 655.75 176.67 392.43 537.00 793.01 394.19 978.25 375.07 928.38 472.21 844.99 593.36 987.56 575.94
00004221 00000061 655.86 176.70 392.33 536.90 793.03 394.35 978.25 375.17 928.33 472.24 844.94 593.37 987.59 575.92
00004222 00000062 655.87 176.67 392.35 536.94 793.03 394.34 978.27 375.16 928.34 472.25 844.95 593.40 987.59 575.95
00004223 00000063 655.88 176.75 392.31 536.83 793.05 394.36 978.25 375.18 928.34 472.26 844.94 593.37 987.57 575.92
00004224 00000064 655.89 176.68 392.29 536.92 793.07 394.30 978.22 375.04 928.41 472.27 844.97 593.37 987.58 575.86
00004225 00000065 656.11 175.44 392.52 539.19 792.67 394.04 978.58 374.93 928.16 472.47 844.81 594.39 987.92 577.07
00004226 00000066 656.12 175.47 392.51 539.15 792.66 394.01 978.58 374.90 928.16 472.51 844.80 594.39 987.91 577.07
00004227 00000067 656.13 175.42 392.52 539.21 792.66 394.01 978.57 374.91 928.16 472.52 844.80 594.39 987.88 577.07
00004228 00000068 656.10 175.43 392.53 539.20 792.67 394.04 978.58 374.93 928.16 472.48 844.81 594.39 987.92 577.07
00004229 00000069 656.10 175.38 392.54 539.24 792.66 394.04 978.58 374.93 928.16 472.48 844.81 594.39 987.92 577.06
00004230 00000070 656.10 175.39 392.54 539.23 792.66 394.04 978.58 374.93 928.16 472.48 844.81 594.40 987.92 577.06
00004231 00000071 656.10 175.39 392.54 539.23 792.66 394.04 978.58 374.93 928.16 472.48 844.81 594.40 987.92 577.06
00004232 00000072 656.10 175.43 392.53 539.20 792.67 394.04 978.58 374.93 928.16 472.47 844.81 594.39 987.92 577.07
00004233 00000073 656.10 175.43 392.53 539.20 792.67 394.04 978.58 374.93 928.16 472.47 844.81 594.39 987.92 577.07
00004234 00000074 656.10 175.43 392.53 539.20 792.67 394.04 978.58 374.93 928.16 472.47 844.81 594.39 987.92 577.07
00004235 00000075 656.11 175.43 392.53 539.19 792.66 394.05 978.58 374.92 928.16 472.47 844.82 594.40 987.92 577.06
00004236 00000076 656.10 175.43 392.53 539.20 792.67 394.04 978.58 374.93 928.16 472.47 844.81 594.39 987.92 577.07
00004237 00000077 656.10 175.43 392.53 539.20 792.67 394.04 978.58 374.93 928.16 472.47 844.81 594.39 987.92 577.07
00004238 00000078 656.10 175.43 392.53 539.20 792.67 394.04 978.58 374.93 928.16 472.47 844.81 594.39 987.92 577.07
00004239 00000079 656.10 175.43 392.53 539.20 792.67 394.04 978.58 374.93 928.16 472.47 844.81 594.39 987.92 577.07
00004240 00000080 656.10 175.43 392.53 539.20 792.67 394.04 978.58 374.93 928.16 472.47 844.81 594.39 987.92 577.07
00004241 00000081 656.10 175.43 392.53 539.20 792.67 394.04 978.58 374.93 928.16 472.47 844.81 594.39 987.92 577.07
00004242 00000082 656.10 175.43 392.53 539.20 792.67 394.04 978.58 374.93 928.16 472.47 844.81 594.39 987.92 577.07
00004243 00000083 656.10 175.43 392.53 539.20 792.67 394.04 978.58 374.93 928.16 472.47 844.81 594.39 987.92 577.07
00004244 00000084 656.10 175.43 392.53 539.20 792.67 394.04 978.58 374.92 928.16 472.47 844.81 594.40 987.92 577.07
00004245 00000085 656.10 175.43 392.53 539.20 792.67 394.04 978.58 374.92 928.16 472.47 844.81 594.40 987.92 577.07
00004246 00000086 656.10 175.43 392.53 539.20 792.67 394.04 978.58 374.93 928.16 472.47 844.81 594.39 987.92 577.07
00004247 00000087 656.10 175.43 392.53 539.20 792.67 394.04 978.58 374.93 928.16 472.47 844.81 594.39 987.92 577.07
00004248 00000088 656.11 175.43 392.52 539.21 792.66 394.04 978.57 374.93 928.15 472.47 844.79 594.39 987.91 577.07
00004249 00000089 656.10 175.43 392.53 539.20 792.67 394.04 978.58 374.93 928.16 472.47 844.81 594.39 987.92 577.07
00004250 00000090 656.10 175.42 392.53 539.21 792.67 394.04 978.59 374.93 928.17 472.48 844.81 594.40 987.92 577.07
00004251 00000091 656.10 175.43 392.53 539.20 792.67 394.04 978.58 374.93 928.16 472.47 844.81 594.39 987.92 577.07
00004252 00000092 656.10 175.43 392.54 539.20 792.66 394.04 978.58 374.92 928.16 472.48 844.81 594.39 987.92 577.06
00004253 00000093 656.10 175.43 392.53 539.20 792.67 394.04 978.58 374.93 928.16 472.47 844.81 594.39 987.92 577.07
00004254 00000094 656.10 175.43 392.54 539.20 792.67 394.04 978.58 374.92 928.17 472.47 844.81 594.39 987.93 577.07
00004255 00000095 656.10 175.43 392.53 539.20 792.67 394.04 978.58 374.93 928.16 472.47 844.81 594.39 987.92 577.07
00004256 00000096 656.10 175.43 392.53 539.20 792.67 394.04 978.58 374.93 928.16 472.47 844.81 594.39 987.92 577.07
00004257 00000097 656.10 175.43 392.53 539.20 792.67 394.04 978.58 374.93 928.16 472.47 844.81 594.39 987.92 577.07
00004258 00000098 656.10 175.45 392.52 539.17 792.67 394.03 978.59 374.93 928.16 472.47 844.81 594.39 987.91 577.07
00004259 00000099 656.10 175.46 392.53 539.17 792.67 394.03 978.58 374.92 928.16 472.47 844.82 594.39 987.92 577.06
00004260 00000100 656.10 175.46 392.53 539.18 792.67 394.03 978.58 374.92 928.17 472.47 844.81 594.39 987.92 577.06
00004261 00000101 656.10 175.46 392.54 539.17 792.67 394.03 978.58 374.92 928.16 472.47 844.81 594.39 987.92 577.06
00004262 00000102 656.10 175.46 392.53 539.18 792.67 394.03 978.58 374.92 928.17 472.47 844.81 594.39 987.92 577.06
00004263 00000103 656.10 175.46 392.53 539.18 792.67 394.03 978.58 374.92 928.17 472.47 844.81 594.39 987.92 577.06
00004264 00000104 656.06 175.44 392.59 539.22 792.67 394.05 978.59 374.92 928.17 472.48 844.83 594.41 987.92 577.06
00004265 00000105 656.08 175.46 392.55 539.18 792.67 394.02 978.59 374.91 928.18 472.49 844.83 594.40 987.92 577.07
00004266 00000106 656.08 175.46 392.56 539.18 792.67 394.02 978.59 374.91 928.18 472.49 844.83 594.40 987.92 577.07
00004267 00000107 656.08 175.46 392.56 539.18 792.67 394.02 978.59 374.91 928.18 472.49 844.83 594.40 987.92 577.07
00004268 00000108 656.08 175.47 392.55 539.17 792.67 394.02 978.59 374.91 928.18 472.49 844.83 594.40 987.92 577.07
00004269 00000109 656.08 175.46 392.56 539.18 792.67 394.02 978.59 374.91 928.18 472.49 844.83 594.40 987.92 577.07
00004270 00000110 656.08 175.45 392.56 539.18 792.67 394.02 978.59 374.91 928.18 472.49 844.83 594.40 987.92 577.07
00004271 00000111 656.08 175.45 392.56 539.18 792.67 394.02 978.59 374.91 928.18 472.49 844.83 594.40 987.92 577.07
00004272 00000112 656.08 175.47 392.55 539.18 792.67 394.02 978.59 374.91 928.18 472.49 844.83 594.40 987.92 577.07
00004273 00000113 656.08 175.47 392.55 539.18 792.67 394.02 978.59 374.91 928.18 472.49 844.83 594.40 987.92 577.07
00004274 00000114 656.08 175.47 392.55 539.18 792.67 394.02 978.59 374.91 928.18 472.49 844.83 594.40 987.92 577.07
00004275 00000115 656.08 175.47 392.55 539.18 792.67 394.02 978.59 374.91 928.18 472.49 844.83 594.40 987.92 577.07
00004276 00000116 656.08 175.47 392.55 539.18 792.67 394.02 978.59 374.91 928.18 472.49 844.83 594.40 987.92 577.07
00004277 00000117 656.08 175.46 392.55 539.18 792.67 394.02 978.59 374.91 928.18 472.49 844.83 594.40 987.92 577.07
00004278 00000118 656.08 175.46 392.55 539.18 792.67 394.02 978.59 374.91 928.18 472.49 844.83 594.40 987.92 577.07
00004279 00000119 656.08 175.47 392.55 539.17 792.67 394.02 978.59 374.91 928.18 472.49 844.83 594.40 987.92 577.07
00004280 00000120 656.08 175.46 392.55 539.17 792.67 394.02 978.59 374.91 928.18 472.49 844.83 594.40 987.92 577.07
00004281 00000121 656.08 175.47 392.55 539.17 792.67 394.02 978.59 374.91 928.18 472.49 844.83 594.40 987.92 577.07
00004282 00000122 656.08 175.47 392.55 539.17 792.67 394.02 978.59 374.91 928.18 472.49 844.83 594.40 987.92 577.07
00004283 00000123 656.08 175.47 392.55 539.17 792.67 394.02 978.59 374.91 928.18 472.49 844.83 594.40 987.92 577.07
00004284 00000124 656.08 175.47 392.55 539.17 792.67 394.02 978.59 374.91 928.18 472.49 844.83 594.40 987.92 577.07
00004285 00000125 656.08 175.47 392.55 539.17 792.67 394.02 978.59 374.91 928.18 472.49 844.83 594.40 987.92 577.07
00004286 00000126 656.08 175.47 392.55 539.18 792.67 394.02 978.59 374.91 928.18 472.49 844.82 594.40 987.92 577.08
00004287 00000127 656.08 175.46 392.55 539.18 792.67 394.02 978.59 374.91 928.18 472.49 844.83 594.40 987.93 577.07
00004288 00000128 656.08 175.46 392.55 539.18 792.67 394.02 978.59 374.91 928.18 472.49 844.83 594.40 987.93 577.07
00004289 00000129 656.08 175.46 392.55 539.18 792.67 394.02 978.59 374.91 928.18 472.49 844.83 594.40 987.93 577.07
00004290 00000130 656.08 175.47 392.55 539.18 792.67 394.02 978.59 374.91 928.18 472.49 844.83 594.40 987.92 577.07
00004291 00000131 656.08 175.46 392.55 539.18 792.67 394.02 978.59 374.91 928.18 472.49 844.83 594.40 987.93 577.07
00004292 00000132 656.08 175.46 392.55 539.18 792.67 394.02 978.59 374.91 928.18 472.49 844.83 594.40 987.93 577.07
00004293 00000133 656.08 175.46 392.55 539.18 792.67 394.02 978.59 374.91 928.18 472.49 844.83 594.40 987.92 577.07
00004294 00000134 656.08 175.47 392.55 539.18 792.67 394.02 978.59 374.90 928.18 472.49 844.83 594.40 987.93 577.07
00004295 00000135 656.09 175.47 392.52 539.18 792.67 394.02 978.60 374.90 928.18 472.49 844.83 594.40 987.93 577.07
00004296 00000136 656.14 175.43 392.46 539.21 792.66 394.04 978.61 374.92 928.15 472.48 844.79 594.39 987.91 577.05
00004297 00000137 656.09 175.39 392.54 539.25 792.68 394.03 978.60 374.91 928.18 472.49 844.83 594.40 987.93 577.07
00004298 00000138 656.09 175.39 392.54 539.25 792.68 394.03 978.60 374.91 928.18 472.49 844.83 594.40 987.93 577.07
00004299 00000139 656.08 175.40 392.55 539.26 792.68 394.03 978.60 374.92 928.18 472.50 844.83 594.40 987.94 577.07
00004300 00000140 656.09 175.39 392.54 539.25 792.68 394.03 978.60 374.91 928.18 472.49 844.83 594.40 987.93 577.07
00004301 00000141 656.09 175.39 392.54 539.25 792.68 394.03 978.60 374.91 928.18 472.49 844.83 594.40 987.93 577.07
00004302 00000142 656.09 175.39 392.54 539.25 792.68 394.03 978.60 374.91 928.18 472.49 844.83 594.40 987.93 577.07
00004303 00000143 656.09 175.41 392.54 539.23 792.68 394.03 978.59 374.91 928.18 472.49 844.83 594.40 987.94 577.07
00004304 00000144 656.09 175.41 392.53 539.23 792.68 394.03 978.60 374.91 928.18 472.49 844.83 594.40 987.93 577.07
00004305 00000145 656.09 175.41 392.53 539.23 792.68 394.03 978.60 374.91 928.18 472.49 844.83 594.40 987.93 577.07
00004306 00000146 656.09 175.41 392.54 539.23 792.68 394.03 978.59 374.91 928.18 472.49 844.83 594.40 987.94 577.07
00004307 00000147 656.09 175.41 392.54 539.23 792.68 394.03 978.59 374.91 928.18 472.49 844.83 594.40 987.94 577.07
00004308 00000148 655.15 175.81 393.70 538.81 792.81 393.89 978.89 374.95 928.42 471.78 845.01 593.97 988.22 576.69
00004309 00000149 723.58 152.24 399.70 550.61 860.02 384.24 1045.07 353.42 1001.20 442.26 907.69 570.68 1068.22 543.21
00004310 00000150 723.14 160.63 397.70 545.60 860.14 389.52 1044.16 359.99 1001.70 449.71 906.54 572.98 1066.73 546.69
00004311 00000151 724.91 168.57 398.01 547.71 860.04 393.96 1044.25 367.78 999.68 461.68 902.81 576.13 1065.45 552.91
00004312 00000152 725.93 173.50 398.74 546.88 861.91 396.98 1047.90 370.99 1002.07 467.65 903.18 579.26 1070.22 556.59
00004313 00000153 727.41 172.33 399.86 543.38 865.03 396.17 1050.72 368.69 1005.65 462.93 907.46 577.59 1072.42 553.45
00004314 00000154 727.87 165.69 400.85 546.41 865.55 393.71 1051.10 363.43 1006.95 459.44 908.75 575.13 1074.35 548.64
00004315 00000155 726.72 162.54 402.50 548.20 866.20 392.29 1051.70 362.04 1008.77 455.54 909.88 574.01 1075.25 547.49
00004316 00000156 729.52 161.98 399.66 548.36 867.33 394.16 1052.87 365.58 1008.73 460.04 909.43 574.89 1074.86 549.88
00004317 DELETE   731.74 176.87 396.84 540.25 869.07 397.74 1055.39 372.70 1008.72 469.20 908.83 578.54 1074.46 556.81
00004318 00000158 732.88 186.00 397.69 536.82 871.07 402.44 1059.88 378.99 1011.69 477.24 907.97 583.07 1078.84 563.27
00004319 DELETE   736.60 186.41 395.87 535.56 873.13 403.48 1061.77 380.53 1012.38 477.64 909.58 583.44 1079.61 564.01
00004320 DELETE   734.91 181.30 398.78 537.99 873.69 399.01 1062.19 375.63 1013.99 471.91 911.47 579.37 1080.79 559.19
00004321 DELETE   734.89 171.63 402.26 543.74 875.09 395.30 1062.10 370.93 1015.14 464.48 914.37 575.30 1080.87 553.72
00004322 00000162 734.98 165.29 400.49 547.09 875.49 393.68 1061.47 369.01 1016.72 461.19 913.90 572.30 1081.76 550.66
00004323 DELETE   734.57 167.66 401.77 548.13 875.35 394.29 1061.15 370.16 1015.92 463.53 913.39 574.04 1080.72 552.90
00004324 00000164 735.99 179.33 398.08 542.21 875.61 397.02 1063.52 374.78 1016.30 471.72 911.96 578.37 1081.80 559.25
00004325 DELETE   739.22 188.62 396.02 538.13 875.70 400.92 1064.38 378.49 1015.39 477.79 912.30 584.55 1082.32 565.45
CROP_BBOX: 476 0 1359 904
