Video ID: 	hdm5LF9yVK8
H: 	1080
W: 	1920
FPS: 	25.0

FRAME INDEX X0 Y0 W H [Landmarks (5 Points)]

00002750 00000000 566.99 215.69 410.35 680.23 667.92 489.54 867.65 512.11 750.84 637.41 661.45 720.68 837.64 737.90
00002751 00000001 569.47 216.56 411.99 684.06 671.76 490.94 870.53 512.80 756.30 641.31 666.18 724.13 840.38 740.84
00002752 00000002 571.90 220.21 412.92 684.45 673.93 493.49 873.18 516.29 760.01 647.14 669.00 728.35 842.66 745.96
00002753 00000003 572.61 224.81 413.01 678.69 676.83 495.53 873.54 518.47 763.28 651.03 672.14 728.77 842.94 746.65
00002754 00000004 572.85 224.92 412.48 679.52 677.98 495.35 874.18 518.45 764.58 652.07 672.56 729.18 843.14 747.30
00002755 00000005 573.02 224.11 412.55 679.79 677.63 493.79 874.94 517.44 763.83 652.08 672.56 728.99 843.16 747.54
00002756 00000006 573.83 224.00 412.32 681.32 679.29 493.19 875.59 517.04 765.29 651.55 674.34 729.03 844.23 747.71
00002757 00000007 573.94 223.64 412.34 681.29 679.24 492.45 876.14 516.86 765.15 651.35 674.26 728.80 844.52 747.92
00002758 00000008 575.84 223.10 412.18 680.40 680.69 491.32 876.24 515.91 765.65 650.01 676.53 728.06 844.47 747.23
00002759 00000009 575.59 220.98 411.81 680.86 680.41 489.56 876.63 514.25 765.15 647.93 677.26 727.40 844.84 746.62
00002760 00000010 577.00 221.70 410.15 682.25 680.28 490.37 875.83 514.28 765.50 648.57 676.51 728.06 845.08 746.56
00002761 00000011 578.94 222.07 410.71 681.19 683.63 489.84 878.55 514.43 769.16 649.16 679.42 726.69 848.82 745.84
00002762 00000012 579.77 221.36 411.66 681.72 684.88 489.72 879.33 514.28 770.13 649.43 679.82 726.01 848.96 745.40
00002763 00000013 579.93 221.85 412.74 681.70 686.26 490.51 879.74 514.63 771.44 651.21 681.34 727.06 848.75 746.28
00002764 00000014 581.19 222.77 412.70 685.08 688.61 490.40 881.68 515.72 773.67 652.30 683.10 727.47 850.57 747.80
00002765 00000015 582.20 224.68 411.73 683.17 688.55 490.75 881.51 515.68 773.46 652.69 683.19 728.35 851.57 748.56
00002766 00000016 581.20 223.74 411.55 684.90 687.01 489.96 882.60 514.78 772.62 650.10 679.85 724.02 856.38 744.19
00002767 00000017 577.14 221.76 411.38 682.42 682.23 491.07 880.42 514.22 768.46 648.16 675.55 719.67 858.51 738.15
00002768 DELETE   573.76 221.83 413.64 682.94 679.11 495.57 879.29 516.54 766.19 649.94 672.65 719.78 860.13 736.22
00002769 00000019 572.95 222.76 412.29 684.85 677.12 505.40 873.44 525.29 763.61 651.09 670.66 720.08 857.04 735.45
00002770 00000020 569.31 220.53 412.19 684.49 672.02 499.78 871.28 520.60 757.47 647.52 664.20 719.21 851.74 735.22
00002771 00000021 566.37 220.50 411.94 681.91 666.23 497.61 868.77 515.94 753.49 646.56 659.82 719.71 849.15 733.63
00002772 00000022 566.14 220.61 410.96 682.97 666.69 497.66 868.04 514.80 753.99 646.91 660.34 720.91 848.24 734.00
00002773 00000023 564.25 218.78 411.74 687.38 665.16 495.83 865.07 511.76 751.75 644.86 661.03 724.36 843.72 736.39
00002774 00000024 564.66 217.11 412.29 688.59 666.67 493.50 867.34 511.30 753.58 643.90 663.88 729.20 838.94 742.76
00002775 00000025 566.46 218.27 410.97 681.04 667.43 493.75 868.73 510.82 754.68 644.85 666.66 730.10 837.43 743.27
00002776 00000026 568.37 217.83 409.60 682.54 669.20 493.27 869.34 511.03 755.06 644.40 665.81 729.68 836.55 743.42
00002777 00000027 569.41 219.00 410.88 687.27 668.98 494.27 871.19 512.61 755.44 647.67 664.81 733.16 839.05 747.39
00002778 00000028 571.32 220.04 410.45 686.71 670.22 494.45 871.54 513.56 755.33 649.40 665.57 731.97 841.11 746.81
00002779 00000029 571.30 221.02 410.72 683.19 670.15 492.86 870.52 512.55 754.17 648.49 667.00 731.66 839.15 747.15
00002780 00000030 572.25 220.17 410.36 683.74 670.41 493.39 869.59 512.52 754.15 650.27 669.95 733.65 838.28 748.63
00002781 00000031 571.80 221.34 410.46 681.50 670.79 494.97 869.21 513.66 755.35 652.92 671.90 734.72 838.40 749.28
00002782 00000032 571.00 221.68 410.92 680.09 669.77 494.86 869.06 513.85 754.50 652.82 670.67 734.65 836.94 749.47
00002783 00000033 570.27 222.81 410.33 679.22 669.13 495.46 867.72 514.44 753.81 652.54 670.16 735.23 835.38 750.17
00002784 00000034 568.60 222.33 410.92 680.75 668.24 495.71 867.23 514.19 754.19 652.79 668.88 736.11 834.65 750.74
00002785 00000035 567.47 224.75 411.63 680.92 665.76 499.04 868.14 518.17 752.73 659.46 664.71 739.03 833.62 754.25
00002786 00000036 565.65 225.57 411.67 679.70 664.39 499.47 866.04 518.62 751.58 659.86 662.55 739.17 830.93 754.60
00002787 00000037 563.76 224.23 411.97 681.97 662.40 498.99 864.73 518.08 750.08 659.21 660.13 740.30 829.61 755.78
00002788 00000038 562.29 224.91 413.75 684.64 661.37 499.86 863.26 519.20 749.21 660.12 659.09 741.63 828.31 757.35
00002789 00000039 560.23 225.83 413.92 683.29 659.70 502.23 863.12 521.93 748.42 658.77 655.36 735.99 832.21 751.82
00002790 00000040 557.53 226.17 416.43 683.86 659.35 502.84 862.96 523.31 748.27 656.85 651.00 729.94 835.64 746.22
00002791 00000041 555.65 227.42 416.60 678.78 657.55 502.27 861.96 522.73 746.63 656.05 649.30 729.60 832.01 745.89
00002792 00000042 556.30 226.63 414.28 671.45 655.29 500.97 860.12 520.47 744.85 658.54 650.67 731.44 828.11 747.17
00002793 00000043 557.12 224.77 413.63 675.61 653.81 500.74 858.44 520.04 743.39 661.83 653.54 738.80 824.57 754.56
00002794 00000044 557.80 225.46 413.51 680.26 653.62 500.25 857.03 519.86 741.85 662.65 654.20 743.28 821.51 759.45
00002795 00000045 557.18 224.35 413.44 680.39 654.32 499.76 856.16 518.78 742.64 659.38 654.71 740.36 821.85 755.87
00002796 00000046 556.08 223.86 414.06 683.65 653.36 498.22 854.90 517.16 742.19 658.39 653.03 740.10 821.59 755.35
00002797 00000047 556.21 224.98 413.64 683.40 653.73 499.66 854.42 519.42 741.79 658.67 651.28 738.73 821.70 754.65
00002798 00000048 554.30 224.94 414.34 679.23 650.78 499.60 853.18 519.32 740.11 656.47 647.29 735.23 820.96 751.08
00002799 00000049 555.07 226.37 413.13 672.94 650.58 499.10 852.99 519.78 738.93 656.99 646.40 734.50 817.56 751.37
00002800 00000050 555.12 225.95 413.07 672.85 649.63 499.46 853.19 520.32 738.33 658.23 646.33 734.85 818.76 751.79
00002801 00000051 554.91 225.64 412.78 673.49 648.89 500.66 852.33 521.07 738.06 659.99 647.11 736.71 818.33 753.28
00002802 00000052 554.24 228.08 413.07 675.46 647.50 503.09 849.93 523.25 734.87 664.92 646.99 741.83 814.96 758.35
00002803 00000053 554.03 226.07 412.94 681.14 645.94 503.83 849.46 524.87 733.41 665.34 643.26 740.41 817.07 757.41
00002804 00000054 552.78 226.14 413.61 681.68 645.52 503.53 849.50 525.16 733.73 663.30 639.69 736.17 818.97 753.64
00002805 00000055 552.10 228.27 413.37 681.64 645.41 504.79 849.24 526.43 733.68 665.84 639.15 737.76 817.80 755.33
00002806 00000056 552.99 229.81 414.12 683.19 644.40 507.62 848.43 527.36 732.58 668.99 642.07 743.79 816.65 759.94
00002807 00000057 553.01 230.50 414.11 681.94 644.43 508.12 848.78 527.45 732.01 670.37 643.93 745.75 816.75 761.54
00002808 00000058 553.87 228.98 413.71 680.64 644.32 508.09 848.20 528.42 730.54 670.06 643.79 746.40 813.53 763.01
00002809 00000059 554.20 228.66 412.80 682.28 643.98 508.85 846.97 528.26 729.80 669.88 644.35 747.97 812.67 763.80
00002810 00000060 554.52 230.17 412.83 684.61 645.41 508.48 847.70 529.00 730.72 671.20 644.81 750.07 812.20 766.86
00002811 00000061 555.21 230.32 411.56 679.73 644.65 507.99 848.39 528.03 732.18 669.91 643.38 746.81 814.86 763.09
00002812 00000062 554.26 230.16 411.61 675.25 644.54 507.32 848.62 527.49 732.18 669.31 642.64 743.38 814.57 759.87
00002813 00000063 553.80 230.74 411.39 677.94 643.42 508.42 846.32 528.98 728.52 670.56 641.68 745.15 811.93 762.01
00002814 00000064 553.54 229.34 410.78 678.51 642.41 507.82 845.40 527.56 727.42 670.17 641.94 745.58 811.25 761.76
00002815 00000065 552.83 230.09 409.86 676.29 640.02 506.89 843.11 526.60 724.13 670.25 640.76 745.71 808.95 761.94
00002816 00000066 549.46 230.96 411.11 676.60 637.37 506.56 840.85 526.21 721.29 669.68 637.06 743.40 808.27 759.54
00002817 00000067 548.55 230.71 411.72 684.46 636.06 507.07 839.96 526.52 719.98 671.53 635.55 745.83 808.69 761.85
00002818 00000068 548.15 230.96 413.22 689.76 635.58 509.17 838.98 528.66 718.69 673.08 635.31 748.48 808.52 764.53
00002819 00000069 546.08 229.95 413.11 690.14 633.46 507.09 837.35 527.34 716.77 671.75 632.21 746.31 806.88 763.05
00002820 00000070 543.86 230.10 413.62 687.32 632.65 506.78 837.15 527.58 716.03 671.54 630.08 742.92 807.53 760.04
00002821 00000071 541.93 228.39 414.39 693.92 633.03 510.87 837.76 533.97 714.81 673.39 627.50 743.60 805.69 762.34
00002822 00000072 542.34 227.27 411.36 692.88 630.12 517.82 832.84 539.43 712.71 672.58 627.80 743.32 806.43 760.43
00002823 00000073 541.69 227.51 412.09 690.77 629.63 518.08 831.61 539.65 712.17 672.05 628.33 741.66 807.62 758.69
00002824 00000074 540.14 226.98 412.07 690.30 628.21 514.43 832.05 536.95 711.72 672.97 625.87 740.07 806.58 758.10
00002825 00000075 536.50 226.20 412.99 690.35 627.16 512.69 832.10 535.35 713.25 671.93 623.26 737.45 805.85 755.84
00002826 00000076 534.21 226.80 415.17 686.04 627.63 511.88 831.34 533.49 714.25 669.21 623.51 733.10 807.37 750.47
00002827 00000077 531.60 226.81 414.98 685.28 627.34 507.98 828.79 530.18 713.03 666.38 622.95 728.79 807.66 746.70
00002828 00000078 529.14 224.69 413.45 687.73 624.99 506.63 826.60 528.33 711.62 665.15 621.33 726.49 808.73 743.94
00002829 00000079 527.24 223.74 413.78 686.48 624.48 505.74 825.37 526.46 711.13 664.61 620.02 723.12 809.19 739.90
00002830 00000080 527.19 221.60 413.24 685.64 625.21 502.94 825.06 523.02 712.11 660.23 620.10 717.12 811.79 733.18
00002831 00000081 525.72 215.74 413.74 688.64 622.95 498.17 825.19 516.61 711.58 658.41 619.11 713.62 814.26 728.40
00002832 00000082 526.74 212.21 413.24 689.20 622.10 496.58 823.50 513.13 711.27 654.45 621.55 713.46 813.45 726.57
00002833 00000083 527.86 210.40 414.21 687.59 623.89 493.22 823.96 507.15 713.15 647.36 623.15 709.22 815.92 719.91
00002834 00000084 530.54 207.88 414.35 684.05 626.71 490.11 827.33 503.83 716.25 642.92 625.51 707.30 818.80 717.75
00002835 00000085 534.28 206.87 413.31 680.68 629.17 490.67 829.00 504.11 718.25 640.65 629.27 706.98 820.81 716.99
00002836 00000086 538.08 204.99 412.24 680.69 631.91 489.03 833.34 503.76 720.59 638.17 629.89 705.96 822.92 716.92
00002837 00000087 539.06 205.21 412.22 679.92 633.76 488.11 834.56 503.75 722.01 636.99 631.08 706.04 823.07 717.69
00002838 00000088 539.97 205.48 411.24 678.56 634.94 487.54 835.67 503.76 723.31 636.70 631.74 706.32 822.57 718.57
00002839 00000089 540.81 204.42 411.67 679.03 636.63 486.81 837.17 503.93 723.80 636.36 632.38 706.69 821.95 719.67
00002840 00000090 540.62 209.15 412.38 676.92 637.03 488.53 838.18 505.62 725.41 638.74 632.35 707.99 823.00 720.99
00002841 00000091 543.24 210.51 410.14 675.35 639.27 490.11 838.83 507.62 726.82 640.03 634.21 708.54 823.01 721.88
00002842 00000092 544.70 210.82 411.15 674.89 642.40 487.50 842.33 507.10 728.97 638.33 636.15 707.67 824.90 722.57
00002843 00000093 547.04 207.98 411.46 677.31 644.46 484.33 845.41 505.23 729.41 636.62 637.33 705.91 827.57 721.85
00002844 00000094 550.88 207.47 411.14 677.22 648.55 483.32 848.38 505.10 732.85 633.83 642.07 705.75 828.94 722.16
00002845 00000095 552.46 206.60 410.52 678.16 650.59 481.05 850.15 502.18 736.43 630.58 643.45 704.74 830.98 720.47
00002846 00000096 555.24 207.38 410.92 676.66 654.96 478.85 854.20 498.61 740.69 628.06 648.05 704.34 834.97 718.89
00002847 00000097 559.55 204.16 410.66 679.64 659.37 475.79 859.38 494.46 745.35 625.14 652.74 704.60 839.43 718.07
00002848 00000098 560.30 202.54 410.77 680.16 661.82 474.31 861.18 494.67 747.23 624.28 653.35 702.65 840.10 717.51
00002849 00000099 562.47 204.05 409.92 681.42 664.59 475.53 865.40 497.73 749.69 626.39 654.11 705.06 841.54 721.47
00002850 00000100 562.86 206.08 410.79 681.53 666.15 477.14 867.03 500.24 750.36 628.87 654.65 706.68 841.83 723.99
00002851 00000101 561.77 206.67 411.43 681.17 665.84 475.60 867.23 499.56 750.08 628.00 653.20 705.86 841.00 723.84
00002852 00000102 562.19 206.39 411.05 680.59 666.46 475.20 866.07 499.45 749.48 627.66 654.69 706.60 838.33 724.72
00002853 00000103 562.69 205.87 410.83 679.55 665.38 476.90 865.31 500.92 749.18 629.69 657.76 713.89 833.00 732.08
00002854 00000104 564.76 203.91 409.29 680.20 666.79 476.76 863.59 500.55 748.64 628.85 663.09 716.69 829.12 734.91
CROP_BBOX: 192 0 1375 1080
