Video ID: 	11GFLMRq9ZQ
H: 	1080
W: 	1920
FPS: 	30.0

FRAME INDEX X0 Y0 W H [Landmarks (5 Points)]

00002015 00000000 354.23 128.45 473.04 671.02 599.62 370.75 788.49 391.59 759.35 518.89 593.03 623.29 750.85 640.71
00002016 00000001 353.04 129.68 475.19 672.65 600.41 373.61 788.29 394.88 759.38 523.23 591.36 627.40 747.36 645.37
00002017 00000002 352.01 131.43 475.74 673.10 601.37 377.16 787.61 398.02 760.03 528.08 590.24 630.28 745.06 648.23
00002018 00000003 352.20 133.63 474.84 672.15 600.50 379.21 786.68 399.91 759.51 529.68 587.67 632.27 742.58 650.27
00002019 00000004 350.62 133.57 475.81 673.07 600.17 380.19 785.30 401.19 758.27 531.48 587.80 633.93 741.07 652.18
00002020 00000005 349.81 134.53 475.91 672.70 599.62 380.71 784.77 401.09 758.13 532.47 587.13 634.78 740.38 652.63
00002021 00000006 349.72 134.94 476.37 671.49 598.49 381.42 785.11 401.49 757.05 533.14 586.77 635.12 740.92 652.63
00002022 00000007 350.13 135.02 475.71 670.82 598.36 382.09 784.99 401.02 757.51 533.96 586.26 635.08 741.02 651.76
00002023 00000008 351.39 135.97 474.82 668.96 598.81 382.29 785.64 401.06 757.80 534.31 586.63 634.76 741.57 651.37
00002024 00000009 353.58 136.40 473.80 666.85 599.88 383.71 787.31 401.40 758.98 535.16 588.12 634.45 743.54 650.29
00002025 00000010 354.84 140.26 473.64 659.54 602.83 391.68 787.96 407.88 760.50 540.19 588.59 635.45 743.06 650.45
00002026 DELETE   342.92 146.41 485.72 654.65 594.35 396.72 787.94 415.05 757.29 538.94 575.46 635.90 742.92 652.23
00002027 00000012 345.45 143.81 483.73 656.70 598.34 395.11 789.30 413.78 759.85 539.89 578.35 635.63 743.11 652.35
00002028 00000013 361.95 137.54 474.22 661.82 610.75 387.38 799.21 405.15 767.62 537.92 596.54 633.42 752.73 649.92
00002029 00000014 365.85 130.62 472.84 667.16 614.25 378.13 802.85 399.73 770.37 526.85 605.57 629.44 759.43 648.32
00002030 00000015 369.19 125.73 470.15 665.27 619.64 372.01 807.88 393.36 778.47 518.05 611.68 619.45 768.24 637.88
00002031 00000016 363.41 110.98 473.31 675.67 622.91 362.51 800.61 394.16 786.45 507.61 608.53 608.95 758.27 636.68
00002032 00000017 366.22 123.91 471.11 668.24 619.34 368.49 804.78 388.50 778.97 515.70 608.41 617.99 764.54 635.69
00002033 00000018 363.81 126.16 473.69 672.43 615.31 372.77 803.34 391.81 774.68 523.51 606.05 625.79 762.88 642.68
00002034 00000019 365.00 129.58 471.17 672.62 616.54 377.44 802.45 396.55 774.55 528.56 611.75 636.75 758.19 653.28
00002035 00000020 366.14 134.91 471.61 669.42 618.91 384.67 803.63 397.03 779.64 536.18 622.47 648.98 761.03 659.97
00002036 00000021 369.73 134.04 469.93 671.85 625.19 387.82 808.51 400.78 787.31 539.10 634.26 653.54 769.34 664.65
00002037 00000022 372.33 136.18 466.90 656.95 632.93 389.84 813.25 401.76 799.11 538.83 639.97 653.05 773.15 664.25
00002038 00000023 374.26 122.52 472.33 669.73 647.08 389.13 818.37 408.10 820.42 521.15 659.72 633.10 787.17 650.10
00002039 DELETE   382.58 127.33 475.16 661.56 670.67 387.40 824.73 391.92 839.90 522.10 678.36 634.74 794.62 638.52
00002040 00000025 399.35 125.91 464.07 655.14 686.33 383.63 831.40 389.51 850.90 513.24 694.92 626.62 801.88 631.68
00002041 00000026 403.84 124.47 457.71 654.16 694.07 377.88 831.72 383.35 858.72 510.26 698.68 623.45 802.66 628.51
00002042 00000027 400.86 123.64 460.21 657.07 686.34 374.55 828.22 376.17 853.59 510.71 688.07 624.11 800.82 626.30
00002043 DELETE   390.95 122.29 468.19 667.49 672.63 373.46 823.28 376.67 844.15 520.28 666.27 632.83 787.30 637.04
00002044 00000029 383.93 124.30 471.44 682.85 655.93 381.60 821.54 386.96 829.09 531.03 640.43 641.08 780.08 647.56
00002045 00000030 372.06 135.12 476.80 684.62 647.36 391.22 813.76 391.51 828.09 542.37 625.44 650.79 772.82 654.60
00002046 00000031 361.69 143.69 481.11 682.16 637.88 402.05 807.21 403.45 819.49 551.63 616.20 657.78 766.35 662.61
00002047 00000032 360.06 148.18 483.78 681.83 633.35 405.46 806.27 405.79 814.48 557.95 611.10 662.10 762.31 666.53
00002048 00000033 357.72 144.65 485.97 684.81 633.13 405.38 806.46 406.47 813.28 557.88 611.26 662.01 761.77 666.81
00002049 00000034 355.87 139.28 487.49 684.13 636.66 399.37 809.05 403.01 816.81 550.91 619.26 659.08 765.78 665.22
00002050 00000035 358.67 126.18 485.56 692.54 639.88 388.93 812.37 395.22 817.28 540.84 629.12 653.76 771.15 661.11
00002051 00000036 361.11 119.31 482.40 692.21 642.97 377.89 811.16 387.55 816.86 530.40 637.74 645.12 772.62 654.54
00002052 00000037 359.05 115.23 482.31 687.23 643.14 368.86 812.02 388.74 813.20 522.04 638.75 634.52 771.18 651.53
00002053 00000038 360.57 98.39 482.62 687.06 634.29 364.93 808.77 379.56 812.01 503.65 645.36 621.84 778.06 635.52
00002054 00000039 359.53 99.22 480.83 681.60 631.92 361.57 810.62 383.31 809.25 501.53 646.55 618.75 780.53 637.44
00002055 DELETE   359.82 99.01 478.41 680.40 634.41 359.76 811.05 382.73 806.19 502.66 648.55 618.76 779.68 638.30
00002056 DELETE   361.96 94.81 476.12 682.79 635.24 355.34 810.35 374.38 808.36 500.04 650.15 617.92 780.49 634.45
00002057 00000042 361.97 91.17 475.11 685.31 637.30 349.44 810.34 369.68 809.92 495.72 649.77 613.58 780.01 631.16
00002058 00000043 366.37 87.20 472.52 688.64 638.02 342.77 808.70 367.42 808.82 490.52 650.13 608.96 778.92 629.91
00002059 00000044 364.70 83.79 474.06 691.44 636.51 337.74 808.05 363.70 807.30 489.11 641.51 607.16 773.23 629.55
00002060 00000045 362.38 83.97 476.73 690.11 633.06 336.75 808.98 359.91 808.01 490.82 630.48 606.48 770.07 627.23
00002061 00000046 360.75 83.90 476.30 683.58 626.80 337.34 807.83 359.12 802.20 489.00 626.09 603.62 769.80 623.24
00002062 00000047 361.65 85.75 474.45 675.13 625.53 338.13 807.62 359.22 800.03 486.28 624.44 596.71 771.20 615.80
00002063 00000048 364.50 88.32 472.09 669.49 627.25 339.01 807.89 359.82 799.44 485.23 629.54 595.05 773.11 613.85
00002064 00000049 366.75 90.99 471.87 670.66 630.55 340.39 809.91 362.40 803.09 488.46 631.34 598.92 773.55 618.85
00002065 00000050 369.01 93.24 472.34 677.89 632.64 344.88 810.21 368.30 805.17 493.88 626.27 603.89 770.94 625.31
00002066 00000051 370.07 93.63 472.57 686.48 633.90 345.16 811.38 373.72 804.25 498.31 618.35 605.79 766.22 631.49
00002067 00000052 370.25 94.91 474.27 691.04 635.70 346.63 813.16 377.00 805.06 499.20 621.47 608.12 768.57 634.95
00002068 00000053 368.49 96.69 475.40 688.33 635.05 348.82 812.04 377.40 804.10 499.26 629.88 611.60 770.84 636.53
00002069 00000054 370.13 98.25 472.37 684.21 635.51 350.99 814.40 378.34 805.65 500.54 635.19 613.81 776.33 637.50
00002070 00000055 370.88 100.57 469.58 680.11 633.73 351.24 813.18 378.54 803.98 499.85 635.83 613.22 777.65 636.62
00002071 00000056 371.75 103.12 468.17 680.03 632.65 351.34 811.67 381.69 800.83 500.24 633.78 613.72 775.44 639.59
00002072 00000057 370.54 104.49 469.79 680.13 631.15 351.19 808.81 383.58 796.88 500.33 632.73 614.49 771.78 641.99
00002073 00000058 377.00 119.16 463.63 663.88 628.67 355.35 816.54 384.10 789.74 500.05 634.98 622.82 777.89 646.12
00002074 00000059 375.44 119.27 463.66 661.39 626.41 355.96 815.05 383.70 787.84 498.75 637.00 622.67 778.74 644.60
00002075 00000060 373.33 117.54 463.95 660.46 625.13 355.37 813.97 383.59 786.80 497.18 639.50 622.70 779.02 644.63
00002076 00000061 371.98 116.18 463.68 663.14 624.56 354.21 811.88 382.73 785.68 496.23 638.62 622.46 777.41 644.58
00002077 00000062 358.03 103.95 479.28 673.67 614.68 363.17 804.13 396.39 779.08 497.91 627.04 611.64 769.32 638.98
00002078 00000063 356.67 106.42 480.97 671.08 613.29 365.57 799.86 392.26 782.19 497.35 625.72 612.52 767.94 635.01
00002079 00000064 360.57 103.95 478.78 672.82 615.14 362.18 804.55 395.32 781.84 496.98 622.52 610.03 768.44 637.73
00002080 00000065 374.20 116.06 465.05 667.20 625.88 356.08 814.63 387.43 787.77 494.78 629.76 619.13 774.86 644.56
00002081 00000066 371.25 104.35 469.14 679.21 627.89 352.47 806.62 385.20 793.51 494.73 630.14 609.71 770.82 637.43
00002082 00000067 374.30 106.63 468.48 672.42 631.25 353.69 809.14 385.03 796.72 496.81 633.66 609.20 774.44 635.91
00002083 00000068 376.50 108.04 469.30 671.16 635.41 353.37 812.93 387.14 798.92 497.25 638.47 608.56 777.19 637.06
00002084 00000069 381.38 106.99 467.98 671.27 637.15 354.43 817.83 386.89 799.83 498.94 645.32 611.09 782.33 638.42
00002085 00000070 383.24 108.22 468.99 670.22 639.33 354.75 820.09 387.42 800.83 498.84 652.43 612.34 785.78 639.77
00002086 00000071 385.65 107.83 467.58 671.47 640.44 355.95 820.65 388.35 800.83 500.35 652.19 613.35 785.73 640.61
00002087 00000072 387.18 108.98 467.34 672.93 640.74 358.16 820.37 391.25 797.45 501.81 653.52 616.53 783.97 644.08
00002088 00000073 384.77 110.99 467.67 669.92 636.42 360.36 817.46 391.65 793.13 502.11 651.59 618.17 781.87 644.13
00002089 00000074 383.41 110.99 467.27 669.57 632.87 360.39 815.30 392.87 787.56 502.71 646.56 617.16 778.32 644.10
00002090 00000075 382.20 112.80 467.25 669.65 629.03 362.42 811.43 394.56 781.71 504.65 643.52 618.43 774.59 644.96
00002091 00000076 389.26 123.68 457.56 667.37 627.13 364.92 814.61 396.00 778.71 503.95 643.79 631.72 777.88 656.42
00002092 00000077 388.15 123.88 459.09 671.92 625.84 365.85 814.67 395.93 778.44 507.54 642.40 635.73 777.56 659.75
00002093 00000078 385.78 126.05 460.95 672.93 624.54 368.96 812.42 395.78 777.64 512.63 639.07 638.81 774.78 660.40
00002094 00000079 376.57 122.64 470.30 675.51 613.03 380.87 805.27 408.96 770.92 515.92 629.65 633.30 768.86 656.30
00002095 00000080 376.21 127.27 467.84 666.72 612.43 385.13 804.34 407.98 771.05 517.89 629.39 632.85 768.26 651.93
00002096 00000081 385.40 131.44 458.39 666.93 615.09 381.80 811.42 400.05 771.09 524.81 632.13 645.67 774.38 660.00
00002097 00000082 386.24 132.45 458.44 662.00 616.97 380.60 810.27 399.98 771.70 524.16 635.29 643.70 775.19 658.66
00002098 00000083 386.24 132.82 457.63 662.23 614.99 379.47 810.04 397.81 769.95 523.77 635.41 644.57 776.54 658.45
00002099 00000084 387.42 131.94 457.44 662.33 614.62 379.51 811.41 395.15 771.49 523.08 636.66 643.11 780.14 654.54
00002100 00000085 388.76 132.09 456.77 665.37 616.84 379.14 812.66 394.87 774.43 522.44 636.39 641.97 780.68 653.79
00002101 00000086 389.57 132.50 457.15 668.49 618.12 379.42 813.08 396.12 774.93 524.26 634.67 644.44 779.04 657.42
00002102 00000087 390.49 135.64 455.15 665.79 619.62 379.94 811.11 398.58 773.86 526.30 634.53 646.87 774.03 661.78
00002103 00000088 378.78 136.92 463.82 669.38 622.47 381.90 805.86 405.34 772.47 534.71 625.31 643.51 765.00 662.34
00002104 00000089 394.05 138.53 451.82 663.77 622.27 382.51 812.65 399.56 778.46 526.95 639.83 648.31 777.06 661.82
00002105 00000090 395.52 138.76 451.93 659.15 623.27 382.97 815.23 398.72 781.27 526.97 644.47 649.58 781.42 661.65
00002106 00000091 396.50 139.91 450.62 655.38 623.47 383.02 816.45 400.18 780.42 526.56 644.44 648.62 781.57 661.82
00002107 00000092 384.84 141.24 461.22 661.12 627.40 384.31 808.00 405.02 775.43 534.31 640.15 645.41 772.57 661.65
00002108 00000093 385.46 143.42 461.29 660.83 629.66 388.07 809.96 406.80 780.50 539.49 639.80 648.28 774.60 663.14
00002109 00000094 387.41 144.71 459.11 660.38 632.20 387.86 810.61 411.08 779.84 539.60 641.49 649.04 772.09 667.66
00002110 00000095 388.67 145.73 460.47 662.66 634.35 387.44 812.07 411.72 783.32 539.60 639.12 648.85 770.33 668.82
00002111 00000096 390.02 148.48 461.86 660.63 635.94 390.26 812.96 413.17 785.48 541.61 635.86 648.62 768.36 667.97
00002112 00000097 389.93 149.98 462.13 659.52 637.52 391.06 814.56 414.77 788.20 541.89 634.25 647.70 768.73 667.91
00002113 00000098 392.04 152.78 463.28 656.22 639.77 391.59 816.47 415.90 790.65 541.89 635.00 647.34 769.28 668.21
00002114 00000099 393.74 153.94 463.73 655.32 642.09 392.73 817.78 415.52 794.12 542.56 634.95 647.24 770.20 667.15
00002115 00000100 395.68 153.89 464.62 655.73 645.10 392.11 820.10 415.49 798.50 541.71 635.95 646.16 772.82 666.71
00002116 00000101 399.16 154.93 464.03 655.17 649.19 391.30 822.51 414.14 804.07 540.93 638.86 646.68 775.61 666.94
00002117 00000102 400.23 154.84 466.56 653.03 652.39 390.61 825.90 411.26 809.36 540.91 642.25 646.70 779.25 665.29
00002118 00000103 404.58 153.59 466.15 652.44 656.30 389.42 830.30 410.05 811.45 541.03 645.88 645.85 782.55 664.43
00002119 00000104 406.47 152.47 467.36 655.17 659.00 390.91 833.97 412.08 813.84 542.63 648.50 646.27 786.36 665.16
00002120 00000105 408.15 153.18 469.04 656.23 659.70 394.65 835.13 415.56 814.56 544.44 650.49 648.63 788.15 667.25
00002121 00000106 404.38 157.92 474.43 655.09 662.84 388.75 841.02 420.97 816.35 546.32 639.91 644.77 790.61 672.52
00002122 00000107 406.29 157.75 475.04 658.75 664.41 391.11 843.99 423.16 818.07 550.24 640.31 647.54 791.61 675.18
00002123 00000108 408.37 159.82 471.27 658.57 666.79 392.44 845.03 424.34 820.46 552.31 641.72 649.20 791.71 677.02
00002124 00000109 410.18 161.03 469.94 658.33 668.32 392.61 845.69 424.23 822.91 552.98 642.79 650.26 792.91 678.05
00002125 00000110 411.49 160.79 468.75 658.18 669.57 394.02 846.78 423.84 825.31 553.47 645.61 651.92 794.60 678.25
00002126 00000111 411.85 159.32 471.45 658.74 668.62 394.50 848.52 424.72 824.23 552.61 645.83 651.06 795.80 677.59
00002127 00000112 413.07 159.32 471.63 658.19 668.85 394.04 848.84 423.82 824.04 552.01 646.65 650.76 795.85 676.98
00002128 00000113 414.81 158.13 472.15 658.52 668.30 394.24 849.42 422.71 823.85 550.76 646.50 649.47 797.48 674.60
00002129 00000114 415.52 158.70 471.26 657.64 669.26 394.01 849.97 422.96 824.22 551.06 647.45 649.00 798.00 674.54
00002130 00000115 415.78 159.01 470.31 656.36 669.27 394.32 850.99 424.43 824.02 550.81 647.44 648.19 798.45 674.72
00002131 00000116 415.69 159.08 470.98 656.69 669.35 393.92 851.18 424.86 823.43 550.70 647.09 648.10 798.13 675.27
00002132 00000117 416.04 158.68 470.73 656.51 669.53 392.84 851.18 425.18 822.47 550.41 646.38 647.58 796.77 675.91
00002133 00000118 415.67 158.50 471.68 655.93 669.60 392.58 851.02 424.93 823.10 550.06 646.20 646.60 797.01 675.04
00002134 00000119 414.96 161.03 470.48 652.31 668.95 397.64 850.30 430.84 821.71 550.52 645.79 646.22 796.31 675.31
00002135 00000120 414.87 160.54 475.85 653.92 664.99 398.07 850.80 432.89 821.09 546.71 644.63 644.63 799.43 673.64
00002136 00000121 415.36 161.65 474.14 653.97 666.17 396.15 852.35 432.38 820.49 549.34 642.51 645.03 798.04 676.01
00002137 00000122 416.32 157.04 468.73 660.76 671.67 393.46 852.09 424.74 827.23 549.83 645.16 646.85 799.35 674.70
00002138 00000123 415.80 153.41 471.37 665.90 670.17 391.15 853.55 422.11 826.13 549.56 643.88 647.25 800.29 674.57
00002139 00000124 417.44 152.35 470.47 665.44 671.60 390.76 854.23 420.32 827.95 548.98 647.20 646.54 803.34 672.55
00002140 00000125 419.44 149.62 470.99 667.39 673.26 391.12 855.86 419.48 829.79 548.56 648.79 645.94 805.57 670.90
00002141 00000126 421.90 148.72 472.29 667.56 674.57 392.06 858.34 419.90 830.62 549.01 650.51 645.90 807.64 670.56
00002142 00000127 423.32 146.50 473.34 669.99 675.84 392.09 860.66 419.07 832.72 549.05 652.76 646.25 811.27 670.07
00002143 00000128 424.23 145.59 473.48 670.85 678.04 392.26 862.13 420.08 834.34 549.53 656.83 647.14 813.05 671.57
00002144 00000129 424.52 144.89 475.84 671.38 678.72 392.79 864.54 419.43 836.08 549.91 659.07 648.10 815.81 671.72
00002145 00000130 427.76 141.83 475.32 673.83 680.69 392.31 867.43 416.81 838.07 550.01 661.76 648.04 818.44 669.88
00002146 00000131 428.24 140.77 476.62 674.40 681.41 391.34 869.06 415.94 839.51 549.21 663.81 647.54 820.54 669.36
00002147 00000132 429.90 138.75 476.69 677.45 683.66 390.72 870.54 414.54 842.57 548.65 666.40 647.83 822.87 668.88
00002148 00000133 433.87 138.91 474.30 680.22 685.85 390.37 872.73 415.49 845.13 549.05 667.12 649.55 824.44 671.81
00002149 00000134 436.92 143.58 470.64 678.61 686.68 393.74 874.74 423.06 844.15 548.99 670.54 653.75 824.93 679.36
00002150 00000135 434.82 143.10 474.76 672.66 689.01 398.06 873.21 422.09 850.02 545.93 680.67 651.66 829.87 672.79
00002151 00000136 439.17 138.25 470.20 673.67 697.91 391.76 879.56 418.75 856.26 543.75 694.74 647.39 837.57 670.06
00002152 00000137 445.12 135.43 468.63 673.60 710.46 385.47 881.86 413.47 863.75 538.11 712.72 645.94 841.31 668.84
00002153 00000138 449.21 136.38 470.48 674.32 716.74 385.68 885.96 407.80 874.44 537.94 720.67 648.54 848.10 666.94
00002154 00000139 451.81 138.53 467.73 672.40 717.01 387.18 884.98 405.93 876.64 538.09 724.26 651.34 849.95 666.90
00002155 00000140 452.58 140.29 466.79 671.21 714.99 390.61 884.00 406.36 876.46 540.52 722.10 653.27 849.04 666.74
00002156 00000141 444.71 140.06 472.57 675.74 709.00 393.93 881.13 407.55 873.40 544.41 713.75 655.73 845.87 667.86
00002157 00000142 441.41 139.98 475.86 682.43 702.58 397.38 879.06 414.86 861.96 550.87 705.35 660.41 841.36 675.70
00002158 00000143 439.58 147.39 476.53 677.81 689.80 404.13 875.41 420.95 849.40 555.25 694.72 666.06 836.69 681.04
00002159 00000144 430.78 154.17 479.15 676.14 679.74 410.98 870.55 429.65 839.53 564.17 684.76 676.53 824.93 692.70
00002160 00000145 429.48 164.51 476.15 682.65 676.70 419.65 862.92 438.46 837.06 574.37 677.39 684.24 817.14 700.65
00002161 00000146 430.06 171.97 478.06 683.81 674.48 427.18 862.85 443.99 836.19 581.72 679.58 692.13 819.53 706.80
00002162 00000147 434.61 173.58 476.37 684.47 680.02 431.43 866.32 445.03 840.99 584.40 687.59 695.97 823.49 708.13
00002163 00000148 442.76 168.50 470.88 684.91 688.53 428.19 874.42 439.79 850.63 579.51 697.06 694.62 832.91 705.47
00002164 00000149 445.84 166.99 468.17 680.96 694.49 424.06 878.31 437.20 857.10 575.23 703.65 689.31 838.04 701.46
00002165 00000150 445.33 159.96 472.19 679.67 692.35 420.75 877.82 429.76 856.70 571.83 699.30 685.02 836.47 694.32
00002166 00000151 438.58 153.94 476.20 684.32 688.08 414.33 874.29 428.71 849.56 567.75 690.84 680.40 828.86 693.69
00002167 00000152 431.43 155.62 479.50 682.04 682.26 414.31 869.33 428.69 844.85 568.80 681.77 679.51 822.76 692.76
00002168 00000153 425.86 160.55 480.39 679.66 678.24 418.72 864.16 433.42 839.83 573.03 675.75 680.65 815.49 694.13
00002169 00000154 424.21 168.38 481.20 686.56 676.73 425.40 861.72 441.78 837.28 581.96 671.58 688.22 811.55 703.01
00002170 00000155 425.15 172.92 482.47 689.09 676.66 432.90 862.37 445.62 838.13 589.51 671.47 693.99 812.43 706.13
00002171 00000156 428.97 177.52 481.50 688.58 679.81 438.36 866.78 448.13 844.04 594.67 674.40 698.09 817.58 708.29
00002172 00000157 431.18 177.84 481.16 686.58 683.74 437.81 870.24 448.69 846.89 594.86 673.20 695.90 818.30 707.36
00002173 00000158 430.78 174.07 480.86 681.38 684.37 434.54 871.13 443.78 849.00 590.03 672.79 686.87 823.08 696.98
00002174 00000159 428.39 171.57 480.03 667.72 681.22 427.46 869.45 437.88 848.15 581.04 671.29 678.11 823.68 689.11
00002175 00000160 427.36 162.21 480.74 671.12 678.23 419.16 868.98 431.42 844.61 572.87 665.53 670.35 821.98 682.74
00002176 00000161 423.71 157.29 483.49 674.78 677.15 410.22 868.77 428.23 842.69 567.48 660.53 665.11 819.06 682.17
00002177 00000162 423.71 157.05 483.33 675.78 677.54 407.69 868.10 427.23 841.63 566.53 657.12 663.22 816.89 681.62
00002178 00000163 424.91 157.66 484.09 674.12 678.37 407.95 869.75 427.46 841.82 565.95 658.28 661.58 819.10 679.95
00002179 00000164 427.88 157.99 483.57 670.98 679.26 410.15 871.87 427.53 843.61 565.10 661.56 660.83 822.82 677.45
00002180 00000165 427.90 157.21 483.48 671.71 680.05 410.39 871.75 427.01 843.79 565.30 660.96 659.43 822.98 675.55
00002181 00000166 425.61 157.33 482.53 671.82 679.31 407.09 869.19 428.94 841.11 564.12 659.02 657.62 819.37 677.76
00002182 00000167 424.05 157.74 482.57 670.48 677.04 405.62 866.60 427.83 838.08 562.13 657.15 656.60 817.76 676.92
00002183 00000168 422.77 155.29 481.23 674.60 675.53 403.35 863.56 426.18 836.43 561.33 654.77 657.74 815.13 678.38
00002184 00000169 422.93 156.62 478.59 673.22 675.08 402.09 861.69 426.27 835.10 559.59 656.98 658.05 814.85 679.58
00002185 00000170 423.92 156.52 476.68 673.97 674.54 402.17 860.79 424.75 835.89 558.72 657.17 658.34 816.13 678.57
