Video ID: 	bWntAfSJwFw
H: 	1080
W: 	1920
FPS: 	30.0

FRAME INDEX X0 Y0 W H [Landmarks (5 Points)]

00053562 00000000 673.31 105.32 490.97 694.34 894.50 414.79 1091.67 382.15 1073.74 499.47 971.14 648.52 1119.51 620.09
00053563 00000001 667.64 104.11 495.47 703.47 889.98 413.11 1088.78 383.49 1069.62 496.87 968.51 650.64 1116.32 624.36
00053564 00000002 663.72 96.38 497.79 713.77 885.98 412.66 1088.60 382.99 1067.07 496.66 960.17 649.69 1114.45 622.92
00053565 00000003 663.03 98.58 497.22 712.40 883.52 412.73 1089.23 383.15 1064.60 498.86 953.93 649.97 1112.01 623.33
00053566 00000004 665.20 98.12 493.57 712.95 882.02 413.19 1089.12 382.93 1063.09 499.69 949.67 649.15 1111.21 621.93
00053567 00000005 673.72 98.75 484.06 704.30 879.40 412.57 1087.80 382.87 1055.06 502.44 940.61 644.17 1104.98 617.70
00053568 00000006 670.50 94.16 483.90 708.54 875.04 415.25 1086.30 386.19 1050.08 508.43 930.73 643.48 1101.87 617.25
00053569 00000007 670.60 99.17 485.73 706.76 871.20 417.35 1085.25 392.21 1041.27 515.11 922.83 644.34 1096.40 621.21
00053570 00000008 666.76 100.22 487.54 706.65 868.30 420.07 1082.19 396.88 1036.23 520.24 918.28 646.49 1091.37 624.77
00053571 00000009 665.37 102.44 491.83 709.92 868.24 422.04 1084.97 400.21 1035.40 525.45 916.00 651.41 1089.98 630.95
00053572 00000010 668.25 103.94 489.51 717.77 871.01 423.93 1086.02 403.87 1036.26 530.65 914.90 656.69 1087.80 637.75
00053573 00000011 669.35 106.91 490.96 722.42 881.78 424.45 1086.54 407.58 1041.75 538.20 917.27 661.15 1086.03 646.50
00053574 00000012 673.87 111.08 487.79 719.70 891.16 426.08 1092.32 405.56 1051.63 540.96 927.22 665.19 1092.13 647.58
00053575 00000013 682.00 114.04 485.24 726.40 901.69 427.06 1096.42 406.45 1059.90 539.33 941.87 671.05 1100.26 653.42
00053576 00000014 688.49 117.78 482.09 722.16 911.07 432.55 1101.26 408.65 1070.50 540.28 956.44 676.91 1107.95 656.69
00053577 00000015 695.85 124.59 477.78 717.62 917.52 437.65 1103.54 412.86 1075.60 544.85 963.25 678.87 1111.67 658.00
00053578 DELETE   696.39 127.34 481.74 716.24 920.44 444.46 1108.79 414.94 1082.57 551.78 966.10 684.38 1114.01 660.05
00053579 00000017 696.70 125.52 486.51 723.07 921.79 446.13 1115.96 419.30 1086.88 556.33 968.21 687.78 1121.70 664.90
00053580 00000018 698.10 130.02 488.56 717.24 924.48 449.64 1118.25 419.98 1090.96 558.31 975.17 690.76 1127.13 665.47
00053581 00000019 700.71 127.88 489.67 722.53 932.87 454.54 1124.12 421.14 1102.98 563.24 985.87 694.40 1135.91 665.98
00053582 00000020 705.86 133.22 487.75 722.74 941.39 456.60 1129.43 418.95 1116.06 568.61 993.95 701.81 1140.28 670.36
00053583 00000021 713.54 124.59 484.46 728.88 944.33 461.51 1139.15 424.27 1128.07 565.68 996.99 697.37 1152.99 665.01
00053584 00000022 716.59 125.38 485.09 730.31 955.74 462.40 1143.99 422.05 1140.32 564.76 1007.89 698.87 1159.65 664.38
00053585 00000023 718.22 120.24 485.46 735.31 961.86 461.88 1149.15 417.92 1148.73 563.07 1011.38 698.34 1163.77 661.13
00053586 00000024 718.64 119.63 484.45 722.21 964.87 461.14 1149.24 415.24 1152.22 557.64 1018.75 692.29 1167.41 653.56
00053587 00000025 720.31 117.60 484.28 715.83 961.98 456.17 1147.97 411.77 1147.79 550.63 1017.27 683.19 1168.29 645.89
00053588 00000026 715.74 108.42 493.54 710.69 954.33 447.38 1152.18 405.29 1146.57 543.58 1017.37 679.79 1169.20 642.85
00053589 00000027 715.94 100.72 491.38 715.38 949.34 440.74 1148.36 399.81 1140.02 535.38 1011.21 672.42 1163.06 636.55
00053590 00000028 714.28 106.02 485.14 710.07 949.19 435.18 1135.54 394.25 1125.58 535.17 1004.33 671.41 1148.17 637.22
00053591 00000029 709.76 104.64 486.41 712.02 943.01 432.60 1133.58 393.13 1120.86 531.87 999.68 670.93 1147.66 637.72
00053592 00000030 708.44 106.14 485.61 711.31 940.21 433.16 1130.61 393.77 1117.34 532.28 998.13 671.24 1146.29 638.00
00053593 00000031 708.30 104.83 485.56 718.27 942.43 437.11 1128.54 394.72 1119.11 534.28 998.66 675.09 1144.27 639.66
00053594 00000032 705.92 106.90 488.28 718.42 940.80 442.79 1126.46 398.33 1117.50 538.31 999.52 678.58 1143.39 641.48
00053595 00000033 702.81 110.29 490.89 719.74 936.63 448.88 1121.56 401.96 1111.89 543.87 998.72 685.01 1139.70 645.82
00053596 00000034 695.90 113.11 493.98 719.35 927.26 450.37 1114.50 404.55 1100.57 545.18 990.26 687.39 1133.40 649.21
00053597 00000035 690.29 109.03 489.06 719.70 915.91 444.91 1109.16 400.84 1090.42 543.87 966.21 680.42 1121.57 644.01
00053598 00000036 677.93 107.62 494.50 708.73 898.89 429.10 1097.87 392.94 1070.73 529.58 946.21 662.70 1107.46 632.78
00053599 00000037 666.05 92.90 497.33 719.07 879.66 410.33 1089.25 384.76 1056.45 503.71 936.12 642.99 1105.55 619.81
00053600 00000038 658.82 78.30 503.60 732.17 873.21 393.74 1085.77 369.27 1051.44 491.00 926.24 631.89 1103.64 609.57
00053601 00000039 658.57 70.13 502.63 729.82 870.19 385.62 1083.40 363.38 1045.76 484.15 918.05 620.63 1101.02 600.27
00053602 00000040 660.11 69.91 503.60 724.69 874.78 383.70 1086.80 359.30 1054.02 481.46 919.40 616.69 1105.17 594.98
00053603 00000041 657.14 69.42 510.57 719.56 880.45 385.95 1089.88 357.35 1062.61 482.31 925.21 615.87 1107.65 591.05
00053604 00000042 661.82 71.34 508.55 714.63 885.65 387.71 1091.92 357.24 1067.09 482.00 931.97 616.66 1110.20 590.72
00053605 00000043 667.55 72.08 503.98 710.07 889.34 389.53 1093.09 358.75 1069.42 481.93 940.92 616.95 1113.64 590.51
00053606 00000044 671.86 74.23 501.12 707.81 894.21 391.41 1095.52 360.92 1072.53 483.50 945.65 618.37 1114.92 592.27
00053607 00000045 676.17 76.55 499.36 706.17 896.98 391.59 1098.25 360.31 1075.25 484.69 948.40 620.32 1116.73 593.95
00053608 00000046 673.27 77.99 502.23 705.70 899.72 391.27 1100.29 358.61 1081.49 483.24 951.59 622.25 1119.19 595.06
00053609 00000047 673.06 77.65 505.53 709.08 905.03 389.21 1101.84 355.28 1087.56 480.64 958.54 623.64 1122.51 595.56
00053610 00000048 674.87 79.00 506.90 707.33 909.59 387.41 1103.71 354.56 1092.25 476.95 964.85 621.21 1127.43 593.89
00053611 00000049 678.75 79.34 504.87 704.89 911.57 388.36 1105.63 354.99 1094.74 477.88 968.94 621.99 1131.11 594.18
00053612 00000050 680.58 81.53 501.68 697.69 913.30 392.79 1107.40 358.30 1096.21 482.85 968.66 622.40 1130.26 593.64
00053613 00000051 681.52 82.42 501.55 696.46 913.52 397.57 1109.68 360.56 1097.68 488.86 968.13 625.85 1129.45 595.29
00053614 00000052 680.45 82.79 504.46 700.16 913.58 400.28 1112.29 365.01 1097.04 494.28 967.24 629.03 1129.70 599.88
00053615 00000053 682.42 82.38 505.40 709.78 915.25 403.52 1115.02 371.36 1099.06 498.43 967.21 635.00 1131.20 608.16
00053616 00000054 684.79 84.26 506.07 721.56 914.33 406.73 1115.80 377.85 1097.27 502.10 968.31 644.35 1131.87 619.79
00053617 00000055 685.98 90.85 505.53 720.53 913.28 414.54 1117.03 381.14 1098.92 509.10 972.24 652.61 1137.10 624.27
00053618 00000056 691.76 99.99 500.90 713.08 927.87 421.42 1116.37 383.67 1106.02 513.01 970.62 654.46 1127.81 623.44
00053619 00000057 692.69 97.02 496.84 713.59 915.83 419.94 1119.16 387.99 1098.26 519.21 975.15 658.24 1137.77 630.75
00053620 00000058 694.68 101.28 493.51 705.52 916.32 422.67 1120.17 389.88 1097.91 521.52 978.22 659.44 1139.33 631.14
00053621 00000059 697.58 104.85 490.83 698.27 915.19 425.47 1119.90 391.02 1095.84 522.76 979.76 659.74 1140.75 630.04
00053622 00000060 697.88 104.30 490.03 698.86 916.18 426.13 1120.95 392.87 1096.73 523.59 981.84 660.77 1142.34 631.83
00053623 00000061 697.56 106.28 490.77 697.06 916.52 426.59 1121.13 393.87 1097.16 524.11 983.56 661.32 1143.16 632.84
00053624 00000062 697.45 106.38 491.25 699.16 917.29 427.25 1121.66 395.62 1098.21 524.51 983.69 662.27 1142.87 634.83
00053625 00000063 700.15 103.11 490.74 706.59 930.23 425.36 1123.94 392.34 1105.37 521.84 984.81 661.55 1136.03 633.62
00053626 00000064 698.10 103.31 492.61 703.15 922.03 428.25 1125.00 395.91 1104.12 525.52 990.46 665.39 1146.61 637.13
00053627 00000065 700.82 99.92 490.00 708.01 932.81 425.01 1126.41 391.33 1108.62 520.82 989.92 660.39 1139.30 631.73
00053628 00000066 702.93 100.59 488.35 711.52 934.41 423.57 1126.62 390.60 1109.63 519.48 990.18 660.36 1139.88 632.25
00053629 00000067 702.86 100.88 489.26 716.19 933.68 421.67 1126.87 390.27 1108.58 518.28 989.42 660.98 1141.27 633.99
00053630 00000068 706.00 103.86 483.97 711.78 932.55 420.98 1124.91 391.71 1103.88 516.89 987.59 659.72 1136.69 634.51
00053631 00000069 706.93 101.70 484.91 716.14 933.93 419.43 1124.36 390.96 1104.20 515.94 987.46 659.90 1135.79 635.49
00053632 00000070 705.56 98.53 488.56 719.37 934.79 419.06 1123.58 391.21 1104.89 513.92 986.84 658.12 1134.67 634.44
00053633 00000071 704.98 98.46 489.71 722.62 934.92 419.16 1124.42 391.07 1105.93 514.50 985.63 658.79 1135.72 634.86
00053634 00000072 706.02 97.76 488.29 722.70 935.48 419.42 1124.62 391.55 1106.33 515.10 985.11 658.48 1135.38 634.75
00053635 00000073 705.96 98.57 488.11 720.63 935.45 419.52 1124.51 392.21 1105.80 516.18 984.40 659.03 1134.02 635.88
00053636 00000074 704.55 105.91 485.12 699.63 935.29 428.11 1120.63 398.21 1103.38 519.40 982.21 656.19 1127.41 631.44
00053637 00000075 701.17 106.13 485.73 690.87 923.63 440.07 1123.84 405.68 1103.98 526.60 975.39 658.74 1136.84 629.83
00053638 00000076 698.44 106.38 487.76 689.95 921.84 442.87 1121.74 406.82 1102.00 527.46 974.51 659.37 1134.28 629.35
00053639 00000077 697.31 110.33 487.76 688.16 916.94 441.31 1120.75 407.91 1097.24 526.86 973.69 659.60 1136.33 631.48
00053640 00000078 698.10 110.29 486.43 687.35 918.80 438.74 1120.31 406.63 1096.65 527.97 978.11 661.58 1135.71 634.62
00053641 00000079 700.55 111.18 484.08 686.07 917.97 439.04 1118.64 404.95 1093.99 528.97 980.34 663.20 1136.77 634.27
00053642 00000080 699.73 112.26 485.10 685.60 915.48 440.25 1116.78 403.56 1092.91 530.40 979.07 664.52 1135.73 633.69
00053643 00000081 696.83 109.84 490.33 698.04 924.42 441.76 1110.56 399.49 1092.79 530.13 977.26 665.46 1124.19 630.92
00053644 00000082 690.52 104.31 491.83 704.53 909.25 442.60 1113.24 402.76 1088.00 535.19 972.47 670.33 1130.40 636.55
00053645 00000083 688.62 103.43 491.14 722.26 914.16 449.92 1102.13 405.47 1081.34 538.54 965.40 675.62 1115.42 639.39
00053646 00000084 685.67 108.96 487.82 720.22 908.78 454.48 1098.28 409.42 1077.34 543.00 960.86 682.17 1110.55 645.49
00053647 00000085 679.47 107.22 489.95 734.46 900.99 454.77 1097.16 413.95 1071.44 549.06 948.85 686.01 1108.08 652.20
00053648 00000086 672.33 107.80 492.87 740.50 892.09 456.14 1090.09 418.06 1062.14 553.13 939.64 686.64 1102.45 654.80
00053649 00000087 668.12 111.82 491.36 741.20 885.40 458.52 1084.47 421.49 1057.11 554.07 932.25 687.82 1098.64 656.75
00053650 00000088 663.82 110.27 493.90 745.46 883.65 459.48 1083.36 422.25 1056.00 555.25 930.28 687.51 1098.07 655.98
00053651 00000089 665.90 113.61 492.49 743.50 883.79 460.16 1082.33 422.15 1056.72 554.23 931.23 686.40 1099.91 654.06
00053652 00000090 669.18 115.69 492.79 738.93 889.55 458.38 1085.39 419.04 1063.11 551.44 937.80 684.87 1104.27 651.58
00053653 00000091 676.20 115.92 488.96 737.95 895.57 456.51 1089.64 415.32 1068.78 550.70 943.99 685.83 1108.18 651.26
00053654 00000092 675.36 112.21 494.58 739.33 901.86 455.40 1094.19 410.58 1076.84 547.30 950.73 686.82 1111.35 649.63
00053655 00000093 673.43 110.49 497.80 741.02 908.72 454.69 1096.03 407.60 1084.67 545.80 955.65 686.45 1112.12 647.74
00053656 00000094 676.70 110.02 495.39 741.52 911.29 453.30 1097.05 407.37 1085.64 544.28 957.09 685.77 1112.35 648.36
00053657 00000095 675.76 109.87 498.71 742.25 911.21 451.50 1099.12 406.48 1088.04 542.70 956.05 685.99 1113.93 649.54
00053658 00000096 676.52 109.39 498.03 742.80 912.12 450.83 1099.33 405.65 1089.00 541.25 956.16 684.42 1114.96 647.81
00053659 00000097 676.37 108.04 497.20 742.30 911.66 450.06 1099.28 405.09 1088.54 540.87 954.93 683.25 1114.44 646.84
00053660 00000098 675.14 108.76 498.49 739.72 910.79 450.62 1098.38 404.11 1088.56 540.20 955.41 682.93 1114.75 645.27
00053661 00000099 673.10 107.96 500.75 739.53 910.95 449.93 1097.87 402.59 1089.26 539.72 955.81 682.89 1114.26 644.61
00053662 00000100 672.75 108.30 501.65 736.57 910.36 450.37 1098.19 401.46 1089.56 538.69 956.58 681.27 1116.43 641.55
00053663 00000101 673.00 108.58 501.47 733.16 910.42 450.84 1097.63 400.74 1089.60 539.17 957.20 680.05 1116.77 639.35
00053664 00000102 671.58 106.67 502.50 732.81 910.94 450.77 1099.20 400.09 1091.16 538.49 956.63 678.45 1117.39 637.25
00053665 00000103 671.49 110.02 503.71 727.88 911.71 450.08 1099.06 398.89 1091.85 536.65 957.99 676.42 1118.90 634.87
00053666 00000104 663.40 102.31 512.53 718.91 902.89 446.63 1104.06 400.75 1091.75 539.27 957.09 667.36 1123.41 628.43
00053667 00000105 662.43 104.25 513.24 716.26 902.47 444.61 1104.50 399.18 1092.85 539.33 956.64 666.41 1123.98 628.07
00053668 00000106 663.12 104.88 511.49 715.23 901.53 443.35 1103.17 398.76 1091.40 537.09 955.99 665.65 1123.40 628.04
00053669 00000107 663.08 104.75 509.91 713.84 898.01 443.33 1100.83 397.73 1087.59 535.62 954.21 665.71 1120.97 627.33
00053670 00000108 662.06 107.43 509.98 710.92 895.39 443.22 1097.54 397.78 1085.04 533.56 953.72 665.84 1119.64 627.61
00053671 00000109 667.10 106.33 502.49 725.90 905.00 445.03 1091.89 392.55 1088.21 531.47 952.72 674.60 1113.37 632.38
00053672 00000110 661.09 104.40 510.45 714.22 894.45 442.16 1096.90 396.93 1084.06 532.36 953.85 665.74 1119.13 627.54
00053673 00000111 662.28 104.18 509.40 714.35 894.39 442.40 1097.06 397.04 1084.01 532.34 953.86 665.46 1119.68 627.18
00053674 00000112 662.68 104.12 509.05 715.14 895.48 442.25 1097.50 396.45 1085.36 531.57 955.04 665.61 1120.35 627.09
00053675 00000113 662.26 104.80 509.16 713.16 896.30 442.42 1096.88 396.02 1086.29 530.85 957.02 665.39 1119.81 626.60
00053676 00000114 662.25 104.80 509.93 712.09 896.26 441.51 1097.44 395.64 1086.00 530.29 957.94 665.17 1120.22 626.77
00053677 00000115 662.36 103.86 509.22 708.85 895.50 440.64 1097.40 394.98 1084.72 529.64 954.78 662.49 1119.37 624.29
00053678 00000116 663.92 106.77 507.66 700.26 894.46 440.07 1097.67 393.73 1083.50 528.60 955.16 660.37 1119.63 621.85
00053679 00000117 662.44 108.56 508.88 693.48 893.73 438.67 1097.34 390.58 1083.92 526.83 954.64 657.96 1119.43 618.16
00053680 00000118 663.81 107.93 505.98 690.50 893.46 437.56 1096.63 388.42 1083.81 522.86 955.44 655.74 1118.71 614.98
00053681 00000119 660.76 104.94 508.21 693.51 891.15 434.00 1093.58 384.12 1081.98 518.34 954.31 652.76 1117.04 611.48
00053682 00000120 656.91 101.61 510.27 695.89 888.94 429.12 1090.80 379.90 1081.15 513.55 952.45 648.60 1118.33 607.30
00053683 00000121 654.94 97.01 511.15 703.56 886.76 425.40 1088.62 376.67 1079.66 509.48 949.77 647.42 1118.53 606.24
00053684 00000122 651.78 95.19 513.04 710.67 887.58 421.60 1088.62 372.31 1084.02 506.40 947.29 646.61 1117.63 605.54
00053685 00000123 650.59 94.72 515.00 714.75 889.74 418.46 1088.20 368.20 1086.62 503.56 946.34 644.15 1116.85 602.79
00053686 00000124 647.22 92.96 519.38 712.87 890.07 414.13 1087.28 363.84 1088.09 497.09 945.68 639.00 1116.02 597.86
00053687 00000125 650.27 91.41 517.10 712.14 889.62 411.30 1087.53 360.16 1086.88 493.43 946.75 636.42 1119.20 594.41
00053688 00000126 652.76 88.07 512.39 710.10 886.71 409.80 1084.35 356.46 1082.13 487.38 945.62 633.05 1117.59 589.27
00053689 00000127 651.92 81.45 510.81 710.18 883.72 406.70 1081.51 354.20 1078.38 482.86 946.50 629.28 1118.03 585.62
00053690 00000128 650.57 76.62 509.04 708.27 879.50 400.83 1079.20 350.23 1073.39 476.97 944.76 625.61 1115.32 583.32
00053691 00000129 651.57 76.14 503.19 703.58 876.83 397.04 1075.46 348.16 1068.29 471.96 944.78 622.34 1112.93 581.15
00053692 00000130 646.33 70.72 507.55 696.15 873.00 392.10 1072.71 343.11 1065.39 464.94 945.70 614.66 1113.83 572.77
00053693 00000131 644.47 62.00 506.98 696.63 869.64 386.25 1070.18 338.67 1061.05 457.22 941.34 606.39 1112.34 565.40
00053694 00000132 637.60 60.94 511.82 692.07 865.89 383.51 1066.64 337.49 1058.06 453.09 935.41 602.63 1106.86 562.84
00053695 00000133 632.56 55.10 517.03 700.75 862.65 381.38 1063.88 335.85 1054.62 451.30 932.54 602.95 1103.62 563.40
00053696 00000134 626.90 54.88 519.17 700.14 859.51 381.58 1059.25 338.18 1049.50 451.58 928.69 603.09 1096.73 565.16
00053697 00000135 623.67 56.00 520.55 701.90 856.77 380.17 1055.34 338.82 1045.42 451.93 926.05 602.42 1093.80 566.11
00053698 00000136 620.68 59.83 521.39 698.02 851.36 378.94 1052.90 338.78 1040.07 449.59 921.53 603.04 1090.84 567.59
00053699 00000137 621.27 66.94 516.51 692.84 846.83 375.76 1048.31 334.93 1031.40 452.18 919.53 606.69 1082.88 572.58
00053700 00000138 619.50 67.25 515.87 693.07 843.84 377.18 1046.58 337.24 1029.65 451.90 916.28 607.84 1080.63 574.53
00053701 00000139 618.27 68.86 515.16 692.24 843.27 378.56 1044.56 339.83 1027.85 454.68 914.97 609.12 1078.09 576.72
00053702 00000140 616.79 68.93 517.86 695.16 843.11 378.22 1043.57 340.10 1027.54 454.67 915.44 610.24 1078.01 578.16
00053703 00000141 617.06 68.97 517.49 696.89 843.37 378.34 1043.46 339.98 1027.69 456.11 914.87 611.87 1077.18 579.73
00053704 00000142 617.25 66.97 517.86 699.53 844.10 378.46 1044.07 339.50 1028.58 457.17 915.70 613.30 1077.78 580.67
00053705 00000143 616.61 65.67 518.87 699.96 844.86 378.32 1044.99 338.19 1029.82 457.51 917.12 614.05 1078.43 580.53
00053706 00000144 617.48 65.98 517.69 699.06 844.53 379.43 1045.06 337.71 1029.39 459.05 916.45 614.07 1077.97 579.32
00053707 00000145 619.16 65.25 517.31 700.67 845.21 380.54 1046.38 337.78 1030.17 459.98 917.49 614.45 1080.03 578.84
00053708 00000146 621.37 63.35 516.98 703.78 847.01 382.30 1048.36 337.75 1031.03 461.65 918.47 615.04 1081.39 577.95
00053709 00000147 623.78 64.57 515.45 705.48 849.27 385.17 1049.95 342.68 1031.61 466.11 919.76 617.19 1082.76 581.61
00053710 00000148 624.42 62.97 512.32 710.49 853.17 390.82 1055.60 352.57 1042.82 469.74 919.08 616.82 1089.68 583.17
00053711 00000149 631.43 67.62 506.44 707.88 858.78 394.87 1057.62 355.16 1046.65 473.48 921.07 616.85 1091.37 582.03
00053712 00000150 639.09 73.55 500.88 705.51 864.06 396.20 1062.79 356.20 1051.56 476.60 925.03 618.72 1094.71 583.97
00053713 00000151 643.47 76.77 499.82 704.26 866.87 401.02 1066.57 358.34 1055.83 480.64 928.33 623.08 1098.37 586.29
00053714 00000152 644.67 76.23 501.04 708.34 869.02 403.02 1071.02 359.30 1060.03 485.03 930.27 626.31 1102.27 588.66
00053715 00000153 652.79 77.10 495.01 710.64 873.45 405.92 1074.88 361.71 1062.29 489.26 931.80 628.75 1103.97 590.96
00053716 00000154 657.41 78.18 492.68 712.29 878.95 411.75 1078.61 364.71 1068.37 494.46 937.54 632.76 1107.55 592.99
00053717 00000155 663.56 83.24 491.24 708.78 883.26 413.33 1084.47 366.95 1071.45 497.12 945.42 638.45 1111.35 599.48
00053718 00000156 663.47 85.42 495.52 709.08 884.58 414.56 1086.76 370.26 1073.42 499.07 947.51 642.03 1113.15 604.47
00053719 00000157 664.56 86.73 496.46 710.97 885.81 414.78 1089.86 373.36 1073.10 501.94 947.26 643.00 1114.52 607.57
00053720 00000158 665.92 89.98 495.81 709.42 885.38 413.53 1090.31 376.86 1070.53 501.31 945.63 642.41 1114.03 610.50
00053721 00000159 666.96 87.98 494.01 712.02 886.09 410.82 1090.41 376.01 1069.34 499.81 944.84 641.01 1111.96 610.72
00053722 00000160 666.01 88.06 493.63 707.28 884.04 408.58 1088.16 372.84 1067.37 498.12 941.01 637.24 1110.25 606.45
00053723 00000161 661.67 85.62 494.74 708.29 881.10 403.47 1086.63 369.52 1065.45 495.81 931.89 630.90 1107.46 601.57
00053724 00000162 661.74 81.39 494.75 708.17 879.17 397.58 1085.12 365.33 1061.71 490.45 930.71 626.68 1105.82 598.86
00053725 00000163 657.40 79.27 499.41 708.05 876.94 392.99 1083.22 361.76 1059.15 485.97 928.76 622.25 1104.29 595.14
00053726 00000164 652.83 75.48 501.65 708.68 876.27 390.56 1081.35 360.52 1059.22 482.61 928.56 620.24 1103.21 593.89
00053727 00000165 648.18 72.86 504.80 708.70 874.20 386.74 1077.85 357.29 1058.02 478.05 927.78 617.25 1101.11 591.17
00053728 00000166 645.98 69.37 505.22 710.47 873.31 383.19 1076.72 355.36 1057.10 473.79 927.37 615.41 1099.80 590.56
