Video ID: 	7VsfoJbjgqg
H: 	1080
W: 	1920
FPS: 	23.976023976023978

FRAME INDEX X0 Y0 W H [Landmarks (5 Points)]

00005972 00000000 759.75 354.02 368.70 551.35 905.75 617.52 1061.54 605.25 1012.35 729.60 913.55 771.04 1047.74 762.60
00005973 DELETE   759.22 353.61 368.25 549.69 904.33 614.38 1061.79 600.42 1013.56 726.57 914.61 767.75 1052.42 757.78
00005974 00000002 759.05 355.02 368.18 544.11 905.20 612.10 1062.01 598.29 1013.83 723.50 917.68 766.73 1051.62 756.88
00005975 00000003 759.10 351.76 368.37 545.12 905.88 610.27 1062.66 596.52 1014.03 722.10 918.94 765.46 1052.00 755.61
00005976 DELETE   758.72 352.68 368.54 543.60 905.32 609.19 1063.22 595.53 1014.22 720.43 918.89 765.49 1052.44 755.69
00005977 00000005 759.40 347.83 368.43 545.26 905.77 608.35 1063.48 594.26 1014.80 718.15 920.26 764.22 1053.12 753.93
00005978 00000006 759.81 345.78 369.27 545.40 905.85 607.42 1063.26 592.97 1014.85 716.14 920.91 763.59 1052.66 753.12
00005979 DELETE   760.40 343.02 367.61 543.96 907.69 604.86 1064.20 590.76 1016.40 714.11 922.46 761.68 1052.95 751.47
00005980 00000008 759.83 341.55 368.80 544.10 906.71 599.07 1064.16 582.29 1018.03 712.77 922.81 759.16 1056.00 747.14
00005981 00000009 758.93 335.98 369.17 545.52 907.52 596.47 1063.58 580.67 1017.50 706.86 924.48 759.40 1053.14 748.00
00005982 00000010 758.18 334.51 367.66 544.31 907.03 593.16 1061.73 578.19 1015.46 703.32 922.76 754.62 1051.97 743.93
00005983 00000011 757.13 328.06 369.03 547.86 906.09 588.42 1061.38 573.74 1014.98 699.65 922.03 752.25 1052.61 741.81
00005984 DELETE   749.42 321.49 376.75 557.65 899.45 585.41 1061.95 568.92 1014.95 700.81 909.76 758.88 1053.09 746.77
00005985 00000013 747.82 309.67 378.92 567.44 897.79 578.22 1060.56 564.35 1012.75 696.67 908.13 755.55 1050.55 745.37
00005986 DELETE   747.32 306.41 379.45 567.54 897.28 573.39 1058.78 560.73 1011.86 690.79 908.84 750.23 1050.20 740.78
00005987 00000015 746.78 303.23 377.24 567.96 893.49 569.31 1052.68 556.51 1006.61 685.32 907.12 746.39 1046.99 736.60
00005988 00000016 744.45 301.99 375.95 565.78 889.39 564.86 1042.82 553.91 998.55 676.16 904.61 741.31 1039.22 733.17
00005989 00000017 741.20 297.51 375.44 563.96 885.79 558.85 1036.47 550.28 992.05 666.87 904.48 735.29 1033.91 728.49
00005990 DELETE   739.51 288.56 376.47 560.49 881.60 549.87 1038.86 541.51 992.44 660.79 901.33 727.46 1037.59 720.82
00005991 00000019 735.50 287.49 374.92 563.85 879.32 553.32 1034.44 537.13 987.54 654.41 899.65 725.81 1033.23 711.53
00005992 00000020 736.46 286.77 373.71 555.22 873.70 547.98 1032.69 533.30 980.89 649.78 897.05 721.47 1029.95 708.63
00005993 00000021 734.37 282.55 374.02 551.89 870.09 541.62 1031.81 528.58 978.11 644.30 895.74 717.68 1028.77 706.25
00005994 DELETE   733.46 274.75 374.11 558.11 868.99 536.75 1031.07 523.70 978.35 639.47 895.04 714.50 1029.81 703.02
00005995 00000023 733.36 269.48 374.98 569.75 870.63 532.68 1028.98 519.95 978.34 634.45 893.25 712.88 1027.15 701.71
00005996 00000024 733.05 268.06 374.78 572.07 871.14 526.25 1028.41 515.51 978.78 627.89 891.21 707.45 1026.72 697.82
00005997 00000025 732.21 264.12 374.32 573.14 871.77 520.04 1027.66 510.53 979.42 622.15 891.42 701.19 1027.67 692.38
00005998 00000026 732.29 259.68 374.19 575.17 871.40 516.14 1027.34 508.23 978.82 617.11 891.49 698.04 1027.97 690.56
00005999 00000027 732.49 255.34 374.56 575.95 869.59 513.68 1025.81 506.88 976.33 613.87 891.70 696.77 1026.91 690.27
00006000 00000028 732.50 247.87 376.40 578.77 868.14 510.94 1025.43 505.72 974.01 610.97 892.67 695.35 1025.84 690.16
00006001 00000029 731.72 244.10 377.37 576.99 866.36 505.74 1024.71 501.17 972.67 607.01 888.99 689.37 1025.64 685.09
00006002 00000030 731.24 239.82 377.25 574.21 865.10 501.36 1020.22 498.02 969.06 602.98 886.63 681.57 1022.57 678.48
00006003 00000031 731.48 235.12 375.60 577.01 863.71 495.96 1017.46 494.73 965.83 596.65 882.46 675.11 1019.71 673.98
00006004 00000032 731.18 232.73 374.53 575.80 865.22 490.32 1014.87 493.36 963.02 591.33 879.68 666.89 1015.55 669.36
00006005 00000033 729.98 231.88 374.00 574.35 862.72 485.71 1013.43 491.07 959.97 586.99 876.23 662.87 1012.83 667.29
00006006 00000034 728.49 229.11 376.13 572.26 859.77 480.59 1012.77 489.08 957.00 580.33 874.00 659.24 1009.95 665.71
00006007 00000035 727.68 224.29 376.88 574.05 857.99 474.24 1012.66 484.94 956.14 573.82 870.50 653.68 1008.50 661.73
00006008 00000036 726.83 221.11 376.25 579.98 859.47 468.15 1013.27 482.03 957.87 570.54 867.40 650.44 1007.30 661.17
00006009 00000037 728.64 218.46 376.77 586.77 861.96 465.74 1016.70 481.24 961.20 570.90 868.16 652.40 1009.49 664.48
00006010 00000038 731.24 224.07 380.16 579.46 866.01 469.18 1021.94 485.52 963.67 576.81 870.73 654.85 1010.88 668.18
00006011 00000039 736.35 228.40 380.42 574.45 870.78 476.37 1028.73 490.47 967.02 585.49 873.61 658.70 1016.45 670.80
00006012 00000040 743.81 237.36 379.93 572.00 878.94 482.51 1037.46 496.12 973.58 598.44 879.13 666.58 1023.23 678.86
00006013 00000041 749.96 240.43 383.75 573.35 887.52 486.29 1046.18 503.60 978.24 605.87 884.36 670.27 1025.85 685.48
00006014 00000042 757.64 239.94 382.50 572.47 895.09 485.64 1051.17 509.46 979.54 605.50 888.41 664.30 1021.37 684.13
00006015 00000043 762.57 242.99 380.96 568.15 904.64 485.32 1058.30 512.27 986.82 606.06 896.70 664.76 1024.08 687.20
00006016 00000044 765.62 239.68 383.13 573.52 911.99 482.93 1062.88 512.06 992.44 605.90 901.69 664.72 1026.64 688.73
00006017 00000045 768.57 234.78 382.88 578.65 918.06 477.45 1066.06 508.22 998.27 603.52 904.41 661.29 1030.52 686.56
00006018 00000046 771.60 232.27 383.77 577.26 921.57 469.63 1072.16 503.68 1004.29 592.29 904.33 652.64 1034.86 680.68
00006019 00000047 775.71 230.19 383.06 572.41 924.47 464.42 1078.64 502.06 1011.27 582.91 905.29 643.99 1041.60 674.98
00006020 00000048 779.16 228.38 385.22 569.10 927.18 459.89 1082.62 498.09 1013.83 577.48 908.27 639.29 1045.95 670.88
00006021 00000049 781.03 229.87 384.43 565.55 929.70 459.40 1085.05 497.46 1016.59 575.28 910.60 636.94 1048.77 668.53
00006022 00000050 782.14 231.75 386.02 563.59 932.39 461.27 1087.47 498.66 1019.24 577.15 912.87 637.68 1050.60 668.81
00006023 00000051 784.17 233.77 385.42 563.46 934.51 463.91 1088.84 500.58 1020.29 580.92 913.21 639.89 1050.53 670.70
00006024 00000052 785.81 235.52 384.93 563.13 935.79 466.20 1089.10 501.35 1021.01 582.82 914.97 641.75 1051.53 671.47
00006025 00000053 786.46 235.57 384.49 563.40 935.34 467.81 1089.08 502.17 1020.33 585.19 914.85 643.09 1051.75 672.22
00006026 00000054 785.37 237.82 385.10 561.14 933.84 468.31 1087.73 502.84 1017.92 584.12 915.48 644.77 1050.18 673.83
00006027 00000055 784.30 237.18 385.51 562.53 931.37 468.62 1084.25 502.81 1013.44 586.22 912.72 645.84 1046.45 674.58
00006028 00000056 781.75 237.38 385.48 562.11 928.48 468.29 1081.02 503.39 1008.83 588.22 908.90 647.50 1041.42 677.07
00006029 00000057 779.60 237.42 384.88 562.20 925.34 468.60 1077.34 505.48 1003.63 589.78 903.78 648.26 1034.93 679.26
00006030 00000058 777.86 237.60 384.65 561.36 923.58 468.14 1074.58 506.57 998.81 593.00 900.08 647.84 1029.91 680.08
00006031 00000059 777.03 235.99 389.59 562.06 926.08 467.22 1078.01 509.33 1000.90 592.45 899.89 646.17 1029.74 681.45
00006032 00000060 782.96 237.07 391.87 557.52 937.05 464.00 1087.53 510.44 1012.54 585.77 907.08 641.36 1035.22 680.27
00006033 00000061 790.65 236.72 389.20 553.93 948.95 461.04 1098.51 510.41 1029.26 575.24 919.53 634.83 1047.18 676.11
00006034 00000062 795.62 237.76 390.17 548.41 957.19 458.55 1105.92 509.78 1039.70 572.39 927.48 631.38 1053.78 674.33
00006035 00000063 797.98 236.46 388.26 544.09 956.39 456.53 1106.80 507.00 1040.34 568.47 929.17 629.60 1055.69 671.74
00006036 00000064 797.89 233.71 387.19 545.42 953.50 454.13 1103.48 502.09 1037.61 564.35 929.29 628.60 1055.02 668.46
00006037 00000065 798.40 229.18 381.93 552.49 955.58 449.91 1108.48 496.28 1039.08 568.19 926.87 624.52 1051.30 665.29
00006038 00000066 798.29 228.48 383.75 546.26 949.17 447.92 1102.66 495.49 1034.89 557.81 925.88 625.28 1055.14 664.73
00006039 00000067 798.79 228.85 383.65 545.00 949.21 445.99 1103.05 494.91 1033.42 556.79 925.26 623.95 1054.16 664.37
00006040 00000068 799.50 229.29 384.61 545.46 949.35 446.74 1103.06 496.06 1033.11 557.18 924.84 623.91 1054.09 664.71
00006041 00000069 799.73 231.26 385.61 544.72 951.14 448.51 1102.77 498.81 1033.26 558.82 925.19 623.92 1053.43 665.51
00006042 00000070 799.98 231.61 387.18 545.41 952.30 450.79 1102.60 500.83 1033.77 562.42 926.08 626.18 1052.67 667.62
00006043 00000071 801.22 232.50 386.71 546.05 953.90 453.43 1105.31 504.31 1035.50 564.59 926.87 627.73 1054.47 670.06
00006044 00000072 801.62 234.96 388.77 544.55 955.93 455.12 1106.92 507.48 1036.08 567.02 926.82 628.07 1054.67 671.69
00006045 00000073 801.70 235.54 390.51 542.03 957.79 453.80 1110.60 506.17 1039.02 569.02 929.33 629.98 1055.99 673.51
00006046 00000074 803.92 234.98 390.60 539.97 960.11 451.58 1113.22 503.66 1041.80 568.20 933.05 629.62 1058.29 672.89
00006047 00000075 806.36 233.72 389.47 540.68 961.36 451.11 1116.10 501.66 1044.27 569.98 935.13 630.91 1061.53 672.95
00006048 00000076 807.37 233.17 387.91 541.67 961.27 452.53 1117.03 501.05 1045.55 572.19 935.80 633.08 1063.30 673.55
00006049 00000077 806.36 234.14 389.06 545.78 962.27 453.40 1115.96 500.30 1046.21 574.04 936.95 635.45 1062.83 674.62
00006050 00000078 804.92 234.63 390.54 549.50 962.85 454.22 1115.32 500.37 1046.08 576.31 937.46 637.93 1061.40 676.50
00006051 00000079 803.63 235.66 391.64 551.84 963.63 455.23 1112.94 500.00 1044.81 578.57 937.97 639.05 1058.33 676.58
00006052 00000080 803.30 235.49 391.82 553.71 964.14 455.95 1111.74 500.80 1044.12 578.64 937.41 639.13 1056.33 676.77
00006053 00000081 803.13 236.07 391.05 553.19 963.99 456.73 1111.30 502.09 1044.01 579.06 936.90 639.30 1056.06 677.44
00006054 00000082 802.77 235.10 391.59 554.76 963.62 456.72 1111.48 501.73 1043.99 578.90 936.36 639.50 1055.96 677.33
00006055 00000083 802.70 235.19 391.24 555.19 963.84 457.26 1110.88 502.59 1043.94 578.81 936.26 639.32 1055.83 677.46
00006056 DELETE   804.53 238.90 395.96 549.88 962.91 461.67 1111.65 506.79 1038.62 579.20 933.37 639.75 1054.41 677.85
00006057 DELETE   805.30 239.66 395.10 550.13 963.19 462.83 1111.34 507.57 1038.37 579.15 932.45 640.24 1052.91 678.34
00006058 00000086 803.96 238.95 392.31 552.63 963.17 462.00 1108.06 507.87 1037.30 579.09 932.27 640.05 1050.40 679.02
00006059 00000087 802.42 237.72 391.14 555.98 963.70 460.64 1107.73 506.43 1038.70 578.37 932.33 640.01 1050.01 678.87
00006060 DELETE   801.97 237.10 391.05 558.61 964.27 460.10 1107.53 505.63 1039.65 578.21 932.93 640.52 1050.07 679.21
00006061 00000089 801.11 236.68 391.11 559.66 963.56 459.66 1107.32 505.25 1039.63 577.76 932.43 640.41 1050.05 679.08
00006062 00000090 801.00 236.39 391.72 560.07 963.34 459.24 1107.36 505.06 1039.44 578.77 931.99 640.72 1049.41 679.47
00006063 00000091 801.30 236.83 390.47 559.17 963.76 459.22 1107.26 505.10 1039.45 578.37 932.00 640.38 1049.18 679.27
00006064 00000092 801.13 236.82 391.06 558.84 963.33 459.36 1107.73 505.39 1039.69 577.83 931.71 639.97 1049.84 678.97
00006065 00000093 801.18 236.40 391.48 558.58 962.94 459.55 1107.94 505.12 1039.55 577.84 931.91 640.26 1050.33 678.78
00006066 00000094 801.37 236.89 391.45 556.97 962.64 459.55 1107.91 505.13 1039.51 577.53 931.85 639.57 1050.79 678.13
00006067 00000095 801.30 236.81 391.92 557.44 962.80 459.48 1108.22 505.41 1039.75 577.35 931.78 639.32 1051.05 678.09
00006068 00000096 801.40 236.91 391.65 556.41 962.10 459.77 1108.18 506.07 1039.47 576.77 931.76 638.89 1051.86 677.94
00006069 00000097 800.95 236.24 392.74 555.58 961.06 458.96 1108.35 504.04 1039.66 577.84 932.54 639.43 1053.15 677.34
00006070 00000098 801.41 237.02 392.07 554.17 960.98 459.07 1108.61 504.80 1040.49 577.41 933.24 638.73 1054.48 677.19
00006071 00000099 800.90 236.25 392.33 554.43 960.28 459.36 1107.99 504.40 1040.26 577.91 933.35 638.94 1054.89 676.76
00006072 00000100 801.26 236.22 391.97 552.31 959.41 459.38 1108.26 504.91 1039.80 577.48 932.72 638.60 1055.04 676.83
00006073 00000101 801.59 236.52 390.60 550.62 958.48 460.18 1107.87 505.09 1039.44 577.24 933.12 638.62 1055.67 676.37
00006074 00000102 801.02 236.67 391.24 549.74 957.70 460.17 1108.14 505.54 1038.99 576.68 932.56 638.27 1056.18 676.27
00006075 00000103 801.09 236.64 391.03 549.47 957.71 459.67 1108.62 505.42 1039.18 576.45 931.79 637.60 1056.53 675.92
00006076 00000104 801.01 235.95 390.97 549.56 957.50 458.73 1109.14 504.89 1039.42 576.63 931.57 637.45 1056.82 676.08
00006077 00000105 801.32 236.68 390.45 547.84 957.72 458.52 1110.26 505.20 1039.95 576.24 930.95 636.77 1057.59 675.94
00006078 00000106 801.76 236.22 390.44 547.68 957.27 458.28 1110.61 505.41 1040.06 575.76 930.95 636.43 1058.40 675.97
00006079 00000107 802.11 236.00 390.33 547.36 957.21 458.15 1111.09 505.49 1040.09 575.89 930.76 636.19 1058.98 675.89
00006080 00000108 802.05 236.31 390.25 547.23 957.27 458.22 1111.04 505.42 1040.26 575.90 931.08 636.59 1058.81 676.16
00006081 00000109 801.81 235.97 390.97 546.99 957.04 458.22 1111.19 504.90 1040.22 576.28 930.67 636.64 1058.73 675.79
00006082 00000110 801.83 235.64 390.70 547.11 957.05 458.06 1111.39 504.81 1040.36 576.57 930.68 636.59 1059.07 675.77
00006083 00000111 802.05 235.59 390.40 547.51 958.16 456.69 1111.89 504.05 1041.07 577.13 931.09 636.19 1058.69 675.86
00006084 00000112 801.94 234.96 390.55 547.70 957.58 456.97 1111.41 503.88 1040.79 577.01 930.81 636.53 1058.33 675.79
00006085 00000113 801.45 235.72 391.00 547.29 957.33 456.50 1111.16 503.79 1040.29 576.66 930.38 636.20 1057.83 675.83
00006086 00000114 801.60 235.04 391.49 547.91 956.39 456.33 1110.83 503.04 1039.43 576.59 930.19 636.77 1057.82 675.86
00006087 00000115 801.42 235.20 391.57 547.52 956.52 456.12 1111.20 502.71 1039.75 576.61 930.12 636.50 1057.91 675.50
00006088 00000116 800.90 235.11 392.27 547.73 956.05 456.34 1110.57 502.74 1039.21 576.15 929.74 636.24 1057.68 675.07
00006089 00000117 800.77 235.62 392.56 547.20 956.58 456.05 1110.42 502.32 1039.65 575.67 930.30 636.01 1057.58 674.75
00006090 00000118 800.86 234.91 392.12 547.39 955.93 455.56 1110.31 501.90 1039.18 575.69 930.13 636.33 1057.32 675.06
00006091 00000119 800.15 234.87 393.15 547.62 955.64 455.46 1109.56 502.07 1038.27 575.36 929.66 636.13 1056.06 674.98
00006092 00000120 800.19 235.30 392.85 546.75 955.27 455.56 1109.19 501.94 1037.94 575.12 929.71 636.60 1055.54 675.26
00006093 00000121 799.79 234.48 393.08 547.83 955.00 455.96 1108.69 502.47 1037.65 575.40 929.65 636.51 1055.59 675.20
00006094 00000122 799.69 234.84 392.95 547.71 954.87 455.99 1108.34 502.78 1037.32 574.95 929.28 636.35 1055.29 675.29
00006095 00000123 799.67 234.19 392.97 548.19 955.13 455.93 1108.31 502.41 1037.35 575.65 929.78 636.72 1055.39 675.36
00006096 00000124 799.78 234.33 392.82 548.33 954.74 456.23 1107.90 502.21 1037.14 575.56 929.71 636.97 1055.26 675.22
00006097 00000125 799.96 234.30 392.65 549.16 955.46 456.27 1108.17 502.35 1037.39 576.44 929.84 636.74 1055.59 675.14
00006098 00000126 799.69 234.64 392.43 550.14 956.31 456.48 1107.73 501.83 1037.84 576.70 930.29 635.86 1056.01 673.76
00006099 00000127 799.43 234.53 392.89 552.19 958.41 456.81 1107.47 500.28 1038.96 578.13 933.05 636.43 1055.64 672.72
00006100 00000128 799.85 232.08 392.85 557.46 958.64 454.34 1106.79 497.42 1039.28 574.33 933.94 636.78 1055.64 672.59
00006101 00000129 799.62 229.18 391.50 562.72 959.54 447.97 1104.88 493.50 1037.68 571.44 930.99 635.19 1048.25 673.12
00006102 00000130 798.05 227.30 390.77 564.61 957.20 442.90 1102.02 489.29 1034.16 567.54 926.99 632.53 1044.31 671.07
00006103 00000131 795.84 222.29 391.63 566.69 948.36 440.19 1099.00 484.51 1027.27 564.83 922.53 631.49 1044.42 667.63
00006104 00000132 792.25 215.62 387.38 570.13 937.10 435.35 1088.10 479.38 1013.19 561.00 911.36 626.28 1032.82 662.18
00006105 00000133 782.67 210.76 378.67 571.50 916.90 426.87 1069.77 466.71 993.71 549.01 895.70 620.75 1015.41 653.96
00006106 DELETE   761.62 202.38 384.74 572.41 883.41 411.47 1048.37 446.06 962.35 533.93 868.95 607.64 995.10 636.27
00006107 DELETE   748.35 183.22 382.70 573.83 863.34 405.73 1028.19 437.25 936.52 517.64 851.05 596.50 993.12 623.86
00006108 DELETE   734.66 177.81 382.13 566.14 840.87 399.32 1001.58 429.80 901.97 507.92 825.39 586.94 965.20 613.82
00006109 00000137 726.16 176.32 375.97 566.90 829.85 397.20 986.82 429.78 887.72 501.93 812.59 585.68 946.81 614.17
00006110 00000138 718.75 173.15 374.68 566.51 821.72 392.68 979.17 427.88 879.20 499.77 805.63 583.29 937.41 613.56
00006111 00000139 713.57 174.02 374.43 558.77 814.99 392.44 972.95 427.02 872.00 497.04 799.48 579.63 930.38 609.40
00006112 00000140 709.48 176.64 375.92 552.41 811.44 394.39 969.09 428.69 868.33 496.12 796.88 578.77 927.24 608.19
00006113 00000141 705.99 175.69 376.26 549.98 808.00 394.74 965.88 427.55 866.58 495.58 793.51 578.60 924.99 606.72
00006114 00000142 701.97 176.18 377.73 547.35 804.39 395.99 963.50 427.44 865.96 496.64 790.95 578.90 923.65 605.73
00006115 00000143 699.52 176.03 378.17 545.03 802.28 397.30 961.56 428.14 865.09 498.10 788.41 579.41 921.45 605.60
00006116 00000144 697.73 176.05 378.38 545.33 800.72 398.61 960.70 429.26 864.69 499.55 786.87 580.74 921.28 606.63
00006117 00000145 697.11 176.31 378.00 545.59 799.84 399.35 959.95 430.04 863.80 501.11 786.05 582.31 920.02 608.23
00006118 00000146 697.05 176.65 377.96 546.11 799.54 399.70 960.28 430.94 863.57 502.61 785.79 583.31 920.09 609.64
00006119 00000147 696.87 176.55 378.89 547.25 799.27 399.67 960.75 431.27 863.43 503.20 785.82 583.72 920.69 610.27
00006120 00000148 697.51 177.18 378.70 546.65 799.28 400.45 961.54 432.15 862.90 504.58 786.66 584.58 922.07 611.13
00006121 00000149 697.95 177.00 378.50 547.73 799.54 400.67 961.76 432.37 863.30 505.23 787.13 585.19 922.96 611.70
00006122 00000150 697.75 177.40 379.63 548.70 799.54 401.42 962.22 432.83 863.58 505.48 787.44 586.08 923.83 612.29
00006123 00000151 698.80 177.00 379.90 553.49 800.31 401.70 963.15 433.11 863.91 505.27 788.87 587.44 925.84 613.54
00006124 00000152 700.26 175.82 381.34 567.47 802.50 400.09 962.60 429.41 864.63 503.95 795.87 589.83 926.73 614.47
00006125 00000153 701.54 173.92 381.49 577.20 803.80 400.08 964.28 428.08 865.34 504.04 795.34 592.15 930.11 615.71
00006126 00000154 702.56 173.74 380.15 581.88 806.45 402.83 965.07 430.42 866.52 503.57 797.39 594.87 931.18 618.32
00006127 00000155 707.47 174.43 375.59 582.58 811.24 409.55 969.83 437.93 871.59 508.20 800.16 596.43 934.27 620.49
00006128 00000156 705.81 176.37 377.11 578.88 811.14 407.42 970.63 438.02 872.44 509.66 799.06 591.64 937.27 617.34
00006129 00000157 706.24 173.19 377.51 578.64 811.18 403.06 970.90 435.08 873.40 508.20 800.23 590.28 938.87 617.06
00006130 00000158 706.91 172.42 377.93 578.80 811.99 401.64 972.92 433.23 875.70 506.59 801.30 589.59 941.34 615.94
00006131 00000159 709.09 172.10 376.90 578.14 814.30 400.37 974.68 432.12 878.54 506.42 802.48 589.00 942.35 615.56
00006132 00000160 710.66 172.11 376.58 578.29 817.19 398.98 976.68 431.48 881.03 504.48 805.04 587.79 944.06 614.98
00006133 00000161 712.45 171.48 374.72 579.47 819.51 398.84 979.35 431.75 884.60 504.54 806.33 588.22 945.93 615.89
00006134 00000162 713.59 172.13 376.21 578.40 820.84 398.03 981.78 431.52 886.15 504.57 807.01 587.16 949.35 615.19
00006135 00000163 714.50 172.51 376.77 577.47 822.44 398.41 983.93 431.63 889.27 505.01 808.12 587.83 951.65 615.69
00006136 00000164 717.05 173.12 375.94 575.05 824.77 400.20 985.23 431.92 892.57 504.94 812.61 589.68 953.05 616.53
00006137 00000165 718.94 174.08 375.54 573.99 827.50 401.77 986.71 432.98 895.84 505.33 815.79 591.25 953.39 617.89
00006138 00000166 721.01 173.52 373.81 576.03 830.75 402.87 986.20 433.75 898.72 505.55 819.56 593.56 951.74 620.21
00006139 00000167 721.87 172.92 373.05 574.18 833.41 404.07 985.90 433.91 902.99 503.51 824.22 596.27 949.43 622.46
