Video ID: 	8NwObke6Da4
H: 	1080
W: 	1920
FPS: 	25.0

FRAME INDEX X0 Y0 W H [Landmarks (5 Points)]

00001745 00000000 539.93 154.72 433.60 692.62 722.67 432.75 918.20 447.17 870.40 549.37 720.07 665.02 888.27 678.05
00001746 00000001 538.48 153.43 436.06 691.19 724.41 431.99 920.48 444.55 875.15 546.50 722.42 664.20 890.53 675.95
00001747 00000002 540.66 153.03 436.44 684.60 724.58 430.74 922.04 441.69 878.95 542.67 727.70 663.22 894.81 673.58
00001748 DELETE   546.34 152.60 436.29 673.41 726.65 431.46 926.21 435.90 883.28 541.48 738.75 663.84 904.63 668.77
00001749 00000004 550.37 150.99 438.57 675.50 731.77 432.37 930.70 436.58 887.59 540.91 743.05 663.34 908.61 668.08
00001750 DELETE   551.23 147.16 445.36 689.70 736.98 431.49 935.66 442.87 891.52 536.30 742.92 661.96 910.82 672.52
00001751 00000006 555.47 145.03 452.60 692.41 742.41 416.95 951.77 451.50 881.84 537.21 735.17 648.36 909.86 676.45
00001752 00000007 557.57 147.21 454.92 696.73 748.67 414.64 956.57 448.01 892.40 534.24 737.45 647.35 915.81 674.86
00001753 00000008 560.70 145.23 456.13 702.35 755.52 412.45 959.76 444.39 904.63 533.21 740.36 647.79 919.21 674.80
00001754 DELETE   564.27 145.21 453.02 706.46 760.02 409.64 962.47 442.95 913.20 528.91 743.59 647.76 922.52 675.96
00001755 00000010 571.79 147.43 448.26 703.59 763.92 408.73 964.93 443.42 917.25 526.32 746.47 646.79 923.61 676.44
00001756 00000011 574.42 145.65 447.55 708.00 766.88 407.01 966.97 443.01 922.94 523.74 748.44 646.35 927.01 677.30
00001757 00000012 578.60 146.08 445.67 709.01 772.50 406.02 971.02 443.06 927.88 523.54 751.68 645.20 930.38 677.30
00001758 00000013 576.61 139.57 451.30 713.08 778.11 401.81 976.27 442.64 932.86 523.08 753.55 641.95 932.55 677.09
00001759 00000014 581.05 141.43 451.28 705.60 780.58 400.07 979.13 441.34 932.52 521.24 756.70 639.39 935.09 674.88
00001760 00000015 580.96 142.13 454.35 701.63 784.46 396.42 982.05 436.34 936.41 518.57 762.05 637.59 939.05 671.99
00001761 00000016 587.60 143.57 450.44 693.21 790.25 397.55 985.09 432.94 941.25 516.66 769.90 636.63 943.83 667.19
00001762 00000017 590.02 143.60 450.58 686.15 796.00 397.33 989.21 431.71 949.77 513.77 780.50 636.69 950.58 666.24
00001763 00000018 594.72 140.92 452.81 683.69 801.08 397.28 995.21 433.41 952.20 514.83 789.61 637.51 956.73 668.35
00001764 00000019 603.00 139.04 450.12 677.54 802.15 398.99 1000.14 433.49 952.72 514.51 800.97 635.76 967.40 664.45
00001765 00000020 606.61 138.75 450.89 675.64 805.01 398.45 1005.63 430.83 958.59 514.43 810.52 638.30 975.58 665.11
00001766 00000021 608.55 137.49 452.26 674.99 809.49 399.59 1011.39 432.53 964.44 513.62 818.99 638.88 982.47 665.99
00001767 00000022 604.58 154.61 454.10 655.92 818.09 399.04 1018.55 431.19 971.75 517.77 822.87 639.18 982.19 665.87
00001768 00000023 605.06 155.32 456.14 659.90 827.43 399.34 1021.35 429.58 981.03 515.83 827.23 639.00 984.83 664.82
00001769 00000024 606.53 161.70 455.43 666.84 842.13 395.92 1027.68 427.25 999.66 518.58 827.26 635.14 985.77 663.82
00001770 00000025 615.17 163.57 452.78 675.16 852.92 393.27 1037.67 432.73 1015.41 520.56 829.30 634.89 992.63 671.18
00001771 00000026 626.14 153.88 451.83 695.25 859.29 393.67 1036.16 438.22 1022.78 523.21 833.44 639.93 990.42 678.93
00001772 00000027 635.87 154.92 444.99 699.02 865.02 394.90 1039.99 436.83 1030.76 522.80 837.94 642.39 994.51 679.74
00001773 00000028 643.74 157.56 438.27 701.33 867.97 395.60 1043.59 437.47 1035.05 522.14 840.37 643.97 997.40 681.41
00001774 00000029 648.34 168.92 431.88 689.70 871.38 397.99 1050.32 443.39 1041.08 527.42 838.18 641.04 1000.88 678.99
00001775 00000030 643.26 168.26 437.33 694.17 868.89 398.84 1049.38 441.80 1039.43 530.36 835.97 644.47 1000.05 680.32
00001776 00000031 643.03 171.36 435.74 689.18 861.86 399.65 1047.98 446.22 1035.06 527.39 834.05 644.95 1000.35 683.23
00001777 00000032 632.08 169.28 443.04 689.90 855.50 400.24 1042.97 447.32 1019.36 528.23 829.00 644.99 996.26 683.19
00001778 00000033 620.89 162.95 449.97 692.29 849.52 399.72 1038.99 432.47 1008.76 530.57 820.92 644.18 994.44 675.61
00001779 00000034 605.87 156.02 458.96 701.57 835.89 400.04 1027.63 434.49 998.05 521.23 812.64 643.49 985.12 675.36
00001780 00000035 602.79 159.84 460.49 697.71 827.67 401.49 1021.14 436.72 985.35 522.35 809.40 647.30 978.98 678.40
00001781 00000036 595.63 156.76 463.77 698.36 818.80 400.27 1016.69 436.51 977.39 519.25 809.94 650.50 977.80 680.99
00001782 00000037 598.13 156.07 459.91 696.21 814.38 402.42 1012.43 436.89 971.67 519.23 808.41 651.98 971.94 680.83
00001783 00000038 601.47 156.47 456.95 683.73 808.61 403.68 1011.41 436.05 964.45 525.75 808.87 653.68 969.41 680.64
00001784 00000039 600.89 148.68 456.38 689.02 800.74 401.82 1004.73 433.83 961.22 524.85 806.17 655.40 974.41 683.55
00001785 00000040 601.78 149.02 454.91 687.16 799.84 402.51 1004.85 434.97 961.48 524.96 807.79 655.93 975.64 684.19
00001786 00000041 602.73 151.24 455.37 687.64 803.93 403.88 1011.33 435.52 965.65 528.16 810.39 661.81 970.94 688.12
00001787 00000042 592.36 155.91 465.86 692.61 813.14 402.64 1013.37 438.44 972.31 525.19 807.91 656.07 970.09 686.51
00001788 00000043 592.92 159.73 464.01 696.31 819.58 404.52 1016.44 440.01 979.17 527.66 806.46 654.03 973.99 684.70
00001789 00000044 599.29 162.73 458.48 694.90 824.78 404.42 1021.86 439.70 984.95 528.27 807.27 651.96 980.17 683.17
00001790 00000045 607.22 165.66 451.46 698.12 829.17 405.04 1025.67 439.50 991.05 529.31 806.81 652.09 982.30 683.33
00001791 00000046 620.68 163.05 440.80 704.75 838.72 404.64 1034.35 440.66 1000.81 536.52 810.15 653.71 986.07 687.37
00001792 00000047 622.94 170.41 440.17 698.78 844.17 405.77 1039.30 440.32 1009.52 543.13 815.10 657.46 989.95 690.07
00001793 00000048 627.03 172.07 437.47 698.62 847.87 406.87 1041.85 439.32 1014.50 546.49 820.66 661.13 993.86 692.33
00001794 00000049 633.92 172.66 431.93 697.15 850.70 406.74 1041.32 438.34 1017.50 544.80 826.26 661.10 997.14 691.62
00001795 00000050 635.83 170.48 427.58 700.25 851.94 406.29 1039.65 436.65 1020.12 543.43 829.53 662.87 996.73 692.51
00001796 00000051 640.54 169.21 421.43 698.79 850.09 405.86 1037.74 434.28 1020.44 541.38 829.84 662.22 995.51 690.20
00001797 00000052 638.82 163.69 420.33 701.73 849.10 405.28 1035.35 433.33 1022.02 537.72 830.65 660.74 993.38 688.26
00001798 00000053 637.69 162.82 417.77 693.68 843.96 406.06 1030.90 429.11 1015.26 536.34 833.80 662.23 992.78 684.90
00001799 00000054 637.39 165.03 413.42 679.47 836.22 406.20 1026.47 430.64 1010.10 531.31 841.12 665.86 992.14 688.91
00001800 00000055 636.76 162.71 405.66 666.92 830.20 412.68 1016.90 431.78 1003.09 530.99 849.68 666.09 991.23 683.05
00001801 00000056 629.40 165.97 404.94 661.08 821.60 416.88 1009.34 434.65 989.44 535.50 842.84 666.17 984.01 681.17
00001802 00000057 611.10 159.15 414.14 673.09 816.37 421.94 1001.27 441.09 981.80 540.90 834.69 666.90 972.93 682.38
00001803 00000058 600.02 164.16 416.65 675.93 802.13 418.47 988.35 442.70 967.64 538.06 817.72 669.58 956.77 689.00
00001804 00000059 581.14 155.11 432.12 691.15 791.85 419.41 975.10 438.61 952.45 546.63 796.41 669.25 942.17 686.93
00001805 00000060 567.24 157.66 439.47 693.17 782.10 415.33 963.86 437.50 939.94 550.41 781.78 669.09 926.60 689.40
00001806 00000061 564.01 168.02 434.81 672.17 766.03 416.86 966.79 436.35 928.62 549.11 766.45 671.32 925.71 689.17
00001807 00000062 550.16 166.92 441.44 673.55 755.66 415.33 959.61 438.53 915.94 543.47 758.13 667.13 920.70 687.36
00001808 00000063 541.69 161.87 448.40 678.85 751.74 414.54 953.95 439.43 909.51 538.10 760.16 665.28 917.84 686.08
00001809 00000064 533.16 160.67 455.66 681.08 746.64 414.28 949.65 437.30 904.81 538.50 755.64 664.46 914.79 683.43
00001810 00000065 527.04 160.15 460.85 681.23 745.32 413.42 945.57 433.82 901.57 539.00 748.87 660.21 909.17 677.41
00001811 00000066 525.82 154.66 462.17 688.38 745.41 411.32 944.40 434.78 901.79 536.08 743.81 656.47 905.69 676.53
00001812 00000067 526.60 159.37 459.90 687.99 749.14 407.61 944.50 434.30 907.42 530.88 738.80 649.64 904.87 672.99
00001813 00000068 524.48 157.73 464.35 698.84 753.02 402.08 945.83 432.84 916.44 524.56 732.24 642.84 904.97 670.75
00001814 00000069 531.56 154.44 458.37 706.97 757.79 397.74 950.01 430.35 921.16 520.19 730.34 640.84 906.31 670.88
00001815 00000070 539.06 150.59 452.64 709.79 765.09 394.71 954.14 428.48 930.16 518.81 732.51 638.20 907.32 670.36
00001816 00000071 546.33 150.21 448.82 710.74 772.09 392.95 959.87 429.71 935.02 518.24 734.94 636.47 910.12 671.39
00001817 00000072 552.21 150.71 446.18 709.30 778.32 391.80 964.34 427.22 942.83 520.54 741.62 637.66 915.50 671.90
00001818 00000073 555.28 160.47 445.80 699.81 782.75 390.74 967.75 426.84 947.21 523.18 746.13 639.23 918.52 674.39
00001819 00000074 556.92 157.78 444.73 702.37 787.49 389.62 969.91 427.06 953.91 521.38 750.89 638.81 919.87 675.07
00001820 00000075 564.73 148.90 442.09 714.41 786.54 382.83 968.58 433.59 957.29 514.85 753.16 638.44 919.29 682.64
00001821 00000076 567.73 149.66 441.55 714.50 790.10 383.30 971.49 434.90 961.01 513.50 757.53 637.81 922.84 682.80
00001822 00000077 567.92 148.87 441.58 717.29 792.85 384.21 974.21 435.54 963.91 513.59 762.45 639.37 927.09 683.90
00001823 00000078 576.02 156.07 434.74 708.88 792.76 387.62 980.95 439.65 969.95 515.34 761.18 638.73 931.89 681.68
00001824 00000079 578.28 152.07 434.51 714.56 795.33 389.28 983.67 439.97 971.92 516.67 763.60 640.01 934.63 681.78
00001825 00000080 584.14 151.19 429.92 716.48 797.13 391.03 985.57 441.44 975.17 516.45 766.89 641.06 937.70 682.73
00001826 00000081 583.57 153.71 431.09 714.22 799.89 393.67 986.60 442.26 975.90 519.56 769.58 643.24 939.36 683.64
00001827 00000082 583.33 154.59 432.02 715.25 801.20 396.32 986.87 443.85 976.87 520.31 772.88 645.58 942.33 685.07
00001828 00000083 585.48 154.60 430.24 717.02 802.45 397.46 987.03 442.96 977.32 521.33 773.87 647.56 943.03 685.68
00001829 00000084 583.52 155.92 433.42 717.50 802.56 398.18 987.66 443.02 978.21 521.28 774.27 648.82 944.83 686.17
00001830 00000085 584.64 155.60 433.15 718.28 802.92 399.38 987.97 443.33 979.09 521.21 774.54 648.69 945.63 685.29
00001831 00000086 585.55 156.15 432.83 719.02 802.58 400.43 988.33 443.82 979.61 521.41 774.27 649.69 946.29 685.78
00001832 00000087 586.44 156.98 432.12 719.14 802.94 401.51 988.37 444.24 979.38 522.34 773.81 650.34 945.95 685.90
00001833 00000088 583.04 158.06 435.77 718.28 803.36 402.05 988.45 445.00 979.32 523.04 774.66 650.60 946.70 686.23
00001834 00000089 583.25 158.23 435.90 717.47 803.57 401.35 989.10 445.27 978.26 523.29 774.16 650.50 945.81 686.98
00001835 00000090 585.52 159.24 433.73 716.83 803.72 403.08 989.43 445.48 976.88 525.39 772.64 650.18 945.73 685.57
00001836 00000091 585.20 157.75 434.91 719.18 802.18 402.96 989.16 445.00 975.57 526.74 771.38 651.58 945.03 686.57
00001837 00000092 584.21 159.56 435.10 718.02 800.24 403.06 987.11 443.96 974.43 527.72 768.71 650.62 943.46 684.60
00001838 00000093 585.98 158.00 432.43 717.38 796.57 403.56 986.53 447.24 970.53 527.47 767.35 651.13 941.40 687.23
00001839 00000094 581.50 161.41 433.60 712.40 791.35 405.04 981.45 447.86 962.68 527.33 765.36 651.55 937.96 686.73
00001840 00000095 572.39 164.58 439.47 704.33 789.02 407.60 977.44 449.93 952.18 530.94 762.34 649.25 934.24 683.76
00001841 00000096 568.76 161.50 441.56 703.49 785.69 407.59 973.97 448.20 945.43 536.16 758.86 651.26 928.31 684.18
00001842 00000097 565.32 163.75 442.70 695.12 778.54 407.80 968.78 446.49 937.25 538.47 754.10 651.01 922.68 682.15
00001843 00000098 552.35 165.99 449.84 683.67 765.69 409.54 964.15 438.02 924.77 540.97 742.90 650.37 919.09 677.51
00001844 00000099 547.31 175.87 450.94 674.38 758.53 411.65 960.37 438.75 917.44 546.74 735.65 653.66 913.61 679.40
00001845 00000100 550.13 172.74 445.96 676.34 756.74 416.89 958.31 443.31 914.48 550.80 734.44 658.64 908.34 683.51
00001846 DELETE   551.84 165.97 447.56 681.39 757.38 415.66 960.47 456.89 912.47 545.26 729.26 651.28 904.76 686.89
00001847 00000102 551.63 164.40 450.76 684.13 759.96 417.11 964.50 461.05 920.01 540.67 735.02 650.56 912.22 688.14
00001848 DELETE   559.34 160.55 446.50 686.18 768.20 418.16 968.28 462.93 927.64 539.94 744.73 650.99 916.28 689.11
00001849 DELETE   568.63 160.76 437.92 682.12 775.52 416.61 972.16 455.83 934.47 541.39 755.63 653.25 920.14 686.97
00001850 00000105 572.64 163.13 433.45 678.97 777.24 414.25 970.95 449.27 937.79 539.28 761.04 652.86 922.94 683.29
00001851 00000106 576.97 174.50 432.74 662.72 787.99 414.42 974.93 452.20 952.01 533.37 775.98 647.61 931.93 678.67
00001852 00000107 590.06 177.69 422.60 656.68 792.75 413.00 977.10 448.35 959.85 526.83 784.38 646.40 937.33 675.67
00001853 00000108 592.36 171.43 420.46 656.49 794.92 410.28 979.33 444.71 963.67 522.05 791.38 643.32 942.99 671.96
00001854 00000109 590.82 165.99 423.00 655.80 798.97 408.75 981.22 442.71 966.31 518.70 796.20 639.92 946.49 668.36
00001855 00000110 588.88 165.77 424.95 653.72 801.08 405.31 982.11 439.54 968.90 513.67 798.96 634.79 949.25 663.37
00001856 00000111 592.19 166.88 423.07 650.70 801.39 402.42 982.06 435.68 970.18 511.69 798.87 633.14 949.02 661.12
00001857 00000112 586.88 164.27 427.03 653.13 800.75 401.28 981.25 434.20 968.72 510.99 798.30 631.90 948.48 659.65
00001858 00000113 584.43 162.42 429.75 654.84 800.87 400.38 982.47 433.36 968.65 510.11 798.46 631.50 950.07 659.26
00001859 00000114 586.25 158.78 428.80 657.02 801.36 398.90 983.47 431.83 969.71 507.99 800.21 630.94 951.78 658.55
00001860 00000115 586.56 155.83 429.98 657.96 801.70 398.10 984.89 431.52 970.27 507.11 801.40 630.27 952.79 658.23
00001861 00000116 585.40 154.40 431.49 658.32 802.03 397.71 985.15 429.23 969.65 506.33 802.75 630.01 953.66 656.34
00001862 00000117 587.74 143.86 428.93 670.40 799.89 394.83 983.96 427.64 967.92 502.74 801.47 627.61 958.94 655.00
00001863 00000118 589.08 140.93 428.40 672.72 802.88 394.33 986.08 426.58 970.36 502.74 805.99 627.70 962.09 654.59
00001864 00000119 588.82 139.77 430.55 674.14 803.86 394.53 987.13 424.70 971.73 503.23 807.29 627.78 964.42 653.09
00001865 00000120 586.58 140.01 435.05 673.73 805.77 395.53 987.69 424.21 972.72 502.92 810.33 627.63 966.97 651.78
00001866 00000121 588.27 143.29 434.23 671.72 806.04 397.05 987.72 422.69 973.93 503.39 812.02 629.06 969.63 650.84
00001867 00000122 589.85 143.33 435.42 672.04 807.27 398.59 989.74 421.12 975.12 505.17 813.98 630.57 972.53 649.78
00001868 00000123 594.95 145.58 432.82 669.90 808.58 398.73 990.96 420.55 975.95 505.99 815.10 631.27 973.59 649.83
00001869 00000124 594.16 146.83 436.54 670.10 811.54 399.67 993.98 421.35 978.91 508.36 816.32 632.63 975.56 651.30
00001870 00000125 599.19 148.46 433.87 668.04 814.03 401.26 995.55 419.80 979.54 510.94 818.44 634.22 977.50 650.68
00001871 00000126 594.60 154.08 440.50 663.55 818.35 402.02 1002.60 419.56 984.86 513.11 822.34 634.23 977.91 650.25
00001872 00000127 600.13 153.73 436.43 663.89 820.37 400.61 1004.61 419.09 987.35 512.15 825.15 634.19 979.76 650.95
00001873 00000128 604.43 150.66 434.08 666.86 821.54 400.54 1005.85 421.24 989.12 511.49 826.16 633.12 980.86 651.49
00001874 00000129 604.02 151.24 435.88 665.92 822.92 400.45 1007.42 420.62 990.60 511.56 826.96 633.16 981.70 651.21
00001875 00000130 608.78 151.63 433.98 664.53 824.37 400.32 1009.45 418.91 992.62 512.80 826.81 632.84 983.23 649.91
00001876 00000131 610.65 149.87 434.34 665.80 825.74 400.99 1013.87 419.25 993.96 515.22 827.80 634.76 986.34 651.55
00001877 00000132 609.33 149.59 438.30 665.65 827.12 400.58 1016.07 419.59 994.05 515.78 829.50 635.18 987.96 652.58
00001878 00000133 611.10 148.46 438.69 667.02 827.74 401.66 1017.05 420.69 995.53 515.57 829.91 635.15 989.88 652.57
00001879 00000134 609.46 152.06 440.68 662.47 829.65 400.68 1018.27 420.46 998.08 515.85 832.61 636.26 989.76 654.51
00001880 00000135 611.98 152.77 439.37 661.56 832.14 400.43 1020.92 421.38 999.83 516.82 833.56 636.05 990.99 655.39
00001881 00000136 614.80 151.08 437.42 662.65 834.98 400.26 1022.68 421.73 1000.44 517.87 834.30 635.45 991.70 655.56
00001882 00000137 614.29 151.04 439.34 661.82 837.91 399.96 1024.07 420.86 1001.97 518.03 836.71 635.18 992.87 654.92
00001883 00000138 616.14 151.03 438.70 660.59 839.59 397.93 1025.96 421.49 1003.04 517.12 839.14 634.38 993.67 656.37
00001884 00000139 618.53 152.14 438.50 657.15 841.79 397.03 1028.40 422.55 1006.44 515.27 842.09 634.05 995.61 657.71
00001885 00000140 621.34 153.96 436.96 654.33 844.76 395.13 1030.71 422.33 1008.46 514.68 842.68 632.59 995.99 657.93
00001886 00000141 622.91 152.30 437.19 654.61 847.02 393.92 1033.95 423.34 1012.90 513.36 843.92 631.74 996.69 658.97
00001887 00000142 622.94 152.07 437.87 653.88 848.79 392.88 1034.73 423.86 1014.73 511.42 844.85 629.22 997.67 657.69
00001888 00000143 624.37 151.10 437.87 653.24 850.02 391.42 1033.99 422.87 1017.42 508.06 847.45 627.62 998.30 656.64
00001889 00000144 626.06 150.36 439.23 658.63 849.65 387.21 1040.15 419.79 1017.97 504.88 848.21 629.48 1006.31 658.47
00001890 00000145 629.41 148.33 436.26 658.89 851.17 385.07 1040.61 417.49 1019.47 502.99 850.26 628.51 1006.08 657.49
00001891 00000146 631.98 146.67 435.56 659.82 853.96 383.52 1043.01 417.38 1023.02 501.66 850.72 626.32 1006.55 656.74
00001892 00000147 638.24 145.31 430.75 660.64 856.59 382.28 1044.30 416.81 1025.14 501.23 852.74 625.55 1006.86 656.67
00001893 00000148 635.46 145.79 435.23 659.79 856.09 384.08 1046.01 417.40 1024.16 501.79 853.41 624.61 1008.09 654.31
00001894 00000149 631.36 142.91 438.54 663.54 852.91 386.16 1033.82 423.88 1019.27 500.18 847.34 615.71 999.26 647.76
00001895 DELETE   631.77 140.17 437.79 667.11 855.62 385.10 1035.07 420.19 1022.26 503.58 848.78 617.27 999.13 647.30
00001896 DELETE   634.41 139.15 436.89 668.80 862.24 382.43 1045.33 407.68 1027.30 508.37 855.63 626.83 1005.31 650.84
00001897 00000152 633.63 142.39 437.64 665.90 861.51 382.31 1045.91 410.19 1027.75 506.80 855.76 627.43 1005.41 653.32
00001898 00000153 633.57 150.08 436.75 656.97 861.51 380.22 1047.56 411.69 1028.03 506.20 856.39 625.99 1006.40 654.45
00001899 00000154 640.27 150.27 430.88 656.86 862.18 378.63 1049.18 410.45 1030.18 503.57 858.19 626.50 1008.06 655.19
00001900 00000155 648.49 151.69 423.28 655.78 862.45 379.30 1049.71 413.06 1030.21 500.88 860.14 625.90 1009.21 655.71
00001901 00000156 653.09 149.66 419.57 658.05 864.27 379.12 1050.69 412.33 1032.60 500.70 862.10 626.70 1009.76 655.97
00001902 00000157 648.75 151.73 424.97 655.47 878.87 375.90 1053.85 434.93 1039.24 496.13 864.22 612.30 1003.48 661.51
00001903 00000158 650.22 153.02 422.21 652.49 882.52 377.25 1054.03 436.78 1042.31 496.26 869.29 611.23 1006.44 661.14
00001904 DELETE   650.84 144.60 421.22 660.60 877.81 381.74 1055.86 436.35 1040.84 496.16 874.55 612.70 1016.57 657.92
00001905 00000160 650.53 147.17 424.37 657.15 882.54 384.16 1058.40 438.85 1043.27 498.64 877.47 611.37 1017.28 657.08
00001906 DELETE   647.57 140.75 428.16 662.43 882.73 386.50 1054.32 420.03 1051.86 503.41 881.10 615.70 1019.22 644.27
00001907 DELETE   646.59 139.32 430.02 664.58 885.78 390.12 1052.30 420.94 1053.88 506.59 885.01 617.71 1019.28 643.99
00001908 DELETE   645.17 141.30 432.62 663.80 883.37 391.49 1049.49 418.92 1053.64 507.78 886.01 621.92 1018.70 645.32
00001909 00000164 645.95 140.74 431.88 668.49 885.25 394.47 1047.03 419.89 1053.20 511.64 886.92 626.38 1016.34 648.34
00001910 DELETE   645.51 142.38 430.50 671.66 887.57 394.84 1044.49 422.17 1054.02 513.34 888.13 629.39 1012.91 653.24
00001911 DELETE   642.71 146.65 429.79 669.09 889.82 399.48 1042.30 426.80 1054.80 517.74 889.46 633.80 1009.39 657.96
00001912 00000167 638.71 149.26 433.45 668.93 892.36 401.60 1041.86 429.71 1054.43 521.22 891.05 636.90 1008.40 661.90
00001913 00000168 639.46 151.01 432.59 669.82 893.18 401.94 1039.35 426.56 1055.56 521.60 891.15 639.14 1007.41 661.67
00001914 DELETE   637.51 144.89 434.90 678.51 894.31 402.78 1038.57 425.51 1056.37 523.51 890.19 641.31 1006.89 662.38
