Video ID: 	33rikgJsFmk
H: 	1080
W: 	1920
FPS: 	23.976023976023978

FRAME INDEX X0 Y0 W H [Landmarks (5 Points)]

00013046 00000000 643.42 107.56 392.41 555.55 857.82 311.71 1006.81 337.20 990.90 401.34 844.87 495.76 985.94 517.59
00013047 00000001 643.10 105.40 392.80 554.54 856.46 310.20 1006.35 336.62 990.27 397.57 845.18 493.23 986.98 515.65
00013048 00000002 643.25 106.30 395.30 548.33 856.82 306.01 1004.55 331.54 989.23 393.28 844.81 487.46 987.09 509.27
00013049 00000003 647.17 103.39 389.77 547.81 857.95 299.87 1004.87 326.92 988.91 387.52 846.25 482.96 988.04 505.86
00013050 00000004 649.95 102.40 385.48 546.68 856.31 293.75 1003.52 320.90 987.14 381.11 847.49 479.88 988.51 502.51
00013051 00000005 652.19 102.25 386.33 545.92 857.51 293.06 1005.43 318.27 988.47 380.73 849.99 480.08 991.21 500.95
00013052 00000006 656.80 100.94 384.39 548.34 862.96 297.61 1008.11 319.97 993.23 383.76 854.58 483.13 993.48 502.20
00013053 00000007 662.49 101.79 381.74 549.36 864.37 300.49 1011.36 318.75 997.62 385.66 861.04 488.21 999.91 504.05
00013054 00000008 668.44 104.56 379.62 548.66 870.30 302.77 1014.28 319.88 1003.00 386.32 867.38 489.20 1003.18 504.38
00013055 00000009 670.62 108.97 378.63 544.43 873.70 306.94 1015.54 323.91 1007.23 384.64 873.70 490.25 1007.03 505.40
00013056 00000010 668.96 116.61 382.89 530.51 870.58 305.31 1012.42 321.71 1005.41 386.78 888.51 481.80 1015.58 495.20
00013057 00000011 672.60 116.88 383.41 530.16 874.64 302.79 1016.38 319.04 1010.37 384.50 893.62 480.33 1019.43 493.37
00013058 00000012 674.24 110.93 386.65 532.05 878.56 297.14 1017.45 314.33 1013.34 376.20 896.83 474.17 1021.36 487.65
00013059 00000013 679.52 102.80 387.60 537.29 882.34 291.91 1021.41 308.75 1016.18 370.68 899.70 472.18 1025.85 485.12
00013060 00000014 684.75 98.73 390.31 536.20 886.81 289.01 1030.87 306.09 1020.20 366.00 902.41 469.53 1034.84 482.85
00013061 00000015 693.28 98.60 390.94 538.58 891.84 292.70 1038.19 307.25 1024.86 370.13 904.24 472.92 1039.62 484.67
00013062 DELETE   699.34 111.25 393.87 535.65 900.64 301.49 1048.04 320.03 1031.76 380.14 905.41 481.42 1041.61 496.56
00013063 DELETE   713.12 121.00 385.45 537.04 912.98 314.63 1057.98 332.29 1043.20 397.19 909.99 493.37 1047.14 508.83
00013064 00000018 722.82 118.54 385.53 550.10 920.80 321.71 1067.27 340.27 1051.22 402.98 914.14 500.99 1057.00 517.03
00013065 00000019 729.09 117.14 384.27 555.26 927.95 323.42 1073.81 340.50 1058.06 408.31 919.11 503.60 1061.40 518.77
00013066 00000020 734.68 120.40 382.08 553.89 932.64 320.47 1078.03 336.89 1062.58 409.75 925.94 506.27 1065.45 520.64
00013067 00000021 738.48 123.37 384.88 549.75 936.11 321.14 1081.36 336.69 1064.85 410.43 930.24 506.65 1068.35 520.29
00013068 00000022 738.54 127.13 386.21 540.12 929.82 319.19 1079.71 331.99 1061.36 407.71 937.59 502.98 1071.07 515.00
00013069 00000023 741.79 125.67 385.60 540.82 934.58 317.37 1082.74 331.98 1064.32 407.61 941.25 502.61 1071.71 515.96
00013070 00000024 743.37 124.60 384.64 541.67 937.82 318.36 1084.50 334.64 1066.39 407.42 943.46 502.34 1072.56 516.87
00013071 00000025 744.00 125.80 386.73 540.82 940.61 318.32 1086.11 335.32 1069.30 407.95 944.44 502.18 1074.21 517.19
00013072 00000026 745.69 126.83 387.41 539.57 939.57 317.48 1087.49 333.27 1068.76 407.28 944.78 502.54 1077.40 516.31
00013073 00000027 747.16 126.27 387.55 538.82 941.99 316.84 1088.41 333.32 1069.63 406.10 946.66 500.88 1078.10 515.13
00013074 00000028 748.18 126.53 389.03 538.01 942.96 316.30 1090.66 333.67 1071.02 405.58 947.64 500.60 1079.84 515.45
00013075 00000029 749.43 126.70 387.77 536.92 943.44 315.90 1091.14 333.34 1072.25 405.19 949.12 500.44 1081.04 515.26
00013076 00000030 750.34 126.80 387.41 536.76 946.73 315.71 1092.44 334.20 1073.83 404.73 950.93 499.61 1081.39 515.36
00013077 00000031 752.01 126.41 387.31 536.14 947.61 315.64 1093.62 333.87 1074.88 404.62 951.76 498.98 1082.33 514.38
00013078 00000032 752.70 123.64 389.04 538.20 949.01 316.06 1095.70 334.17 1075.68 401.82 953.86 497.82 1084.80 513.01
00013079 00000033 753.41 121.32 388.63 539.33 950.68 314.40 1098.00 333.20 1078.03 400.18 956.56 496.57 1086.65 512.24
00013080 00000034 754.35 120.14 388.24 539.92 952.58 311.86 1099.75 332.27 1080.47 399.36 958.37 495.00 1088.07 511.94
00013081 00000035 756.16 119.55 388.88 539.26 954.56 310.41 1101.79 330.88 1082.64 398.14 960.30 494.57 1090.07 511.62
00013082 00000036 760.20 117.99 387.59 541.45 957.95 309.46 1104.87 330.04 1084.93 397.34 960.89 493.91 1092.53 511.17
00013083 00000037 762.85 119.97 389.13 540.11 961.89 309.79 1108.31 329.69 1087.73 397.34 962.37 493.60 1095.61 510.30
00013084 00000038 766.27 120.44 390.33 541.66 968.11 309.52 1112.46 330.99 1092.79 397.46 964.56 493.98 1098.32 512.11
00013085 00000039 770.30 118.17 390.78 543.80 971.15 311.14 1117.79 332.75 1096.51 399.05 966.76 494.56 1103.13 512.91
00013086 00000040 772.88 118.77 388.13 544.25 976.06 313.41 1122.17 336.39 1103.21 400.65 970.10 495.87 1106.82 515.35
00013087 00000041 776.05 118.51 383.54 546.03 981.09 314.02 1124.36 337.97 1108.25 401.55 973.14 495.70 1108.46 516.11
00013088 00000042 779.77 116.71 381.68 546.70 983.56 314.40 1127.19 339.35 1109.34 400.88 975.93 496.21 1110.34 517.43
00013089 00000043 783.08 120.36 380.99 543.23 984.15 313.34 1128.55 337.07 1111.16 399.36 977.82 496.62 1113.11 517.01
00013090 00000044 785.65 117.69 381.44 545.12 985.18 312.00 1130.71 336.39 1112.01 399.82 978.55 496.10 1115.02 517.14
00013091 00000045 788.06 117.57 380.83 543.71 986.58 309.26 1131.73 334.02 1112.17 398.78 978.77 494.54 1114.61 515.90
00013092 00000046 792.23 119.47 379.36 539.01 988.16 306.59 1134.54 331.58 1113.91 397.87 981.15 494.40 1116.86 515.86
00013093 00000047 794.20 120.41 379.11 538.43 989.31 306.73 1135.58 331.49 1114.41 397.53 981.07 493.90 1117.72 515.27
00013094 00000048 793.95 119.88 379.18 538.04 989.96 306.36 1137.41 332.04 1115.95 397.16 981.84 493.62 1118.57 515.64
00013095 00000049 793.92 120.83 378.55 538.25 991.12 306.55 1137.64 332.72 1116.86 397.58 982.30 493.35 1118.92 515.72
00013096 00000050 795.00 117.71 377.48 542.49 993.48 307.42 1138.93 333.89 1119.07 398.06 983.03 494.30 1119.21 517.11
00013097 00000051 793.86 117.63 378.28 542.73 993.72 307.74 1139.25 334.22 1119.47 398.56 983.02 494.19 1119.23 516.90
00013098 00000052 793.84 120.47 377.99 540.26 993.42 306.78 1139.82 333.99 1119.15 398.33 982.42 493.81 1119.13 517.02
00013099 00000053 793.81 120.59 378.80 540.00 991.43 306.35 1139.12 332.81 1117.33 398.43 982.02 494.36 1118.99 516.87
00013100 00000054 793.56 120.72 378.43 539.22 990.52 306.81 1136.29 333.38 1114.56 397.93 981.35 494.31 1116.60 516.95
00013101 00000055 793.30 119.89 378.25 539.98 989.62 307.37 1134.81 333.86 1113.67 398.02 980.74 494.08 1115.79 516.71
00013102 00000056 793.32 119.44 377.11 540.67 989.15 306.80 1134.05 334.18 1112.79 398.09 979.54 493.79 1114.26 517.27
00013103 00000057 791.33 119.38 378.41 540.94 987.64 307.14 1132.31 333.88 1111.44 398.00 979.04 494.17 1113.45 517.06
00013104 00000058 791.66 118.98 377.49 540.72 987.37 307.23 1132.26 334.63 1110.85 397.66 978.82 493.99 1113.08 517.38
00013105 00000059 790.84 119.58 378.00 540.95 986.68 308.14 1131.99 334.79 1110.80 397.79 978.74 494.48 1113.52 517.24
00013106 00000060 791.05 119.82 377.52 541.15 987.24 307.94 1132.38 334.87 1111.29 397.90 979.37 494.96 1113.45 517.88
00013107 00000061 791.37 118.72 377.01 542.99 988.04 308.52 1133.00 335.47 1112.73 399.12 979.73 495.49 1113.65 518.44
00013108 00000062 792.06 118.64 376.78 545.40 989.70 308.64 1134.04 335.34 1114.51 399.61 979.99 496.59 1114.37 519.42
00013109 00000063 792.38 120.77 377.19 543.40 989.78 308.51 1134.76 334.50 1115.40 400.00 980.16 496.89 1115.08 519.17
00013110 00000064 792.76 120.53 376.81 543.84 990.39 308.17 1135.80 334.47 1116.46 400.04 980.48 497.00 1115.43 519.52
00013111 00000065 791.79 121.32 378.11 544.02 990.63 309.20 1135.82 335.04 1117.09 400.88 980.91 497.77 1116.29 519.76
00013112 00000066 791.94 119.66 377.49 545.54 991.65 309.53 1136.63 335.94 1118.57 401.29 981.88 498.08 1116.33 520.54
00013113 00000067 792.51 120.92 376.18 545.90 992.78 310.21 1136.66 336.64 1119.67 402.90 982.28 499.08 1116.31 521.60
00013114 00000068 792.88 121.48 376.35 546.61 991.87 311.08 1135.67 337.19 1118.19 403.19 980.81 499.37 1115.63 521.73
00013115 00000069 793.05 121.09 376.13 546.88 992.10 311.42 1135.83 336.98 1118.42 403.39 981.14 499.48 1116.15 521.36
00013116 00000070 794.00 121.34 376.37 546.24 991.88 312.39 1136.46 337.41 1118.04 403.47 981.30 499.93 1116.68 521.43
00013117 00000071 793.88 120.95 377.03 547.13 992.79 313.31 1136.30 338.56 1118.20 403.90 980.87 499.63 1116.13 521.45
00013118 00000072 794.31 121.74 377.32 547.81 992.56 314.15 1136.89 338.55 1117.97 404.46 981.05 500.80 1117.66 521.91
00013119 00000073 794.37 123.16 377.23 546.40 992.73 313.99 1136.94 338.37 1118.37 404.61 981.49 500.56 1117.96 521.56
00013120 00000074 795.45 122.05 376.52 548.53 992.79 314.64 1137.51 338.88 1118.58 404.63 980.96 501.10 1118.72 522.14
00013121 00000075 795.48 121.57 376.55 548.40 992.42 314.61 1137.99 338.82 1118.04 404.59 980.95 501.20 1118.77 522.13
00013122 00000076 796.26 123.18 376.50 547.49 993.01 314.36 1138.01 339.05 1118.69 404.14 981.46 501.16 1119.30 522.40
00013123 00000077 794.71 124.11 377.92 546.97 992.60 316.04 1136.72 340.39 1118.78 404.13 981.44 500.97 1119.68 521.85
00013124 00000078 795.06 123.42 377.48 548.08 993.51 317.10 1137.58 342.92 1118.90 405.31 981.90 501.89 1119.51 523.97
00013125 00000079 794.41 123.77 377.29 548.69 994.32 318.53 1136.12 345.70 1118.66 406.15 981.18 501.39 1118.13 524.55
00013126 00000080 793.95 122.29 377.57 550.98 995.07 319.36 1136.25 347.18 1118.58 407.67 981.16 502.29 1117.28 525.97
00013127 00000081 793.73 122.61 377.84 551.04 994.23 320.11 1135.64 347.12 1118.11 407.70 980.78 502.86 1117.06 525.95
00013128 00000082 793.80 124.78 377.40 549.34 993.63 321.05 1134.61 348.08 1117.33 407.15 980.94 503.44 1116.16 526.47
00013129 00000083 793.02 124.59 376.85 550.82 994.46 323.81 1133.18 351.14 1117.65 408.68 980.35 503.73 1114.81 526.93
00013130 00000084 792.65 123.78 376.33 551.18 993.76 324.27 1132.22 352.52 1116.55 408.97 979.64 503.43 1113.42 527.44
00013131 00000085 793.29 123.26 375.64 552.21 993.35 324.28 1132.29 352.43 1116.06 409.16 979.07 503.65 1113.57 527.62
00013132 00000086 793.02 125.09 376.22 551.03 994.12 323.61 1131.78 352.60 1115.63 409.88 978.63 503.36 1112.10 528.04
00013133 00000087 793.96 122.72 375.28 552.66 994.57 323.82 1132.83 352.98 1116.21 409.82 978.86 503.26 1112.78 528.23
00013134 00000088 795.33 123.80 374.18 551.83 994.79 322.70 1132.38 352.05 1116.12 409.68 978.18 502.40 1112.13 527.72
00013135 00000089 794.81 123.92 375.55 552.00 994.83 322.40 1132.20 352.09 1115.55 410.16 977.73 502.49 1111.65 528.00
00013136 00000090 794.75 122.75 375.50 552.65 995.15 322.55 1131.98 352.34 1115.75 410.06 978.08 502.23 1111.32 527.85
00013137 00000091 794.91 123.83 376.62 551.37 994.72 322.37 1132.03 352.28 1114.85 409.89 977.91 502.18 1111.33 527.93
00013138 00000092 795.52 123.81 376.04 551.25 995.19 322.99 1132.99 353.13 1115.33 410.09 977.66 502.19 1111.50 528.07
00013139 00000093 795.73 124.38 375.48 550.93 995.33 322.96 1132.77 353.43 1115.44 410.03 977.82 502.38 1110.98 528.56
00013140 00000094 795.67 125.90 376.54 548.21 996.72 325.15 1135.26 357.68 1115.85 411.96 978.09 502.61 1110.86 530.27
00013141 00000095 795.83 125.79 376.52 548.95 998.05 326.09 1136.61 360.36 1116.27 413.06 978.26 502.96 1110.83 531.99
00013142 00000096 796.26 125.91 377.42 548.43 998.49 325.99 1137.28 361.39 1115.88 413.67 978.08 503.11 1110.43 533.10
00013143 00000097 795.59 125.07 376.65 550.39 997.24 327.04 1136.10 361.47 1115.45 414.27 977.87 504.18 1109.99 533.39
00013144 00000098 795.78 127.74 376.91 550.27 997.72 325.97 1136.12 361.68 1114.63 414.38 977.04 505.06 1108.60 535.36
00013145 00000099 794.18 126.56 378.91 551.96 997.19 327.26 1136.44 362.85 1114.43 415.66 976.38 505.66 1108.38 535.80
00013146 00000100 794.39 127.82 378.63 552.84 994.34 327.75 1135.52 364.05 1111.03 416.75 972.93 507.12 1106.76 537.97
00013147 00000101 795.50 129.00 377.92 550.69 992.55 327.50 1136.48 366.81 1107.63 418.45 969.85 506.52 1105.79 539.91
00013148 00000102 794.77 130.42 377.04 548.82 991.08 328.64 1135.19 370.04 1104.55 421.16 967.37 506.99 1102.81 541.99
00013149 00000103 793.22 134.40 379.92 546.51 988.02 329.86 1135.26 371.25 1102.12 422.72 964.12 507.39 1102.80 542.20
00013150 00000104 793.27 131.54 379.35 549.92 983.96 332.62 1131.65 372.76 1095.61 426.45 962.47 510.06 1100.67 543.74
00013151 00000105 791.98 132.10 379.84 549.26 978.71 335.09 1128.90 373.67 1088.99 428.81 958.73 512.07 1097.96 544.32
00013152 00000106 790.96 133.85 379.23 548.62 974.29 334.79 1126.96 374.47 1084.56 429.16 955.77 512.48 1096.04 545.76
00013153 00000107 790.53 135.54 379.06 545.30 968.09 335.18 1125.12 372.39 1079.33 429.96 953.61 513.97 1095.16 545.16
00013154 00000108 789.03 137.16 378.70 544.00 964.14 335.73 1122.41 372.32 1076.05 430.95 951.93 514.67 1093.79 545.38
00013155 00000109 787.98 135.73 378.51 545.97 961.34 337.21 1120.85 373.30 1072.78 433.39 949.31 515.58 1092.26 545.74
00013156 00000110 785.58 134.13 379.61 546.83 956.07 338.81 1117.97 372.95 1067.64 434.69 946.49 517.77 1090.35 546.33
00013157 00000111 783.51 136.24 380.93 546.70 952.35 338.43 1115.44 371.16 1063.62 436.02 943.19 517.63 1089.52 545.03
00013158 00000112 780.92 136.59 382.82 547.34 948.38 338.48 1113.45 371.05 1059.88 437.35 940.24 518.15 1088.63 545.37
00013159 00000113 779.35 137.07 383.93 547.02 943.42 339.19 1111.07 371.07 1053.81 437.71 936.66 518.60 1086.39 545.18
00013160 00000114 774.20 136.58 385.99 547.47 938.78 341.38 1106.12 372.62 1046.59 439.92 932.91 520.05 1081.49 545.81
00013161 00000115 770.38 136.98 385.77 547.81 935.75 345.56 1100.89 375.87 1041.95 444.12 929.47 521.30 1077.01 546.29
00013162 DELETE   767.49 137.31 388.38 552.09 932.09 348.03 1099.92 380.30 1038.22 447.49 920.69 522.01 1073.12 548.66
00013163 00000117 765.43 133.66 389.23 554.39 926.39 351.12 1095.62 383.17 1029.84 450.89 915.96 523.71 1068.44 550.07
00013164 00000118 763.10 132.62 389.21 556.83 921.68 349.53 1091.64 382.38 1024.55 450.99 912.74 524.76 1065.73 551.51
00013165 DELETE   762.06 133.37 387.16 557.41 915.82 350.77 1087.98 381.43 1018.44 454.35 906.77 525.79 1063.09 550.83
00013166 00000120 760.85 135.94 387.46 558.24 911.68 352.97 1085.59 382.58 1014.39 456.55 901.57 527.65 1060.76 551.95
00013167 00000121 759.84 135.78 387.84 559.08 908.01 354.82 1082.55 382.92 1009.97 456.16 898.58 528.72 1058.24 551.86
00013168 00000122 759.50 136.50 387.34 559.12 905.89 356.31 1080.97 384.12 1006.15 457.17 895.58 528.78 1056.36 551.67
00013169 00000123 759.17 138.36 387.10 558.09 903.72 357.17 1079.49 384.82 1002.53 458.16 892.83 528.99 1053.84 551.81
00013170 00000124 758.52 137.64 387.77 559.80 901.75 358.57 1077.68 386.09 999.40 459.04 890.43 529.50 1052.05 552.22
00013171 00000125 759.13 137.03 387.60 559.82 899.73 358.25 1076.72 385.92 995.83 459.32 888.91 530.31 1049.54 553.26
00013172 00000126 758.52 137.63 388.60 560.03 897.98 358.62 1075.70 385.52 993.71 460.04 886.36 530.97 1048.06 553.39
00013173 00000127 758.29 139.81 390.42 559.09 900.85 360.95 1075.11 388.20 994.36 460.68 886.48 530.90 1046.00 553.69
00013174 DELETE   759.52 139.27 388.45 561.27 896.12 364.96 1071.94 390.06 989.00 463.43 883.98 533.12 1046.16 553.91
00013175 00000129 758.59 140.55 387.53 561.27 892.09 365.03 1066.99 387.94 984.34 464.31 882.31 534.09 1044.52 553.18
CROP_BBOX: 409 0 1378 904
