Video ID: 	5rF0TEnGgrg
H: 	1080
W: 	1920
FPS: 	23.976023976023978

FRAME INDEX X0 Y0 W H [Landmarks (5 Points)]

00050657 00000000 1054.28 249.07 480.34 694.57 1211.05 518.03 1433.89 542.42 1322.60 666.20 1190.14 754.53 1379.73 775.74
00050658 00000001 1056.90 255.21 482.34 679.86 1218.62 520.02 1438.77 545.70 1326.81 673.05 1194.47 750.49 1381.48 773.29
00050659 00000002 1056.16 265.05 478.76 659.00 1217.11 528.56 1436.12 553.65 1323.52 686.27 1190.48 747.72 1378.99 770.56
00050660 00000003 1044.33 263.52 473.73 649.43 1197.60 531.88 1418.57 551.53 1305.78 683.68 1176.22 737.55 1375.52 756.03
00050661 00000004 1034.77 251.95 473.59 654.62 1182.42 523.74 1406.27 542.01 1294.63 676.50 1166.77 733.93 1373.12 750.18
00050662 00000005 1026.66 245.14 467.77 652.19 1170.15 512.94 1393.87 526.92 1286.78 656.86 1159.70 719.81 1371.33 732.06
00050663 00000006 1022.71 233.13 467.09 652.65 1162.77 503.70 1387.53 507.52 1286.27 641.60 1162.84 712.97 1372.66 716.71
00050664 00000007 1025.45 220.98 466.40 658.29 1161.60 493.19 1388.56 493.78 1288.77 624.88 1167.20 705.73 1379.28 706.16
00050665 DELETE   1026.95 212.68 467.86 657.79 1166.84 482.47 1388.18 481.24 1295.73 612.21 1176.37 694.99 1383.62 693.85
00050666 DELETE   1031.49 209.99 465.85 657.25 1173.49 477.41 1392.47 475.90 1302.53 606.34 1182.35 687.36 1391.27 685.68
00050667 DELETE   1037.45 208.81 467.85 661.05 1180.41 478.29 1400.86 476.03 1307.40 606.22 1187.74 687.88 1399.84 685.05
00050668 00000011 1046.59 213.77 473.32 663.49 1192.82 483.59 1414.58 483.88 1316.84 613.79 1198.14 696.84 1408.49 696.11
00050669 00000012 1060.32 217.03 468.01 665.29 1205.54 486.01 1430.09 493.36 1326.77 623.29 1207.57 703.57 1412.98 709.31
00050670 00000013 1074.11 229.38 465.81 657.08 1218.54 496.81 1440.03 503.21 1338.65 631.67 1215.52 707.11 1419.50 713.30
00050671 00000014 1081.54 236.75 470.52 651.95 1226.08 501.98 1450.58 509.47 1347.99 638.75 1222.84 712.78 1428.64 720.03
00050672 00000015 1093.65 240.61 470.35 644.94 1236.54 506.03 1460.54 518.77 1353.31 645.05 1229.29 715.47 1431.73 726.72
00050673 00000016 1104.56 238.33 470.86 651.08 1250.32 504.14 1472.08 522.66 1363.21 645.72 1237.33 718.28 1435.32 734.42
00050674 00000017 1109.37 237.76 473.60 651.68 1261.07 502.36 1479.50 523.45 1372.93 647.70 1248.96 723.80 1436.12 742.31
00050675 00000018 1113.17 233.11 474.78 654.00 1268.86 497.96 1483.64 520.06 1378.62 646.13 1258.93 724.28 1438.34 743.22
00050676 00000019 1115.10 227.44 475.37 658.18 1272.22 493.51 1486.58 517.26 1381.75 641.17 1261.80 723.28 1438.24 743.34
00050677 00000020 1116.46 223.87 474.89 661.08 1274.15 488.66 1487.49 513.68 1382.74 637.61 1263.89 722.69 1437.87 743.86
00050678 00000021 1115.59 221.69 474.66 661.44 1274.14 486.41 1485.81 511.05 1382.73 634.08 1264.31 721.12 1435.80 742.00
00050679 00000022 1113.12 221.43 474.33 661.75 1272.23 486.04 1483.04 510.61 1381.39 633.62 1263.06 721.69 1432.90 742.54
00050680 00000023 1107.71 223.28 475.62 661.13 1266.62 487.07 1479.66 514.38 1376.88 633.64 1254.36 720.72 1427.43 744.01
00050681 00000024 1104.85 226.42 473.29 657.72 1258.59 488.63 1473.15 516.97 1368.16 633.99 1245.20 720.75 1418.95 744.73
00050682 00000025 1099.83 226.90 471.04 657.68 1250.65 488.04 1464.43 516.34 1361.48 630.15 1236.97 719.05 1410.98 743.05
00050683 00000026 1083.70 224.42 468.11 659.53 1235.36 481.32 1450.30 508.86 1347.05 623.10 1219.51 710.95 1398.07 734.33
00050684 00000027 1077.02 221.94 467.12 659.75 1229.81 476.41 1445.55 505.15 1339.71 619.58 1212.13 705.77 1392.40 730.00
00050685 00000028 1067.34 212.84 471.84 668.07 1222.98 471.83 1435.75 501.79 1329.77 614.86 1204.08 698.94 1385.23 724.16
00050686 00000029 1061.34 208.72 476.89 667.91 1213.96 467.10 1431.03 498.05 1320.00 612.75 1196.93 695.12 1381.56 720.99
00050687 00000030 1054.50 208.54 477.87 661.48 1203.34 466.56 1424.17 491.37 1307.53 614.62 1186.96 693.51 1374.03 715.04
00050688 00000031 1050.33 205.80 473.97 665.02 1199.90 464.74 1419.65 489.55 1305.64 609.22 1181.34 688.74 1373.02 709.89
00050689 00000032 1046.42 205.28 473.10 660.48 1192.68 463.54 1411.27 489.98 1301.83 602.07 1179.87 687.49 1375.76 709.20
00050690 00000033 1044.13 203.16 471.85 659.94 1186.97 461.28 1406.56 485.32 1296.95 600.25 1175.86 686.60 1372.36 706.28
00050691 00000034 1043.78 198.88 470.01 661.11 1183.19 458.52 1402.89 482.25 1292.79 598.67 1173.93 685.35 1370.28 704.62
00050692 00000035 1043.53 198.06 469.04 656.94 1182.12 456.26 1402.25 480.25 1292.35 595.17 1173.00 681.85 1369.89 701.21
00050693 00000036 1044.44 198.86 467.93 651.85 1181.65 455.03 1402.62 480.49 1291.26 589.95 1170.95 677.83 1369.40 698.31
00050694 00000037 1044.26 197.74 467.47 654.02 1180.19 452.51 1400.71 478.42 1288.90 585.71 1169.85 676.47 1367.57 697.13
00050695 00000038 1044.74 197.49 466.24 655.03 1176.78 449.47 1398.26 476.11 1283.37 581.40 1166.26 677.13 1363.74 698.33
00050696 00000039 1043.57 193.49 466.53 657.66 1171.64 443.13 1396.06 471.10 1276.83 577.56 1161.80 677.21 1356.73 699.35
00050697 00000040 1039.14 183.18 464.94 663.95 1161.68 438.24 1388.82 465.87 1264.20 575.45 1152.97 675.98 1342.44 698.53
00050698 00000041 1037.26 184.72 462.29 654.98 1154.27 435.95 1379.25 463.13 1251.02 567.57 1145.05 675.96 1323.00 698.53
00050699 DELETE   1034.53 182.56 458.59 649.17 1146.19 433.85 1366.10 459.82 1236.35 560.07 1137.63 671.79 1307.99 693.76
00050700 DELETE   1024.99 179.95 458.35 645.40 1134.43 426.96 1354.96 448.87 1224.62 553.25 1126.98 663.39 1300.01 682.42
00050701 DELETE   1018.00 175.32 457.52 641.99 1122.38 424.58 1339.73 441.95 1212.30 547.53 1117.36 656.09 1290.95 671.68
00050702 00000045 1006.83 168.63 455.49 646.20 1106.06 417.57 1325.76 431.35 1200.32 537.49 1105.83 650.98 1281.51 663.13
00050703 00000046 997.87 165.37 457.94 647.57 1088.30 410.51 1312.79 419.50 1184.62 530.83 1094.02 649.47 1273.26 657.69
00050704 00000047 994.95 163.99 454.64 646.84 1081.69 404.44 1302.79 419.15 1161.46 526.32 1083.52 643.70 1270.68 654.41
00050705 00000048 992.81 161.81 456.42 653.62 1078.03 403.97 1300.88 415.92 1158.22 526.71 1081.09 645.81 1273.02 653.94
00050706 00000049 993.21 162.53 456.28 651.48 1077.68 404.22 1300.03 416.20 1157.25 526.73 1079.98 643.84 1273.03 651.90
00050707 00000050 992.03 163.33 470.85 651.26 1078.59 414.73 1303.21 426.00 1164.82 534.10 1081.37 647.65 1268.17 658.06
00050708 00000051 993.04 170.43 472.17 652.12 1083.07 425.24 1308.33 439.91 1170.25 546.83 1083.98 655.01 1270.84 668.26
00050709 00000052 994.38 178.06 471.44 649.70 1086.74 429.83 1313.02 447.76 1176.35 552.12 1084.56 658.97 1272.99 674.99
00050710 00000053 993.62 173.86 473.97 646.33 1085.95 425.30 1311.31 442.98 1173.21 546.72 1082.53 652.61 1271.81 668.34
00050711 00000054 994.17 163.01 475.14 648.32 1086.54 407.82 1311.28 428.03 1170.10 529.79 1078.61 636.53 1272.77 654.33
00050712 00000055 996.92 155.80 471.26 655.17 1086.84 396.58 1307.88 417.40 1165.00 516.02 1075.22 628.65 1268.55 647.09
00050713 00000056 993.31 144.70 469.32 675.98 1082.74 385.90 1299.76 400.09 1154.32 500.79 1071.29 623.81 1262.16 636.35
00050714 00000057 987.63 146.09 462.83 662.09 1076.69 377.46 1292.59 398.20 1141.85 490.71 1055.87 615.10 1251.95 630.96
00050715 00000058 978.26 146.53 466.37 659.33 1063.54 383.00 1276.80 402.84 1123.00 494.48 1042.97 616.08 1237.65 631.37
00050716 DELETE   970.17 163.98 468.91 648.86 1048.88 394.96 1265.32 421.03 1107.68 515.17 1036.55 624.65 1230.39 645.93
00050717 DELETE   960.47 172.57 464.21 652.69 1034.58 419.91 1253.02 443.09 1107.38 548.61 1029.56 649.47 1216.95 670.31
00050718 DELETE   952.44 192.93 467.03 654.66 1032.13 437.33 1252.34 466.62 1103.46 571.31 1027.72 666.17 1216.26 691.84
00050719 00000062 945.50 200.05 466.41 651.30 1030.66 448.14 1246.82 477.07 1104.72 582.25 1028.50 672.10 1211.27 697.38
00050720 00000063 945.22 194.94 465.00 656.63 1027.84 444.82 1246.07 471.80 1103.60 575.10 1026.40 670.51 1211.61 694.05
00050721 00000064 945.10 181.91 466.78 661.99 1027.59 435.02 1247.40 459.03 1102.76 563.40 1025.08 664.68 1211.70 685.96
00050722 00000065 949.47 170.65 468.81 661.80 1032.20 426.24 1252.46 447.38 1109.48 554.00 1030.16 660.16 1211.39 679.31
00050723 00000066 955.41 167.40 470.53 658.76 1036.67 422.98 1256.83 440.67 1113.27 544.57 1033.12 656.83 1210.24 673.35
00050724 00000067 960.44 168.58 470.83 656.67 1040.73 424.42 1262.17 441.94 1119.16 548.62 1039.18 660.93 1213.28 677.41
00050725 00000068 964.18 179.25 470.44 661.32 1044.60 433.45 1266.49 457.09 1119.17 563.14 1044.49 673.02 1216.56 694.46
00050726 00000069 965.47 194.87 469.12 662.99 1049.18 446.49 1268.48 473.79 1124.40 581.53 1046.80 682.98 1219.23 707.52
00050727 00000070 971.99 199.29 465.75 673.88 1055.27 454.49 1274.95 483.27 1130.96 591.46 1051.16 693.96 1226.54 719.85
00050728 00000071 980.28 203.14 461.76 663.70 1068.23 455.60 1285.48 483.31 1134.61 591.79 1053.28 693.84 1235.37 715.76
00050729 00000072 986.56 197.38 463.82 666.20 1077.73 448.45 1292.19 478.30 1142.42 586.20 1060.21 687.51 1244.75 711.08
00050730 00000073 991.13 190.25 469.41 662.09 1085.01 430.87 1306.75 458.58 1154.81 563.59 1069.58 668.74 1267.04 690.15
00050731 00000074 989.98 186.82 469.98 661.90 1083.48 429.87 1306.63 458.49 1154.00 562.75 1067.43 666.69 1265.04 688.87
00050732 00000075 984.84 195.40 468.40 654.63 1077.47 436.64 1297.73 464.47 1147.08 568.26 1061.57 670.23 1256.47 691.89
00050733 00000076 977.19 201.63 464.41 653.83 1070.24 449.22 1287.61 477.29 1141.68 583.00 1055.03 680.58 1244.42 702.30
00050734 00000077 958.32 201.77 470.67 661.63 1050.52 456.53 1272.60 484.35 1130.91 592.11 1043.83 684.91 1234.69 709.29
00050735 00000078 951.30 203.74 468.73 660.95 1042.67 459.33 1262.09 487.04 1121.20 595.73 1037.17 687.94 1224.83 712.26
00050736 00000079 943.67 201.84 470.42 657.47 1034.16 458.94 1253.96 482.98 1116.23 592.33 1033.44 688.24 1217.45 709.57
00050737 00000080 938.25 198.62 469.85 655.39 1025.44 457.24 1246.72 478.78 1109.69 587.40 1029.66 686.70 1209.28 706.19
00050738 00000081 932.44 194.38 472.84 658.86 1018.02 453.30 1241.52 473.12 1103.26 583.61 1024.50 687.77 1198.56 706.05
00050739 00000082 927.24 194.26 473.88 663.90 1012.48 451.72 1236.72 468.03 1097.91 581.09 1022.59 693.14 1191.15 708.51
00050740 00000083 922.81 196.70 470.88 662.05 1007.69 454.49 1233.12 470.95 1093.59 585.87 1018.58 696.83 1184.96 712.43
00050741 00000084 918.68 198.49 468.90 659.49 1004.52 457.14 1229.67 475.89 1089.66 590.44 1012.41 697.78 1179.49 715.24
00050742 00000085 915.84 199.38 468.40 656.19 1001.89 458.36 1227.51 476.84 1088.06 593.64 1009.85 698.51 1178.30 715.71
00050743 00000086 915.13 199.61 468.48 654.98 1001.21 458.46 1227.58 476.47 1088.47 593.61 1009.11 698.11 1178.56 714.92
00050744 00000087 915.76 200.54 467.57 652.51 1001.55 458.40 1228.66 475.13 1090.89 592.91 1011.02 697.45 1181.96 713.09
00050745 00000088 914.57 200.37 467.22 655.93 1004.95 456.31 1228.84 474.93 1084.68 586.16 1004.39 697.70 1189.70 712.16
00050746 00000089 915.09 201.52 467.99 658.66 1008.59 455.92 1231.27 473.08 1090.13 585.15 1010.87 698.80 1194.48 712.07
00050747 00000090 917.69 201.26 466.37 662.96 1012.06 455.76 1232.48 470.78 1093.86 585.98 1019.41 702.72 1197.00 714.18
00050748 00000091 919.36 199.36 471.86 668.70 1012.61 461.63 1236.92 473.30 1104.78 595.74 1027.95 706.66 1194.26 717.81
00050749 00000092 920.80 199.81 466.90 685.90 1015.23 459.64 1237.73 467.43 1111.50 598.12 1028.08 714.26 1200.31 721.81
00050750 00000093 923.65 199.58 465.82 692.39 1019.71 460.67 1239.68 469.56 1114.82 599.30 1030.59 716.34 1202.05 724.85
00050751 00000094 925.13 200.33 465.25 694.05 1023.90 461.70 1244.46 471.96 1120.04 601.25 1032.31 718.28 1204.23 727.97
00050752 00000095 926.56 200.31 466.70 695.58 1027.94 463.52 1247.75 473.61 1123.34 601.18 1034.65 718.12 1207.55 727.45
00050753 00000096 931.21 201.44 466.10 693.09 1038.79 466.90 1258.32 479.39 1133.68 604.39 1040.76 717.17 1217.86 728.37
00050754 00000097 932.55 204.64 466.72 692.55 1046.74 470.05 1267.50 484.05 1145.44 605.60 1044.70 716.63 1228.13 728.95
00050755 00000098 935.80 206.32 467.25 693.81 1053.71 473.12 1276.94 486.38 1155.45 608.15 1051.40 720.95 1236.26 732.63
00050756 00000099 939.62 209.59 465.56 689.41 1058.81 475.69 1285.61 486.86 1163.60 610.32 1061.16 724.53 1244.34 734.24
00050757 00000100 939.72 213.11 468.72 688.22 1062.81 478.65 1290.47 489.00 1172.03 614.01 1068.86 727.89 1252.06 736.81
00050758 00000101 940.75 214.46 468.79 688.17 1065.69 481.49 1293.68 491.38 1177.34 615.85 1073.42 730.82 1257.13 739.29
00050759 00000102 941.09 217.40 468.17 686.23 1067.27 485.41 1294.87 493.06 1181.34 618.63 1078.02 734.53 1260.50 741.23
00050760 00000103 941.37 219.04 467.38 686.01 1068.47 489.10 1296.55 495.76 1185.17 621.59 1081.24 737.44 1264.12 743.32
00050761 00000104 942.26 221.89 466.44 683.87 1069.63 492.62 1297.91 497.18 1189.50 624.18 1085.01 740.26 1268.05 744.41
00050762 00000105 941.02 225.60 467.64 684.06 1069.54 494.85 1297.72 498.83 1190.78 628.03 1085.42 742.08 1271.36 745.81
00050763 00000106 939.24 226.16 469.95 685.92 1069.38 498.47 1297.18 500.44 1193.22 631.12 1086.67 744.27 1274.19 746.30
00050764 00000107 939.08 226.61 469.71 688.31 1069.53 502.75 1296.46 502.29 1195.02 633.67 1088.08 746.94 1276.49 746.93
00050765 00000108 938.32 230.39 470.36 683.43 1069.74 505.26 1295.80 504.15 1196.06 637.11 1090.27 748.61 1276.76 748.19
00050766 00000109 936.88 230.57 471.61 684.40 1070.40 509.27 1295.43 506.68 1197.55 639.63 1091.53 749.84 1279.50 748.23
00050767 00000110 937.57 235.63 471.02 677.45 1071.79 512.33 1297.90 509.47 1199.31 643.76 1092.47 750.00 1282.61 748.29
00050768 00000111 936.49 238.79 472.65 675.02 1072.89 514.88 1301.39 511.80 1201.88 647.28 1093.46 751.73 1285.04 749.92
00050769 00000112 936.66 240.59 472.58 674.51 1072.88 518.12 1302.81 513.31 1203.55 652.24 1093.99 753.40 1288.08 750.15
00050770 00000113 937.30 242.08 472.62 672.43 1075.02 522.21 1304.41 517.22 1205.73 655.98 1095.60 754.49 1289.77 750.93
00050771 00000114 937.77 243.39 473.21 671.42 1076.40 524.21 1307.33 518.07 1209.45 659.29 1097.51 755.80 1294.48 751.26
00050772 00000115 938.19 246.26 473.48 669.04 1077.79 528.51 1308.46 518.55 1212.33 661.59 1100.18 755.78 1299.53 748.17
00050773 00000116 938.96 242.73 475.52 672.32 1081.88 527.54 1314.45 517.21 1219.05 660.46 1104.56 755.28 1305.82 747.37
00050774 00000117 940.30 235.48 476.47 677.99 1085.99 522.02 1317.15 511.65 1225.09 653.93 1108.40 751.75 1309.27 743.73
00050775 00000118 940.74 229.15 474.40 680.82 1089.46 514.27 1318.78 505.19 1230.75 644.24 1113.92 748.26 1311.27 741.06
00050776 00000119 942.22 224.64 472.87 680.01 1090.45 509.86 1320.66 501.84 1232.90 637.02 1115.57 745.28 1312.58 738.73
00050777 00000120 944.10 222.88 468.61 675.94 1091.44 507.74 1320.61 500.10 1233.30 635.35 1116.13 742.46 1310.14 736.26
00050778 00000121 943.78 225.37 469.38 677.52 1092.56 511.20 1320.07 503.55 1234.36 639.04 1116.27 745.27 1310.19 739.11
00050779 00000122 943.42 228.52 470.23 676.74 1095.18 514.67 1320.29 505.84 1236.73 642.48 1118.85 747.08 1310.69 740.11
00050780 00000123 944.34 229.09 470.24 672.16 1098.36 515.42 1321.89 506.73 1239.75 644.74 1122.31 745.55 1312.09 738.76
00050781 00000124 947.32 229.05 468.37 665.93 1102.86 515.42 1326.82 504.73 1246.92 644.10 1129.68 744.95 1318.71 736.48
00050782 00000125 953.05 223.07 466.70 671.11 1109.45 511.63 1333.00 500.06 1254.29 640.47 1138.43 745.24 1323.72 735.85
00050783 00000126 960.59 218.30 464.27 675.34 1119.97 508.16 1340.10 496.82 1264.74 636.50 1152.12 748.53 1328.23 739.04
00050784 00000127 971.00 213.33 459.83 680.95 1136.85 503.46 1347.45 492.11 1276.55 632.66 1173.22 751.18 1335.14 740.88
00050785 00000128 980.57 211.70 457.27 684.60 1146.70 501.32 1359.87 494.76 1290.60 623.80 1179.58 741.65 1346.89 736.84
00050786 00000129 991.21 210.12 456.67 681.25 1157.87 499.49 1373.07 489.21 1305.06 622.29 1194.56 742.22 1361.96 734.00
00050787 00000130 999.15 207.60 463.59 685.53 1173.75 500.80 1384.98 490.04 1321.70 624.71 1208.54 743.91 1375.30 735.36
00050788 00000131 1009.55 209.57 459.32 679.72 1189.88 502.50 1397.18 490.40 1338.57 628.04 1221.03 743.17 1387.61 733.17
00050789 00000132 1027.34 213.76 456.36 680.12 1210.80 500.57 1417.26 490.00 1359.28 631.90 1238.73 745.41 1405.27 736.03
00050790 00000133 1043.40 212.70 456.43 686.38 1220.34 501.14 1433.89 495.95 1371.59 624.73 1245.64 738.71 1421.86 734.98
00050791 00000134 1056.78 215.89 454.70 682.91 1231.34 504.22 1448.13 499.89 1382.51 628.95 1251.79 741.12 1430.94 738.29
00050792 00000135 1066.39 224.22 460.57 674.10 1243.11 508.53 1460.52 508.47 1390.45 636.87 1258.31 740.69 1438.73 741.66
00050793 00000136 1078.80 229.79 462.02 666.02 1252.51 512.01 1473.36 515.22 1396.28 645.30 1262.26 743.57 1445.73 747.49
CROP_BBOX: 556 0 1776 1080
