Video ID: 	tuOBWbMPFpA
H: 	1080
W: 	1920
FPS: 	25.0

FRAME INDEX X0 Y0 W H [Landmarks (5 Points)]

00031054 00000000 767.81 218.40 383.66 571.69 909.09 455.77 1066.86 442.89 1027.01 542.94 942.09 645.41 1080.05 634.65
00031055 00000001 767.78 216.61 385.40 571.61 909.12 451.86 1067.17 438.35 1026.83 537.52 943.53 641.99 1080.73 630.58
00031056 00000002 766.50 216.52 383.76 570.25 905.77 450.47 1065.75 436.57 1024.15 534.99 942.14 642.25 1078.24 630.80
00031057 00000003 762.79 216.32 383.98 569.85 902.34 450.46 1061.08 438.12 1019.19 533.65 940.20 641.07 1072.70 630.96
00031058 00000004 759.48 219.73 384.79 568.52 899.05 449.50 1056.49 438.47 1014.48 532.52 938.47 642.41 1066.63 633.35
00031059 00000005 757.63 217.41 383.51 572.82 892.99 450.65 1052.26 440.04 1007.13 536.57 936.31 646.81 1061.99 637.84
00031060 00000006 757.18 223.13 382.78 565.45 884.18 460.93 1050.35 445.57 1003.08 541.24 927.09 654.08 1064.34 641.17
00031061 00000007 755.34 223.59 381.80 560.91 878.76 462.58 1049.29 446.74 998.70 546.60 921.65 653.75 1064.40 639.91
00031062 00000008 755.19 224.04 381.01 557.27 875.71 463.43 1048.06 447.53 995.40 548.50 919.82 654.68 1062.86 640.60
00031063 00000009 753.10 224.22 384.01 559.13 874.13 463.05 1045.32 448.37 992.74 549.91 919.47 656.76 1058.73 643.70
00031064 00000010 752.61 224.15 385.40 563.98 875.55 464.14 1044.75 448.69 994.47 550.43 920.97 657.15 1060.19 643.58
00031065 00000011 754.12 225.04 385.08 561.52 876.75 463.63 1046.85 449.01 996.32 549.39 920.17 654.05 1062.59 641.17
00031066 00000012 755.86 226.18 383.54 557.97 878.44 462.57 1048.49 448.65 998.20 547.44 919.96 651.39 1063.37 639.36
00031067 00000013 756.16 225.92 383.34 557.48 880.64 462.57 1048.79 447.73 999.68 545.80 921.03 649.58 1064.06 636.91
00031068 00000014 756.06 225.48 382.84 556.85 879.70 462.59 1048.66 448.21 998.64 547.19 919.93 649.52 1063.18 637.13
00031069 00000015 755.13 223.95 379.79 556.43 874.83 465.14 1045.05 451.23 993.12 551.34 913.01 648.43 1059.90 636.56
00031070 DELETE   752.33 223.19 378.08 556.98 869.10 467.10 1037.02 454.89 983.63 552.04 905.65 646.64 1051.14 636.34
00031071 DELETE   746.74 224.28 380.73 556.18 863.26 467.47 1025.98 456.53 973.44 550.04 901.55 646.59 1039.60 636.89
00031072 00000018 740.19 221.85 385.21 565.91 853.27 466.41 1017.98 454.39 962.54 554.67 891.86 650.91 1032.15 640.66
00031073 00000019 734.80 222.53 386.31 566.80 843.22 466.86 1008.47 452.59 950.51 558.16 884.14 654.09 1024.17 642.21
00031074 00000020 729.42 226.02 389.14 566.18 837.71 467.37 1001.24 452.20 942.21 559.15 882.39 658.26 1016.39 645.58
00031075 00000021 726.25 226.99 390.27 573.11 834.29 468.67 996.61 453.85 937.86 559.25 877.50 659.85 1013.85 647.48
00031076 00000022 723.99 225.48 390.47 570.42 831.13 468.75 994.86 452.82 934.83 558.62 875.75 659.31 1012.96 645.78
00031077 00000023 723.79 225.19 389.71 567.36 828.42 467.92 994.76 451.55 932.87 558.06 872.83 658.18 1013.11 644.17
00031078 00000024 722.75 226.50 390.55 567.28 828.60 467.64 991.78 452.16 930.23 558.17 873.10 658.27 1009.26 645.08
00031079 00000025 721.32 226.51 391.41 570.76 828.24 467.79 988.59 451.93 928.68 559.83 872.65 658.88 1006.82 645.61
00031080 00000026 721.05 227.54 390.35 568.09 827.29 468.11 987.53 453.39 926.38 560.98 870.50 658.87 1003.85 646.61
00031081 00000027 719.70 228.42 390.36 567.59 825.30 468.30 986.86 454.86 924.27 563.01 867.49 660.12 1001.62 648.89
00031082 00000028 717.82 229.75 390.47 575.55 824.54 469.89 984.39 457.75 922.00 565.81 865.37 664.31 998.43 654.21
00031083 00000029 715.38 230.35 391.07 583.87 822.83 470.70 983.29 459.63 919.72 570.36 861.45 668.50 996.83 659.15
00031084 00000030 712.82 233.44 391.48 581.58 820.51 474.78 979.49 465.02 913.72 575.76 856.45 669.93 991.19 661.50
00031085 00000031 713.16 234.24 389.23 582.96 819.03 478.87 977.99 469.87 909.21 579.09 852.82 671.98 988.55 664.27
00031086 00000032 712.84 236.66 388.46 583.57 817.15 483.05 975.46 474.20 904.44 585.31 849.81 674.83 986.65 666.92
00031087 00000033 712.72 237.04 389.41 586.54 816.93 486.49 976.11 478.73 903.77 591.92 849.55 678.50 986.62 671.32
00031088 00000034 712.97 239.98 389.75 582.09 816.50 488.97 974.89 482.59 901.30 597.61 849.36 680.21 983.19 674.18
00031089 00000035 714.27 241.49 390.07 580.42 817.78 489.87 976.25 484.05 901.54 599.86 851.17 681.60 982.54 676.11
00031090 00000036 715.18 242.24 389.88 581.16 819.90 490.77 977.35 484.85 903.25 601.41 852.85 683.34 982.31 677.82
00031091 00000037 715.90 242.53 390.38 581.57 820.97 491.37 979.60 485.30 904.68 603.30 853.67 685.02 983.61 679.45
00031092 00000038 717.17 243.43 390.12 582.76 821.56 492.67 981.05 487.29 904.70 606.04 854.37 687.88 984.43 682.77
00031093 00000039 717.08 244.35 390.03 584.37 820.79 494.32 981.99 489.86 904.22 608.99 853.23 690.20 984.83 685.81
00031094 00000040 716.73 247.45 390.25 578.98 819.31 495.33 982.40 493.10 903.20 610.04 849.90 688.87 982.89 686.56
00031095 00000041 716.46 247.07 389.67 578.00 819.21 495.76 982.08 494.27 903.03 611.84 850.33 689.61 982.16 688.01
00031096 00000042 715.94 246.47 390.86 582.19 820.26 496.07 983.60 494.60 904.24 613.09 851.42 692.20 983.65 690.38
00031097 00000043 716.48 246.29 390.85 587.37 822.74 496.47 984.30 494.26 905.65 613.87 854.17 694.95 984.92 692.41
00031098 00000044 716.55 246.66 390.78 589.62 823.39 495.78 984.33 494.37 905.42 614.55 852.66 694.10 984.91 692.19
00031099 00000045 716.76 246.64 391.31 586.49 823.13 495.64 984.32 494.39 905.29 614.80 852.59 692.69 984.95 690.87
00031100 00000046 716.62 248.13 391.11 582.66 822.48 496.53 984.62 495.78 905.11 615.55 851.11 691.74 984.84 690.50
00031101 00000047 715.95 249.58 392.01 579.64 820.71 497.87 984.16 497.70 904.22 616.27 849.80 690.92 984.89 690.21
00031102 00000048 715.49 251.70 392.25 579.18 820.36 499.35 983.58 498.85 903.69 617.52 849.60 691.82 984.87 690.88
00031103 00000049 714.95 251.93 392.77 579.54 819.43 499.53 982.42 498.92 902.75 617.53 848.92 691.88 984.18 690.81
00031104 00000050 714.59 251.78 392.75 579.37 819.04 499.44 981.78 498.84 901.81 617.73 848.46 691.18 983.47 690.20
00031105 00000051 714.07 250.20 392.72 579.52 819.81 497.35 980.58 496.86 901.71 616.74 848.32 688.82 981.81 687.93
00031106 00000052 714.86 246.49 392.21 580.11 818.15 495.11 979.34 493.19 900.55 612.97 848.38 685.80 983.27 683.64
00031107 00000053 714.89 244.38 392.78 579.29 816.45 492.42 979.53 489.90 900.26 609.34 846.75 683.48 983.71 680.94
00031108 00000054 716.67 243.02 392.19 579.41 819.11 490.83 980.72 487.73 902.67 607.45 851.14 683.67 984.04 680.75
00031109 00000055 720.62 239.96 390.52 584.76 824.89 490.86 984.40 489.26 907.03 608.26 855.22 686.02 985.69 684.24
00031110 00000056 722.09 242.01 390.23 585.12 828.07 493.29 989.37 493.39 911.98 612.33 856.61 689.45 988.19 689.06
00031111 00000057 721.33 246.06 391.16 582.63 828.38 497.47 992.00 498.10 912.25 619.46 856.61 693.45 990.06 693.31
00031112 00000058 721.30 248.00 391.13 583.64 828.58 500.17 992.12 501.34 912.31 621.34 856.62 696.82 989.45 697.18
00031113 00000059 721.05 246.41 391.38 587.78 830.21 498.82 990.95 499.76 912.52 620.19 858.77 697.74 988.18 697.88
00031114 00000060 721.31 243.05 390.64 589.72 830.14 497.23 988.79 496.73 912.69 618.15 860.53 696.69 987.54 695.70
00031115 00000061 719.78 242.29 390.35 590.64 828.51 493.05 987.17 492.04 910.64 612.38 858.21 694.21 985.99 692.73
00031116 00000062 718.08 240.53 391.92 588.82 826.21 491.55 984.13 489.15 908.42 609.06 858.12 690.69 984.75 688.04
00031117 00000063 717.96 242.59 391.83 583.84 825.03 491.58 983.29 488.75 907.74 608.25 856.90 688.52 984.12 685.64
00031118 00000064 719.48 242.12 390.76 583.99 826.83 492.50 985.65 491.28 910.15 609.75 856.96 687.97 985.89 686.46
00031119 00000065 722.24 241.94 389.96 582.65 828.33 494.28 990.86 493.49 914.57 611.10 857.12 687.85 991.45 686.79
00031120 00000066 724.37 244.57 390.10 579.09 831.89 495.15 994.92 495.14 918.01 612.88 858.65 687.86 993.97 687.42
00031121 00000067 726.02 244.39 390.52 583.23 834.42 494.63 998.43 494.78 920.53 612.15 860.56 689.28 997.30 688.71
00031122 00000068 726.10 243.75 390.38 587.81 834.86 492.95 998.03 492.06 920.01 610.59 861.72 690.32 998.15 688.71
00031123 00000069 724.80 240.06 391.08 590.56 832.66 489.51 995.10 489.98 915.35 607.64 856.75 686.15 995.18 685.54
00031124 00000070 722.91 237.70 390.37 590.34 830.44 486.93 991.07 487.29 910.68 605.63 853.86 683.39 991.16 682.77
00031125 00000071 721.77 238.26 389.80 585.77 827.46 485.66 987.49 485.19 907.73 604.15 852.27 680.64 988.32 679.63
00031126 00000072 721.80 239.02 388.80 583.79 826.85 485.25 985.77 484.88 906.18 603.52 852.00 680.53 985.97 679.71
00031127 00000073 721.67 238.91 389.30 584.47 826.56 486.35 985.07 486.26 906.36 605.42 853.24 683.26 984.14 682.77
00031128 00000074 721.17 239.09 389.94 584.42 825.41 487.42 984.82 487.49 905.69 605.91 852.49 683.37 983.94 683.06
00031129 00000075 720.57 241.65 390.60 578.08 822.80 489.03 984.02 489.07 904.72 606.20 850.70 682.02 983.24 682.04
00031130 00000076 722.17 242.49 390.14 578.73 824.78 490.13 986.41 490.43 906.68 608.19 851.85 683.46 985.17 683.55
00031131 00000077 725.55 242.76 389.91 582.77 832.10 493.66 993.78 493.11 916.36 610.59 859.12 688.36 992.70 687.37
00031132 00000078 730.82 245.33 390.14 585.65 839.48 495.72 1005.28 493.04 929.37 612.19 867.01 692.96 1004.81 690.11
00031133 00000079 734.54 250.34 391.20 585.35 846.20 498.41 1013.16 495.68 938.67 614.50 871.61 694.94 1011.91 692.10
00031134 00000080 735.85 250.67 390.26 587.14 850.45 500.99 1015.58 498.11 944.12 617.11 874.13 695.31 1015.08 692.38
00031135 00000081 734.29 250.87 389.43 589.90 847.99 500.69 1013.54 497.63 941.47 616.99 873.16 697.54 1013.66 694.09
00031136 00000082 729.67 249.48 390.09 589.74 842.42 498.19 1007.59 495.17 933.82 616.28 868.42 696.39 1007.61 693.02
00031137 00000083 722.56 248.32 391.20 581.27 830.43 497.54 993.40 496.79 915.99 617.49 857.48 691.23 994.38 689.94
00031138 00000084 713.92 250.95 392.27 576.03 816.91 496.81 981.22 497.48 898.88 614.75 844.79 687.48 982.15 687.49
00031139 00000085 708.73 251.14 394.00 579.33 811.12 496.70 974.13 498.05 891.33 613.61 839.92 687.78 974.79 688.40
00031140 00000086 707.66 251.25 394.29 580.44 810.70 495.96 974.02 496.20 891.77 612.71 840.18 686.68 976.61 686.19
00031141 00000087 709.39 248.30 393.05 577.16 813.41 495.40 977.47 493.40 898.80 611.17 842.60 683.52 980.90 681.32
00031142 00000088 715.03 245.73 391.99 579.52 821.74 493.76 983.84 490.37 907.77 608.67 851.69 684.39 987.43 681.01
00031143 00000089 720.07 240.44 391.39 586.44 830.76 494.41 991.84 488.85 919.11 608.59 860.60 687.18 997.14 681.61
00031144 00000090 724.01 242.33 391.71 584.00 834.74 493.94 998.56 488.33 925.17 607.96 862.12 686.45 1002.31 681.11
00031145 00000091 725.06 242.39 391.99 584.30 834.78 492.83 999.65 488.26 924.93 606.63 861.99 686.33 1002.32 681.79
00031146 00000092 725.84 241.67 391.29 581.78 832.86 491.80 998.25 489.12 920.69 605.75 859.40 684.67 998.97 681.85
00031147 00000093 727.02 241.36 390.15 579.65 832.53 491.53 997.00 489.58 919.06 606.08 858.80 683.82 996.92 681.79
00031148 00000094 728.11 241.42 388.91 580.51 832.70 491.16 996.57 489.24 918.71 606.39 859.63 684.99 996.40 682.97
00031149 00000095 728.34 240.70 388.69 582.69 832.90 490.48 996.61 489.37 918.44 606.01 859.52 685.79 995.71 684.38
00031150 00000096 727.60 239.66 388.87 584.84 833.00 489.66 996.86 489.45 917.72 605.93 858.26 685.50 995.42 684.77
00031151 00000097 726.75 238.88 389.49 586.15 833.30 488.41 996.73 488.79 917.15 605.90 856.70 684.30 994.72 684.03
00031152 00000098 725.94 237.03 389.37 588.02 832.71 487.32 996.28 488.01 915.89 605.73 854.86 683.46 993.81 683.43
00031153 00000099 725.76 236.71 388.25 588.30 832.22 486.49 995.22 487.19 914.38 604.56 854.04 682.76 993.20 682.69
00031154 00000100 725.89 237.11 388.08 587.70 832.09 486.11 995.59 486.13 914.77 603.19 853.69 682.05 994.33 681.42
00031155 00000101 725.63 238.48 389.40 586.53 832.85 485.12 996.53 485.32 916.43 601.44 854.22 680.81 995.62 680.28
00031156 00000102 726.99 236.86 388.75 587.32 833.36 485.55 997.69 485.49 918.50 600.38 855.35 680.27 997.45 679.64
00031157 00000103 727.86 235.92 389.32 587.47 833.48 486.67 999.65 486.11 920.16 598.72 855.69 679.70 999.99 678.77
00031158 00000104 730.20 237.60 386.47 586.92 834.81 490.67 1001.34 491.64 920.44 600.19 855.08 680.32 1001.07 680.56
00031159 00000105 729.64 238.31 387.20 586.62 835.27 491.12 1001.46 492.49 920.75 600.58 854.35 679.90 1000.63 680.48
00031160 00000106 729.79 238.55 386.86 586.70 834.40 490.62 1001.51 491.57 919.92 601.12 854.18 680.41 1001.04 680.62
00031161 00000107 728.92 238.15 387.64 586.36 833.00 489.73 999.31 490.01 918.68 600.28 853.95 679.93 999.92 679.67
00031162 00000108 728.15 237.25 388.97 586.79 833.24 488.10 999.46 488.27 919.38 599.24 854.99 679.59 999.97 679.26
00031163 00000109 728.98 236.15 388.87 587.65 834.13 486.80 1000.58 486.88 920.61 598.66 855.66 679.24 1000.55 678.92
00031164 00000110 729.43 235.37 389.05 588.35 834.26 486.49 1001.12 486.13 921.32 598.15 856.20 678.85 1001.80 678.13
00031165 00000111 730.05 234.10 388.72 589.67 834.76 486.03 1002.19 485.94 922.11 597.05 856.45 678.55 1002.96 678.05
00031166 00000112 730.76 233.55 388.26 588.88 835.59 486.02 1002.97 486.05 923.43 596.42 856.85 677.78 1003.59 677.45
00031167 00000113 731.92 232.94 386.98 588.53 836.45 485.66 1003.75 486.24 924.34 596.56 857.18 677.52 1003.99 677.71
00031168 00000114 732.18 233.10 387.18 586.76 836.69 486.58 1005.09 487.54 925.16 597.58 857.89 677.99 1005.03 678.55
00031169 00000115 734.12 238.12 387.40 590.23 840.54 494.11 1009.06 495.35 929.84 604.68 859.17 682.41 1010.13 682.83
00031170 DELETE   739.42 251.15 385.96 588.65 851.35 502.29 1019.01 501.94 944.00 620.41 869.34 692.50 1020.35 691.73
00031171 DELETE   751.28 265.16 385.04 584.73 862.68 513.90 1031.05 519.01 957.59 628.91 877.56 695.73 1031.70 700.78
00031172 00000118 754.88 269.81 389.84 580.04 872.06 513.66 1043.17 516.97 969.81 631.36 887.37 695.80 1041.73 699.40
00031173 DELETE   756.29 261.54 392.22 586.55 875.54 505.34 1046.57 511.32 972.86 627.23 890.73 693.61 1041.82 699.52
00031174 00000120 757.16 258.24 392.32 584.88 874.69 501.31 1043.34 508.40 969.97 620.22 892.03 691.21 1039.84 697.95
00031175 00000121 757.48 255.89 393.39 581.86 873.84 498.85 1042.73 508.11 966.79 617.89 891.04 689.53 1036.05 697.91
00031176 00000122 758.38 255.22 392.80 581.62 872.80 497.24 1041.27 507.86 963.80 616.43 889.91 689.19 1032.69 698.66
00031177 00000123 758.63 255.16 392.03 582.67 871.15 496.37 1040.28 508.13 961.16 616.79 886.97 688.94 1030.99 699.27
00031178 00000124 758.10 254.95 391.08 583.57 869.37 495.76 1037.80 508.66 958.26 617.73 883.92 689.71 1027.76 701.06
00031179 00000125 755.91 254.60 390.77 578.74 867.22 495.76 1037.45 509.20 956.20 617.17 880.90 690.31 1024.47 701.99
00031180 00000126 754.56 251.74 390.48 580.95 866.75 494.20 1035.95 507.63 956.39 614.61 881.52 690.24 1023.85 701.84
00031181 00000127 753.69 249.00 391.42 587.27 867.41 492.04 1033.63 504.60 956.87 612.13 885.34 691.02 1024.07 702.14
00031182 00000128 752.54 248.47 390.84 581.17 866.77 491.93 1035.19 502.00 958.64 612.52 885.11 689.54 1026.31 698.40
00031183 00000129 751.24 247.26 390.46 577.51 866.37 490.44 1035.00 500.99 957.92 613.37 882.38 687.89 1022.66 697.34
00031184 00000130 751.61 247.13 389.74 580.29 867.21 489.23 1035.70 499.82 959.70 613.22 882.45 686.62 1024.65 696.14
CROP_BBOX: 514 0 1507 1067
