Video ID: 	E7PjO4Ig5Os
H: 	2160
W: 	3840
FPS: 	25.0

FRAME INDEX X0 Y0 W H [Landmarks (5 Points)]

00036746 00000000 1385.46 117.99 510.64 781.36 1727.44 477.64 1815.54 467.99 1881.06 606.60 1714.73 735.88 1781.30 732.95
00036747 DELETE   1391.70 130.72 512.53 792.37 1738.28 489.97 1822.67 483.56 1886.10 624.05 1724.89 757.92 1794.75 757.99
00036748 DELETE   1388.79 152.43 513.54 793.71 1730.31 520.95 1831.58 501.89 1892.09 645.37 1724.07 783.87 1793.50 774.12
00036749 00000003 1393.79 174.06 510.01 792.99 1733.55 548.49 1833.94 527.90 1892.31 667.27 1716.60 802.51 1790.54 792.62
00036750 DELETE   1398.46 214.78 509.02 776.71 1745.60 569.82 1841.79 549.16 1900.92 699.07 1731.02 832.59 1801.70 821.34
00036751 00000005 1401.94 224.26 510.41 784.70 1745.77 588.80 1841.23 569.13 1906.95 715.57 1734.84 853.23 1802.49 842.35
00036752 00000006 1408.47 242.54 506.49 785.26 1746.19 608.77 1845.15 592.43 1903.25 735.48 1737.92 870.18 1807.57 861.80
00036753 DELETE   1413.05 265.98 504.15 789.30 1754.95 626.49 1842.50 613.70 1907.68 758.13 1745.60 890.18 1813.45 885.88
00036754 DELETE   1411.72 285.19 508.28 787.74 1753.53 641.71 1841.93 634.11 1911.27 774.39 1748.49 906.89 1813.55 905.18
00036755 00000009 1409.76 294.35 513.90 787.67 1756.61 651.14 1850.18 643.56 1916.10 785.94 1749.37 917.79 1816.47 915.78
00036756 00000010 1413.37 295.29 513.44 789.29 1759.11 654.69 1851.54 646.01 1920.35 788.70 1749.92 922.28 1816.66 919.46
00036757 00000011 1414.42 299.02 513.09 791.72 1759.14 660.91 1852.29 651.80 1922.44 794.78 1748.02 928.15 1815.93 925.27
00036758 00000012 1421.16 306.88 514.52 792.27 1761.26 669.49 1859.14 659.68 1922.69 805.67 1747.37 934.71 1818.95 931.38
00036759 00000013 1418.45 312.55 515.93 792.34 1761.04 675.64 1861.55 663.96 1921.06 812.10 1747.34 939.36 1821.37 934.82
00036760 00000014 1422.27 312.54 514.97 796.73 1765.99 679.14 1865.16 667.20 1922.79 816.32 1751.80 943.22 1823.20 938.51
00036761 00000015 1424.44 332.33 515.70 781.92 1770.76 699.49 1872.35 682.27 1926.73 825.39 1755.37 950.60 1828.18 942.99
00036762 00000016 1429.68 325.26 512.89 789.54 1776.07 699.77 1875.63 686.86 1927.97 834.25 1759.57 953.60 1834.10 950.65
00036763 00000017 1435.43 322.17 512.22 795.23 1779.61 695.54 1880.45 683.32 1931.20 834.88 1766.90 957.29 1841.09 954.10
00036764 00000018 1438.97 338.64 509.86 785.28 1781.51 701.61 1879.08 690.43 1934.23 845.40 1769.22 968.19 1841.08 964.93
00036765 00000019 1441.35 347.48 510.46 778.51 1783.51 703.80 1881.16 693.22 1937.09 846.73 1775.01 970.39 1846.83 967.01
00036766 00000020 1442.00 355.57 514.12 777.76 1783.53 708.85 1884.69 699.24 1940.24 852.73 1774.31 978.56 1848.70 975.34
00036767 00000021 1439.93 363.52 517.21 777.79 1783.95 715.90 1889.40 707.77 1940.76 860.17 1774.73 987.64 1850.47 984.90
00036768 00000022 1440.94 364.05 522.33 779.57 1787.48 715.23 1895.90 706.99 1943.84 861.08 1776.74 990.69 1854.37 987.32
00036769 00000023 1445.83 355.49 522.80 789.88 1791.59 717.91 1902.04 706.57 1949.71 864.15 1782.07 993.70 1861.94 988.68
00036770 00000024 1450.93 365.79 521.62 789.38 1791.93 729.14 1903.48 717.45 1951.43 875.03 1776.48 1002.17 1857.79 997.22
00036771 00000025 1458.73 360.03 515.55 805.47 1801.05 736.78 1906.24 719.05 1956.44 870.93 1781.28 1006.54 1860.67 997.34
00036772 00000026 1464.29 373.98 510.59 790.00 1800.75 749.68 1909.22 728.82 1955.11 875.50 1780.30 1009.15 1863.62 997.98
00036773 00000027 1467.52 369.82 514.06 796.85 1806.09 760.21 1913.36 742.14 1958.52 884.14 1783.58 1011.99 1866.63 1003.62
00036774 00000028 1471.14 383.84 508.17 782.90 1805.48 761.69 1910.84 742.68 1958.99 884.09 1785.06 1012.34 1867.32 1003.05
00036775 00000029 1470.06 377.25 508.42 793.65 1807.13 757.52 1907.73 742.78 1957.29 887.70 1784.03 1014.84 1861.13 1007.97
00036776 00000030 1470.09 392.75 504.70 779.30 1804.51 760.15 1904.34 749.76 1951.71 892.69 1780.71 1016.97 1856.35 1012.16
00036777 00000031 1463.54 397.05 507.88 773.19 1798.80 756.36 1902.73 745.10 1950.43 890.67 1776.82 1014.26 1853.44 1010.54
00036778 00000032 1465.30 399.04 505.49 774.43 1800.01 759.29 1901.01 748.68 1950.96 894.29 1778.99 1016.46 1854.16 1013.33
00036779 00000033 1461.12 408.03 504.94 774.17 1795.01 767.30 1893.41 755.14 1949.13 897.75 1773.33 1020.42 1846.79 1016.57
00036780 00000034 1459.52 410.27 503.39 771.24 1793.16 771.77 1893.98 759.13 1946.90 898.07 1770.62 1019.54 1846.94 1015.79
00036781 00000035 1460.27 408.68 504.34 770.22 1792.91 778.58 1897.26 762.66 1947.40 902.67 1769.28 1023.10 1848.10 1017.60
00036782 00000036 1455.76 402.17 502.65 774.54 1788.53 770.58 1892.00 755.61 1942.72 896.23 1764.88 1017.12 1842.11 1012.07
00036783 00000037 1450.49 394.66 507.76 775.83 1786.11 758.72 1891.20 741.39 1940.85 888.03 1766.36 1013.60 1842.60 1005.78
00036784 00000038 1448.93 380.32 509.47 788.34 1785.15 752.02 1891.34 737.15 1941.54 887.23 1764.74 1010.74 1842.62 1004.82
00036785 00000039 1444.30 375.31 513.06 789.69 1781.38 744.72 1890.21 727.86 1940.40 883.41 1761.55 1008.54 1841.27 1000.87
00036786 00000040 1441.34 377.12 510.38 791.28 1777.19 746.35 1884.94 730.64 1936.35 886.52 1758.06 1011.52 1836.30 1004.39
00036787 00000041 1439.18 384.46 510.96 782.64 1773.54 756.57 1885.99 736.23 1933.85 886.99 1752.52 1011.25 1835.48 1001.74
00036788 00000042 1435.89 385.71 509.35 783.36 1769.04 761.49 1884.64 743.02 1929.28 889.51 1749.00 1012.07 1834.12 1004.18
00036789 00000043 1430.84 392.28 511.42 778.47 1766.85 762.22 1877.48 744.88 1925.11 888.43 1746.91 1012.89 1826.46 1005.26
00036790 00000044 1431.82 389.02 508.48 781.60 1768.28 755.50 1872.79 740.31 1924.71 886.81 1746.93 1012.02 1822.38 1005.40
00036791 00000045 1425.94 391.25 510.41 782.91 1765.38 758.57 1869.56 743.88 1921.22 889.71 1745.69 1014.38 1819.81 1008.17
00036792 00000046 1423.52 392.62 509.06 778.85 1762.54 754.92 1862.85 743.15 1918.57 888.15 1744.24 1011.86 1816.26 1007.29
00036793 00000047 1423.50 389.38 507.83 780.79 1760.97 753.98 1863.49 741.78 1917.43 887.53 1742.55 1012.15 1816.15 1007.30
00036794 00000048 1416.92 391.30 508.77 777.43 1754.88 755.97 1860.71 742.17 1912.36 886.82 1741.60 1013.56 1817.37 1007.44
00036795 00000049 1417.66 387.53 506.28 776.18 1751.02 750.12 1859.63 735.79 1911.98 880.63 1738.71 1009.20 1817.99 1002.44
00036796 00000050 1415.89 386.57 506.11 777.37 1748.87 749.06 1858.79 734.01 1911.55 880.36 1738.53 1010.00 1818.64 1002.51
00036797 00000051 1412.39 383.62 506.47 777.95 1746.13 748.65 1857.36 730.83 1909.00 877.76 1737.22 1007.81 1818.69 998.54
00036798 00000052 1414.74 391.21 502.53 768.57 1745.29 748.27 1856.37 732.10 1907.15 877.11 1736.37 1007.63 1817.79 999.09
00036799 00000053 1415.02 391.41 502.17 768.53 1746.11 747.89 1855.57 732.25 1907.64 877.33 1736.44 1007.07 1816.64 998.85
00036800 00000054 1412.85 383.85 504.26 773.52 1745.89 746.90 1855.97 729.35 1908.74 876.20 1735.23 1007.30 1816.38 998.11
00036801 00000055 1412.48 379.55 505.49 778.47 1747.14 747.99 1857.08 730.03 1909.03 875.10 1734.69 1006.19 1816.74 996.99
00036802 00000056 1414.13 383.77 506.64 771.68 1746.64 753.58 1860.81 738.39 1908.45 876.39 1731.52 1005.57 1816.85 998.95
00036803 00000057 1414.05 387.71 504.22 767.90 1747.34 750.77 1860.21 732.27 1908.77 874.04 1731.40 1005.34 1816.62 995.75
00036804 00000058 1414.17 382.86 505.31 772.74 1750.75 742.61 1860.63 726.24 1911.01 871.77 1735.39 1003.16 1818.22 994.55
00036805 00000059 1417.57 384.30 503.90 768.33 1753.03 739.28 1863.89 726.53 1911.63 872.68 1739.03 1001.43 1821.15 995.06
00036806 00000060 1415.62 385.08 506.08 766.73 1755.49 736.69 1863.43 723.28 1914.87 870.79 1740.29 999.38 1820.64 992.44
00036807 00000061 1421.97 382.86 502.54 769.20 1758.03 734.77 1864.68 724.19 1916.50 872.36 1740.77 999.48 1820.40 994.51
00036808 00000062 1420.52 390.44 507.84 762.86 1754.83 749.29 1867.41 733.04 1915.77 876.72 1734.23 1003.23 1819.85 995.39
00036809 00000063 1419.11 387.12 511.12 764.74 1758.46 748.69 1868.93 735.27 1917.61 877.22 1736.74 1001.44 1820.15 995.84
00036810 00000064 1423.40 388.05 508.56 765.55 1761.39 743.59 1870.94 728.73 1921.19 875.76 1743.29 1002.22 1824.40 994.92
00036811 00000065 1428.38 387.67 504.82 764.64 1765.37 735.01 1871.37 722.47 1925.80 873.29 1749.05 998.56 1827.63 992.58
00036812 00000066 1431.50 384.15 505.27 764.70 1768.02 730.19 1870.86 718.15 1930.30 868.54 1752.64 994.31 1829.23 988.74
00036813 00000067 1432.59 383.08 506.19 764.53 1769.92 726.16 1873.45 715.99 1931.53 867.39 1754.40 991.50 1831.67 987.17
00036814 00000068 1432.54 377.40 506.55 769.79 1770.29 723.17 1874.14 714.40 1930.19 866.48 1753.30 991.09 1830.04 987.77
00036815 00000069 1435.12 381.67 504.95 764.31 1771.22 721.58 1875.49 714.63 1931.26 866.53 1755.55 990.45 1832.06 988.22
00036816 00000070 1435.22 387.14 506.68 755.68 1771.10 716.96 1878.96 713.18 1932.03 862.19 1758.47 987.04 1838.85 986.69
00036817 00000071 1434.89 380.32 506.51 761.39 1771.76 715.77 1879.34 710.12 1932.91 860.86 1759.78 985.89 1839.99 984.69
00036818 00000072 1434.81 383.83 506.82 757.79 1771.96 714.59 1878.47 709.64 1932.27 860.64 1758.03 984.97 1837.63 984.06
00036819 00000073 1436.82 383.51 502.77 759.66 1771.59 716.51 1877.73 711.00 1930.41 861.05 1756.15 984.11 1835.74 983.13
00036820 00000074 1432.31 375.23 509.31 768.01 1768.99 726.47 1881.81 715.89 1928.65 863.40 1752.82 987.43 1835.45 983.60
00036821 00000075 1432.55 378.28 508.17 763.44 1768.35 725.52 1881.90 714.22 1929.60 861.89 1753.56 986.16 1838.69 981.74
00036822 00000076 1436.03 377.07 507.55 761.67 1771.11 719.20 1880.68 708.16 1931.63 859.23 1756.24 984.40 1838.77 979.96
00036823 00000077 1438.93 377.39 502.04 759.71 1772.35 715.08 1877.99 707.43 1930.43 859.76 1757.94 981.86 1837.65 979.69
00036824 00000078 1439.83 373.40 504.05 762.19 1773.00 710.82 1879.24 703.53 1931.52 857.00 1759.13 978.42 1839.27 976.58
00036825 00000079 1440.75 369.96 503.64 764.99 1774.19 710.57 1879.56 703.47 1932.45 857.04 1759.04 978.02 1838.60 976.63
00036826 00000080 1440.69 369.44 503.06 766.39 1773.53 710.42 1878.72 703.61 1932.13 857.12 1759.26 978.01 1838.55 976.83
00036827 00000081 1443.13 369.68 505.32 761.24 1775.68 708.59 1881.87 701.92 1933.70 855.15 1761.10 974.77 1840.96 973.66
00036828 00000082 1447.21 360.06 501.85 765.82 1777.88 705.99 1883.98 697.88 1934.15 852.27 1763.08 970.64 1844.31 968.95
00036829 00000083 1447.48 351.37 504.51 772.79 1779.89 700.45 1887.06 692.04 1935.25 847.98 1765.25 967.30 1847.97 965.43
00036830 00000084 1448.87 355.36 502.72 769.07 1782.37 711.53 1887.69 699.34 1936.90 852.10 1764.31 968.30 1845.88 964.68
00036831 00000085 1448.47 349.60 504.84 775.54 1783.04 713.22 1889.59 702.46 1936.96 854.56 1763.09 969.11 1845.51 966.78
00036832 00000086 1450.60 355.74 504.00 767.91 1783.29 710.10 1891.42 700.08 1937.20 851.05 1765.84 968.22 1849.17 965.69
00036833 00000087 1454.13 357.91 502.85 763.73 1785.59 703.93 1894.89 695.26 1937.39 845.99 1771.68 965.89 1856.18 963.43
00036834 00000088 1456.57 350.07 502.09 768.21 1786.45 698.40 1897.09 691.29 1937.05 842.41 1774.85 964.09 1859.85 962.53
00036835 00000089 1456.20 352.45 502.85 765.19 1785.94 697.94 1896.10 690.25 1936.87 842.11 1774.04 963.63 1858.51 961.55
00036836 00000090 1455.13 351.44 503.67 767.97 1786.05 696.39 1896.52 689.89 1937.02 842.50 1772.73 963.20 1857.50 961.92
00036837 00000091 1453.92 347.79 505.37 770.55 1786.92 696.32 1896.24 689.22 1937.59 842.00 1772.23 961.89 1856.73 960.48
00036838 00000092 1455.75 347.68 504.92 767.67 1789.56 695.71 1896.87 690.51 1938.86 839.77 1774.86 958.04 1859.28 958.22
00036839 00000093 1458.62 344.83 503.36 767.94 1791.49 692.69 1899.03 686.65 1939.98 837.04 1778.55 956.64 1863.12 956.00
00036840 00000094 1460.44 343.58 503.03 768.86 1792.64 692.59 1900.78 688.05 1940.99 837.03 1779.44 956.38 1864.82 956.85
00036841 00000095 1460.75 341.27 503.52 771.70 1794.36 691.89 1901.38 687.32 1942.84 837.48 1779.21 956.25 1864.30 956.87
00036842 00000096 1461.46 332.64 503.89 780.11 1795.03 691.41 1905.10 687.52 1943.21 838.30 1778.97 956.37 1866.34 958.00
00036843 00000097 1462.64 336.53 502.15 778.52 1796.31 693.16 1905.87 689.41 1943.83 838.97 1779.83 956.85 1867.32 958.40
00036844 00000098 1460.48 346.06 503.75 767.75 1794.52 701.93 1904.09 694.30 1942.04 841.24 1777.77 959.01 1864.69 957.84
00036845 00000099 1458.24 335.82 506.69 777.19 1795.70 701.67 1904.57 693.68 1942.59 841.70 1778.55 959.27 1864.48 958.38
00036846 00000100 1461.47 336.05 504.05 775.47 1795.84 698.33 1906.89 691.86 1941.89 839.89 1779.10 957.28 1867.21 957.22
00036847 00000101 1462.56 339.73 503.95 772.36 1795.99 693.30 1906.72 688.49 1942.54 838.06 1781.02 956.87 1868.90 957.19
00036848 00000102 1464.96 339.05 502.23 772.05 1797.13 693.32 1907.08 688.07 1944.76 838.33 1781.98 956.48 1869.11 956.82
00036849 00000103 1462.01 335.82 503.27 784.14 1799.08 702.78 1904.80 688.62 1949.67 841.92 1783.25 967.34 1869.74 960.89
00036850 00000104 1462.34 332.14 505.35 780.78 1796.47 691.85 1907.41 685.30 1945.69 838.99 1784.00 959.10 1871.34 958.46
00036851 00000105 1462.46 331.73 503.40 790.44 1798.87 703.89 1906.38 689.29 1949.30 841.74 1783.77 968.53 1871.70 961.98
00036852 00000106 1461.48 344.16 501.18 778.60 1798.84 713.24 1904.32 693.89 1948.35 842.85 1781.02 969.63 1867.21 960.51
00036853 00000107 1466.73 346.67 502.40 766.98 1798.55 702.36 1907.23 692.74 1947.46 841.39 1779.46 960.72 1866.51 958.31
00036854 00000108 1466.49 339.86 499.97 778.82 1801.38 707.57 1907.59 691.77 1950.06 840.44 1783.31 966.88 1870.89 959.80
00036855 00000109 1467.10 332.87 501.35 785.76 1801.16 705.98 1908.64 690.59 1951.74 840.75 1783.06 966.97 1871.92 960.18
00036856 00000110 1466.59 334.90 502.23 782.82 1802.91 704.81 1906.94 690.38 1952.72 840.28 1782.96 964.13 1869.60 957.99
00036857 00000111 1467.10 328.35 503.67 788.60 1804.55 703.70 1907.84 689.40 1953.84 840.64 1782.61 962.93 1869.66 957.13
00036858 00000112 1466.62 324.81 504.01 788.50 1805.65 702.97 1908.16 688.20 1954.70 838.61 1785.41 961.90 1871.36 955.85
00036859 00000113 1471.02 333.34 498.88 776.44 1806.61 699.41 1907.63 684.06 1953.56 835.52 1784.43 956.87 1869.60 950.36
00036860 00000114 1473.24 327.31 498.77 776.85 1795.83 694.86 1904.52 674.82 1946.84 822.69 1778.90 949.43 1866.39 937.86
00036861 00000115 1464.51 319.39 507.49 779.55 1792.18 685.42 1903.67 664.87 1944.31 814.34 1779.09 945.00 1866.42 932.82
00036862 00000116 1456.59 310.92 519.23 767.58 1788.55 671.83 1909.26 653.66 1945.87 804.86 1777.86 930.23 1870.54 920.74
00036863 00000117 1452.41 316.58 518.85 753.05 1786.60 664.07 1903.02 651.53 1939.80 797.38 1778.91 920.19 1867.20 913.97
00036864 00000118 1455.88 310.06 512.04 753.21 1784.42 655.90 1901.29 645.09 1937.88 793.21 1775.51 914.56 1864.76 909.95
00036865 00000119 1458.96 303.16 507.52 751.94 1784.42 651.61 1902.34 640.68 1938.50 789.15 1776.64 909.69 1867.12 905.62
00036866 00000120 1460.81 303.55 505.80 747.64 1785.59 646.59 1901.79 638.51 1939.51 786.55 1778.38 906.03 1867.33 903.99
00036867 00000121 1460.14 296.72 508.07 754.08 1785.95 644.96 1903.15 637.16 1940.03 785.35 1778.13 905.05 1868.39 903.49
00036868 00000122 1462.63 296.67 503.61 748.29 1784.58 647.48 1901.02 638.28 1938.04 783.43 1776.51 901.63 1866.56 899.67
00036869 00000123 1464.77 306.40 503.17 734.89 1784.21 653.71 1903.10 640.23 1936.58 782.43 1773.98 900.40 1867.55 895.39
00036870 00000124 1464.02 299.14 499.47 740.58 1785.05 648.31 1902.10 637.60 1942.82 775.45 1774.25 896.44 1863.23 892.92
00036871 00000125 1466.48 293.48 495.56 741.89 1786.72 640.54 1902.10 631.83 1942.98 769.92 1774.56 888.18 1863.00 885.94
00036872 00000126 1466.11 284.01 498.25 741.74 1788.26 631.51 1905.25 625.55 1940.79 761.73 1774.43 877.90 1863.62 877.40
00036873 00000127 1465.87 284.62 497.61 739.13 1788.44 627.02 1903.47 621.34 1939.68 757.55 1773.50 873.05 1860.80 872.68
00036874 00000128 1464.37 275.09 497.40 744.72 1788.10 620.29 1903.70 615.39 1938.31 752.65 1772.85 868.33 1860.82 868.50
00036875 00000129 1460.21 272.24 500.00 746.33 1785.92 621.16 1903.86 611.15 1938.13 748.62 1768.87 866.73 1859.32 863.85
00036876 00000130 1456.25 264.66 504.72 753.01 1785.18 619.47 1905.48 608.27 1937.85 745.82 1768.19 864.90 1860.05 861.60
00036877 00000131 1455.52 270.39 502.40 747.36 1781.95 613.80 1903.17 603.59 1936.94 742.62 1769.66 862.91 1862.06 859.23
00036878 00000132 1457.83 266.64 501.82 750.36 1783.18 608.37 1904.79 599.95 1937.40 740.81 1773.25 861.79 1864.97 858.80
00036879 00000133 1459.07 259.70 501.53 757.78 1783.16 604.97 1905.52 598.07 1936.82 741.18 1773.33 861.12 1865.11 859.07
00036880 00000134 1457.76 257.02 501.64 762.22 1782.73 605.82 1904.34 597.49 1937.00 741.64 1772.86 862.57 1863.99 859.73
00036881 00000135 1455.29 260.00 504.44 758.39 1781.70 604.66 1905.04 596.80 1936.20 740.96 1772.92 862.71 1864.33 859.86
00036882 00000136 1457.00 261.18 502.56 757.36 1780.42 602.59 1904.20 593.81 1936.92 739.46 1773.02 862.15 1864.91 858.58
00036883 00000137 1456.78 254.99 502.15 761.14 1778.41 597.70 1907.76 590.90 1935.88 737.85 1773.19 860.51 1868.55 858.11
00036884 00000138 1458.38 251.74 500.48 762.97 1779.45 597.31 1907.21 589.62 1936.62 737.16 1773.61 859.68 1868.06 856.84
00036885 00000139 1457.97 255.28 501.04 759.01 1780.75 600.34 1906.02 593.46 1935.36 738.53 1772.86 859.51 1865.74 857.35
00036886 00000140 1453.06 264.50 500.68 755.38 1779.72 614.02 1901.11 605.35 1933.46 742.14 1768.28 862.59 1859.46 860.28
00036887 00000141 1453.40 266.80 500.60 754.46 1779.15 614.78 1900.16 607.42 1933.52 746.14 1765.53 864.33 1856.28 862.89
00036888 00000142 1456.50 270.70 497.23 750.95 1782.27 613.92 1898.48 608.49 1933.61 747.20 1768.49 864.91 1855.19 864.48
00036889 00000143 1460.97 272.93 497.37 746.79 1784.55 611.35 1900.82 609.63 1935.99 746.83 1771.66 863.96 1858.51 865.75
00036890 00000144 1461.98 259.63 501.33 758.09 1786.57 603.86 1906.88 601.54 1939.20 743.79 1776.04 862.56 1866.27 863.75
00036891 00000145 1464.60 255.77 501.09 759.61 1787.99 601.73 1910.25 597.40 1941.05 742.35 1779.45 862.23 1870.34 861.99
00036892 00000146 1466.57 260.56 498.40 756.67 1789.12 605.49 1910.01 601.41 1940.78 742.55 1778.37 862.60 1869.41 862.84
00036893 00000147 1467.16 262.40 497.53 755.72 1790.36 616.62 1908.19 613.85 1940.84 748.22 1774.20 864.28 1863.61 866.92
00036894 00000148 1469.22 271.04 496.94 746.25 1792.85 616.22 1908.70 614.01 1940.53 748.07 1775.18 863.88 1863.54 866.32
00036895 00000149 1471.23 265.18 493.79 760.59 1793.17 613.81 1903.62 611.25 1937.49 745.59 1777.90 870.74 1863.63 870.51
00036896 00000150 1473.14 262.09 493.80 761.23 1795.46 611.54 1904.85 612.39 1938.62 747.39 1779.89 870.61 1864.88 872.30
00036897 00000151 1469.70 253.30 497.31 771.62 1794.98 608.64 1905.26 608.96 1940.26 746.02 1781.31 871.41 1866.52 872.88
00036898 00000152 1470.72 259.75 494.85 766.16 1795.35 609.60 1902.79 611.46 1938.87 747.64 1778.41 870.11 1862.63 872.80
00036899 00000153 1470.68 268.97 495.27 756.03 1795.16 617.12 1904.23 617.25 1938.28 748.09 1776.62 869.49 1861.96 871.46
00036900 00000154 1472.65 271.86 496.17 753.99 1792.46 623.90 1906.95 623.63 1939.43 752.02 1775.65 869.79 1866.09 871.99
00036901 00000155 1472.25 263.02 498.38 761.17 1796.47 621.63 1909.78 618.94 1943.33 751.51 1782.05 871.59 1869.59 871.75
00036902 00000156 1477.58 266.74 493.48 755.59 1798.73 616.50 1912.15 614.42 1942.45 746.78 1791.02 870.93 1877.19 870.58
00036903 00000157 1478.85 265.66 494.54 755.44 1800.69 612.85 1915.18 613.47 1946.98 746.38 1794.71 870.88 1881.79 871.99
00036904 00000158 1478.82 264.72 495.60 757.46 1801.96 615.94 1913.52 616.53 1948.96 752.81 1793.35 872.72 1877.97 874.04
00036905 00000159 1480.24 266.90 495.42 759.29 1801.37 616.99 1913.90 620.79 1948.13 756.44 1788.68 873.65 1874.44 877.00
00036906 00000160 1483.11 261.25 493.17 763.01 1804.40 618.47 1916.35 621.08 1950.24 757.69 1792.64 874.37 1877.48 877.20
00036907 00000161 1479.82 251.50 501.03 772.82 1808.92 618.94 1919.03 620.80 1958.17 758.91 1797.70 876.21 1880.03 878.78
