Video ID: 	yIASXTMGXuI
H: 	1080
W: 	1920
FPS: 	29.97002997002997

FRAME INDEX X0 Y0 W H [Landmarks (5 Points)]

00000075 00000000 754.68 168.50 441.32 675.82 911.22 464.15 1120.24 446.98 1054.70 580.24 950.75 692.29 1122.91 676.24
00000076 DELETE   752.58 168.41 437.76 669.58 905.33 462.38 1115.25 444.05 1050.41 575.28 945.94 688.96 1119.63 672.14
00000077 00000002 751.01 166.34 438.05 669.30 900.77 461.00 1111.67 440.38 1046.47 573.64 943.01 687.66 1117.92 669.14
00000078 00000003 750.37 167.40 435.37 662.97 896.06 459.18 1107.25 436.54 1043.12 570.48 940.44 684.98 1115.43 665.10
00000079 00000004 749.79 167.53 433.37 661.09 893.89 457.27 1105.69 434.54 1041.73 569.02 937.42 682.71 1113.62 662.85
00000080 00000005 749.86 164.80 432.86 660.36 892.54 455.47 1103.96 432.88 1039.67 567.15 937.04 680.97 1111.60 661.25
00000081 00000006 749.47 162.16 430.90 662.04 890.40 452.58 1102.15 430.11 1037.36 564.18 935.18 679.12 1109.76 659.50
00000082 00000007 748.58 159.69 430.60 662.09 886.01 449.79 1098.14 428.01 1031.13 561.22 929.94 675.78 1105.92 656.79
00000083 00000008 748.24 157.72 431.00 662.55 884.44 447.53 1095.14 426.35 1027.29 556.53 928.66 672.26 1104.84 653.69
00000084 00000009 747.48 158.49 430.60 663.02 883.26 445.39 1092.53 425.00 1025.32 554.38 928.09 671.47 1103.06 653.51
00000085 00000010 746.62 158.88 430.31 663.06 882.28 444.11 1091.76 425.16 1023.69 553.07 925.81 670.06 1101.21 653.37
00000086 00000011 746.96 158.90 429.57 659.82 881.14 442.77 1089.73 423.88 1021.16 551.04 924.64 667.72 1100.05 651.10
00000087 00000012 747.78 158.09 427.88 659.32 879.99 442.35 1089.58 423.71 1020.01 550.27 923.10 666.72 1099.89 650.23
00000088 00000013 748.35 158.52 427.31 660.51 878.85 441.33 1088.17 422.62 1018.15 549.21 922.55 666.61 1099.60 649.94
00000089 00000014 747.43 156.09 427.96 664.06 876.91 442.15 1085.59 423.83 1013.88 549.79 919.80 665.58 1097.76 649.21
00000090 00000015 745.68 156.46 429.14 665.47 874.25 442.94 1083.44 424.07 1011.34 550.92 918.04 666.29 1096.18 649.62
00000091 00000016 744.63 157.34 429.30 663.23 872.77 442.73 1081.90 424.51 1008.91 550.32 915.10 664.27 1094.41 648.18
00000092 00000017 743.54 161.47 429.80 660.95 870.96 445.05 1080.66 425.69 1008.43 551.04 914.48 665.96 1094.45 649.04
00000093 00000018 742.92 165.86 428.23 657.67 869.09 446.43 1077.79 426.60 1006.04 551.02 912.38 666.92 1092.24 649.82
00000094 00000019 741.72 171.48 428.28 653.96 866.23 448.93 1074.66 427.66 1002.70 552.19 910.90 669.71 1089.96 651.71
00000095 00000020 741.73 170.90 428.80 654.97 866.16 449.30 1074.72 427.18 1003.47 551.62 911.34 670.18 1090.78 651.46
00000096 00000021 741.38 174.62 428.51 650.62 866.26 451.89 1073.71 429.06 1002.93 554.32 911.52 671.58 1089.22 652.42
00000097 00000022 741.55 177.35 427.96 651.16 864.34 453.32 1072.09 429.32 999.95 555.85 910.82 673.65 1088.75 653.56
00000098 00000023 741.19 179.67 428.24 648.62 863.82 454.62 1071.20 430.00 999.23 556.00 910.54 674.20 1087.92 653.74
00000099 00000024 742.94 178.76 426.86 649.32 864.06 454.23 1071.55 429.70 998.68 556.05 910.66 674.20 1088.06 653.74
00000100 00000025 743.28 180.46 425.68 646.45 864.30 454.31 1071.76 431.23 998.77 555.86 910.25 673.74 1087.04 654.46
00000101 00000026 742.85 179.68 423.48 649.11 863.62 454.47 1070.45 430.91 998.37 554.94 909.48 673.62 1086.50 653.98
00000102 00000027 743.51 180.64 423.82 647.45 864.38 454.47 1070.61 431.87 997.78 554.27 910.04 672.81 1086.20 653.93
00000103 00000028 743.37 181.24 422.01 646.56 864.13 454.04 1070.05 432.46 997.31 552.71 909.79 672.53 1085.29 654.47
00000104 00000029 746.20 191.38 415.39 642.84 864.39 451.14 1067.29 432.53 999.34 549.21 910.01 677.07 1083.59 659.19
00000105 00000030 745.87 194.00 412.49 640.50 864.24 450.95 1066.73 432.68 999.50 549.36 908.78 677.21 1082.62 659.87
00000106 00000031 745.14 193.58 412.48 639.68 864.15 451.45 1065.44 433.00 998.93 549.20 909.77 677.64 1082.15 660.10
00000107 00000032 745.21 194.53 413.10 638.75 864.09 451.56 1065.52 433.36 998.87 549.76 910.62 678.52 1081.87 661.21
00000108 00000033 746.25 194.06 411.06 639.95 864.87 451.36 1065.54 434.25 999.21 550.31 910.70 678.82 1081.25 662.38
00000109 00000034 745.47 194.04 412.06 640.54 865.19 451.13 1065.55 434.72 999.49 550.77 910.08 678.50 1080.14 662.67
00000110 00000035 745.33 194.53 410.82 640.41 865.55 450.82 1065.33 435.32 999.45 551.05 910.15 679.33 1078.22 664.32
00000111 00000036 746.20 194.65 409.95 639.99 866.20 450.38 1065.47 435.95 999.29 551.55 909.68 678.65 1077.02 664.56
00000112 00000037 745.92 192.96 410.25 642.55 866.69 449.40 1065.99 435.03 999.98 551.00 909.62 678.79 1076.73 664.72
00000113 00000038 744.82 193.94 408.71 639.43 866.39 449.29 1065.51 435.68 999.34 550.88 909.20 678.29 1075.29 664.88
00000114 00000039 744.98 193.57 409.18 640.83 866.64 448.79 1065.49 435.65 999.61 550.77 908.59 678.02 1075.16 665.01
00000115 00000040 743.93 194.04 408.96 639.11 865.79 448.96 1063.70 435.65 998.42 549.39 908.41 677.32 1074.00 664.19
00000116 00000041 743.66 194.55 408.88 639.00 865.40 448.49 1062.94 434.71 998.30 548.54 908.23 677.30 1074.28 663.76
00000117 00000042 743.08 193.92 408.63 639.60 864.84 447.79 1062.34 433.39 997.92 547.66 908.00 677.26 1074.05 663.20
00000118 00000043 743.92 194.65 408.83 637.75 865.59 447.92 1063.19 433.81 998.29 546.25 909.30 676.94 1074.31 663.21
00000119 00000044 744.83 194.37 407.94 636.81 869.31 449.10 1064.94 437.11 1001.55 544.89 911.60 674.58 1075.64 662.66
00000120 00000045 746.44 191.54 407.03 638.02 874.24 452.74 1070.54 441.24 1007.13 543.61 915.57 672.49 1081.16 661.18
00000121 00000046 747.14 190.31 410.55 639.10 879.01 455.32 1076.49 445.12 1013.30 543.40 921.41 672.34 1087.39 661.88
00000122 00000047 749.69 190.49 414.11 638.57 886.36 453.95 1083.31 444.18 1022.67 540.02 930.43 671.87 1093.80 661.47
00000123 00000048 751.92 183.16 417.44 638.82 895.65 457.65 1089.73 444.51 1029.57 542.55 937.49 669.76 1099.91 657.95
00000124 00000049 753.60 178.96 418.84 644.43 902.92 457.26 1094.42 443.83 1038.64 542.00 944.07 670.74 1104.39 658.50
00000125 DELETE   755.64 175.51 420.59 648.44 908.49 453.68 1100.46 440.03 1047.07 539.70 949.09 669.18 1109.91 656.63
00000126 00000051 757.99 175.92 421.98 649.66 910.67 445.02 1106.79 430.78 1057.43 530.99 958.29 667.44 1117.75 652.78
00000127 00000052 757.71 173.99 424.26 652.62 912.09 440.55 1108.94 427.47 1059.48 529.25 959.79 666.76 1118.72 652.83
00000128 00000053 758.77 173.48 424.64 654.62 913.82 437.31 1110.32 422.41 1061.71 527.70 961.72 666.67 1120.30 651.25
00000129 00000054 760.61 170.97 424.49 657.74 914.65 433.36 1111.23 418.64 1061.56 525.16 961.76 665.07 1120.91 649.80
00000130 00000055 761.66 168.69 424.12 660.41 915.92 430.56 1112.74 415.64 1062.10 523.16 962.53 664.34 1121.69 649.01
00000131 00000056 762.24 166.11 426.13 663.40 916.57 428.47 1115.07 414.86 1062.65 522.64 960.88 662.33 1122.11 648.09
00000132 00000057 763.09 162.52 425.66 666.77 916.69 425.68 1116.15 411.62 1061.54 520.42 960.65 661.12 1122.15 646.54
00000133 00000058 762.32 160.64 426.30 670.15 915.82 423.54 1116.44 409.56 1060.72 519.15 959.74 661.06 1121.22 646.38
00000134 00000059 762.85 150.12 421.38 677.38 914.87 418.75 1113.98 409.27 1060.91 517.86 951.21 657.44 1120.38 648.42
00000135 00000060 761.27 144.76 424.49 681.57 915.03 415.36 1113.87 406.25 1060.62 515.45 951.66 654.35 1120.19 645.47
00000136 00000061 762.02 140.34 423.88 673.81 914.73 412.38 1115.82 404.41 1059.34 510.92 951.18 648.62 1118.71 640.56
00000137 00000062 760.52 138.63 422.94 667.79 912.58 410.09 1113.71 400.87 1059.25 506.49 950.21 644.55 1117.86 635.59
00000138 00000063 759.66 135.82 423.33 664.12 911.54 408.91 1112.82 398.78 1058.91 503.04 950.93 641.09 1118.28 631.33
00000139 00000064 758.92 134.28 425.27 663.26 911.71 406.91 1113.09 397.30 1059.75 499.61 951.26 638.26 1118.11 629.09
00000140 00000065 758.35 133.66 425.99 663.13 910.98 406.12 1111.93 397.28 1058.99 496.48 949.53 635.49 1118.20 626.94
00000141 00000066 757.23 134.00 426.98 662.56 910.85 405.28 1111.10 396.69 1058.57 495.09 949.52 634.19 1117.39 625.91
00000142 00000067 757.83 135.60 427.55 660.80 911.18 403.90 1110.88 395.85 1057.96 493.73 950.30 633.60 1117.42 625.81
00000143 00000068 759.50 135.55 429.16 668.18 914.72 402.65 1113.83 397.13 1061.20 492.48 951.45 634.89 1119.39 629.13
00000144 00000069 762.85 135.31 429.92 678.76 917.62 402.70 1117.61 397.86 1063.18 492.93 951.52 637.94 1122.58 632.49
00000145 00000070 767.45 135.03 429.20 684.94 921.49 404.85 1122.19 400.00 1066.59 495.31 954.11 640.96 1126.92 635.27
00000146 00000071 771.30 142.95 428.46 673.81 924.81 408.45 1123.56 403.63 1067.88 495.99 956.50 640.40 1127.95 634.96
00000147 00000072 775.55 145.12 425.03 662.34 933.01 411.97 1131.65 411.71 1074.36 493.34 960.79 634.96 1132.39 633.38
00000148 DELETE   778.50 145.07 425.32 655.50 937.01 413.05 1138.79 412.62 1082.17 492.48 965.36 632.08 1140.52 630.26
00000149 DELETE   782.39 138.33 427.35 659.33 944.85 413.69 1146.61 414.76 1093.21 492.84 974.89 631.60 1149.10 631.15
00000150 DELETE   785.00 137.35 428.79 660.55 950.66 409.60 1152.28 411.88 1101.45 492.49 979.14 630.91 1153.34 631.61
00000151 00000076 790.91 135.98 425.53 667.82 958.82 408.06 1156.40 411.84 1108.43 489.85 985.76 632.83 1156.98 635.19
00000152 DELETE   785.06 133.66 428.65 681.89 954.19 406.71 1148.48 414.42 1104.38 491.97 984.75 636.76 1149.74 641.84
00000153 DELETE   784.38 135.70 432.45 694.38 956.16 404.23 1152.67 414.67 1109.54 490.49 982.31 640.98 1149.84 648.68
00000154 00000079 784.88 135.38 435.58 696.12 955.20 401.49 1155.53 411.75 1111.24 488.44 978.45 641.11 1151.06 648.81
00000155 00000080 783.00 132.28 435.91 699.91 952.86 398.00 1154.65 409.08 1111.29 485.09 976.08 639.32 1151.07 647.49
00000156 DELETE   786.53 127.26 433.09 696.78 954.53 398.64 1159.00 406.95 1113.18 482.36 976.53 637.12 1154.46 643.82
00000157 00000082 781.52 126.59 434.11 691.50 953.82 397.19 1154.52 403.38 1110.60 482.99 975.57 630.91 1153.48 635.28
00000158 00000083 778.65 127.38 432.47 680.99 950.31 394.66 1152.74 400.77 1106.46 482.38 971.79 624.35 1151.38 628.38
00000159 00000084 772.44 126.31 434.21 678.05 945.01 394.34 1146.93 398.19 1100.14 485.22 969.99 624.18 1146.35 625.87
00000160 00000085 768.89 125.64 431.48 678.59 940.05 391.37 1142.27 396.88 1094.97 482.30 965.51 623.30 1141.44 626.10
00000161 00000086 765.50 126.37 432.18 676.74 935.74 388.10 1138.20 391.70 1090.25 481.61 962.98 623.03 1138.70 624.23
00000162 00000087 761.82 125.09 433.38 675.95 931.72 384.37 1134.06 386.21 1086.04 479.40 959.92 620.39 1137.20 619.93
00000163 00000088 758.86 123.79 432.95 670.37 923.47 379.14 1129.24 380.24 1078.16 475.73 953.71 616.41 1132.40 615.40
00000164 00000089 755.68 117.57 432.45 674.92 915.34 373.73 1123.76 375.38 1070.90 470.86 946.31 612.34 1128.06 611.54
00000165 00000090 752.77 114.65 431.52 674.42 908.13 370.54 1117.92 371.76 1062.99 464.65 940.95 608.53 1122.77 606.93
00000166 00000091 749.69 113.04 431.58 671.99 902.55 367.32 1113.54 370.30 1057.22 458.77 935.33 605.37 1117.38 605.09
00000167 00000092 743.66 114.34 432.47 667.59 894.89 365.04 1106.90 366.85 1048.60 455.76 929.34 602.97 1111.97 601.34
00000168 00000093 739.87 115.42 432.25 662.28 888.83 363.01 1102.26 365.66 1041.64 451.23 924.24 599.57 1107.98 598.33
00000169 00000094 739.60 118.10 429.62 656.44 885.62 361.02 1099.60 367.45 1037.68 447.78 919.37 597.23 1103.63 599.18
00000170 00000095 738.48 118.60 426.73 659.71 883.36 359.74 1095.79 367.63 1036.03 446.78 916.60 597.87 1100.31 601.60
00000171 00000096 738.17 120.69 426.96 661.43 882.82 358.18 1093.90 367.77 1034.79 447.19 915.22 600.18 1097.10 605.52
00000172 00000097 737.74 124.64 423.53 663.87 881.96 358.15 1092.87 369.11 1033.70 448.71 911.98 602.50 1093.17 609.74
00000173 00000098 736.21 127.16 423.35 662.13 881.40 358.32 1089.70 371.95 1031.81 444.11 908.23 598.81 1089.45 608.63
00000174 00000099 736.89 127.88 419.95 656.40 881.28 358.15 1089.50 373.86 1030.86 438.53 907.94 595.25 1087.36 607.31
00000175 00000100 736.27 129.83 417.58 650.09 879.34 359.61 1086.99 375.57 1028.19 437.70 904.72 591.13 1086.22 603.73
00000176 00000101 733.49 131.09 414.60 649.57 876.97 358.13 1085.86 376.61 1026.91 437.24 900.39 589.56 1084.62 604.63
00000177 00000102 733.64 135.41 410.27 643.79 875.65 359.86 1082.63 377.81 1023.95 438.31 899.11 588.90 1081.82 603.93
00000178 00000103 729.67 144.86 414.16 630.01 876.19 365.26 1079.70 372.25 1023.49 437.98 899.54 591.13 1080.28 595.82
00000179 00000104 728.76 149.64 413.13 623.33 874.95 367.24 1076.73 373.33 1019.47 440.67 899.08 590.78 1078.15 594.69
00000180 00000105 727.36 148.50 411.22 623.12 873.67 370.93 1073.73 377.16 1018.18 442.99 900.22 592.77 1076.70 596.91
00000181 00000106 727.92 148.15 410.36 622.94 873.76 376.09 1073.13 380.76 1016.41 445.45 900.10 593.81 1077.57 596.62
00000182 00000107 730.80 152.58 408.36 619.13 874.19 380.54 1074.77 383.68 1016.43 448.96 902.10 597.16 1080.67 598.65
00000183 00000108 733.75 154.08 406.45 618.68 875.26 382.43 1076.15 384.91 1016.89 451.65 904.94 599.98 1082.57 600.67
00000184 00000109 739.22 153.46 401.61 624.46 872.23 382.55 1068.04 388.66 1009.15 459.71 906.66 600.14 1079.59 604.25
00000185 00000110 740.03 155.81 403.84 622.91 873.14 386.47 1069.05 391.42 1011.78 462.63 909.47 602.62 1082.38 605.92
00000186 00000111 742.85 157.42 404.58 620.24 873.63 387.29 1070.49 390.96 1013.57 465.06 909.76 603.72 1085.02 605.76
00000187 00000112 744.76 159.84 405.36 616.20 874.94 387.71 1073.42 390.44 1013.20 464.57 911.52 602.86 1087.57 604.41
00000188 00000113 745.59 160.64 404.88 615.23 875.51 387.57 1072.86 389.74 1013.36 465.37 912.59 601.88 1088.35 603.02
00000189 00000114 745.36 159.68 406.62 616.94 875.75 388.50 1074.23 389.45 1012.92 466.35 911.14 600.58 1090.99 600.73
00000190 00000115 747.09 159.24 405.45 617.66 876.66 388.91 1075.17 389.42 1016.07 467.35 911.54 601.27 1092.07 601.15
00000191 00000116 747.59 160.87 408.01 616.82 879.23 395.41 1078.86 396.09 1020.69 468.58 914.51 604.16 1096.20 604.44
00000192 00000117 748.70 165.91 410.38 616.81 883.36 400.55 1086.05 407.74 1025.44 466.54 914.27 607.62 1097.87 613.32
00000193 DELETE   748.20 174.90 411.41 626.33 890.41 409.23 1087.43 418.21 1033.71 468.03 925.49 621.61 1092.81 627.00
00000194 DELETE   751.01 171.41 409.18 645.71 892.91 408.48 1090.73 417.29 1039.18 471.36 930.29 634.32 1095.58 640.13
00000195 00000120 750.40 166.68 409.15 658.58 895.97 409.39 1095.16 417.43 1043.84 474.94 937.26 641.65 1099.91 646.18
00000196 00000121 749.44 159.53 413.06 656.61 898.60 408.16 1100.25 419.88 1047.82 478.17 930.89 637.47 1099.45 645.85
00000197 00000122 749.18 157.58 417.66 651.37 899.73 408.56 1103.24 417.88 1051.32 476.03 935.52 635.35 1105.69 641.59
00000198 00000123 748.94 150.78 419.25 648.49 898.49 405.84 1104.77 414.71 1051.57 474.58 934.25 631.73 1106.74 637.97
00000199 DELETE   751.01 147.88 416.55 646.83 898.51 402.04 1098.84 406.02 1047.47 475.21 934.54 626.68 1106.06 628.86
00000200 00000125 749.27 144.38 419.45 642.07 896.22 400.62 1096.08 401.77 1044.00 472.61 935.55 621.06 1106.48 621.11
00000201 00000126 749.19 141.34 420.01 641.43 893.18 399.08 1092.91 398.06 1039.36 473.55 932.70 617.70 1105.74 616.13
00000202 00000127 748.61 139.90 421.33 644.38 892.21 397.30 1089.67 395.76 1035.32 472.57 929.35 614.64 1104.04 612.59
00000203 00000128 746.62 138.55 421.88 649.86 888.82 396.23 1089.20 396.29 1031.38 473.56 921.23 614.17 1101.15 613.42
00000204 00000129 746.06 138.02 421.66 653.75 887.64 394.73 1089.66 396.51 1029.74 475.37 914.93 614.24 1098.84 614.82
00000205 00000130 744.76 138.06 423.47 656.58 886.44 393.12 1088.65 395.90 1026.34 477.85 909.37 613.75 1095.92 615.08
00000206 00000131 743.85 134.49 422.76 666.82 884.86 390.22 1087.97 395.96 1024.13 477.63 902.95 613.48 1092.48 617.02
00000207 00000132 744.11 142.10 420.47 677.45 882.29 390.05 1085.61 392.36 1024.91 473.65 902.20 619.02 1087.26 618.78
00000208 00000133 740.74 141.35 420.20 680.22 878.94 386.18 1082.92 388.76 1022.31 475.35 893.47 617.47 1083.08 617.75
00000209 00000134 737.13 133.87 414.38 668.87 874.83 383.75 1075.11 388.84 1009.34 482.83 888.69 609.93 1079.47 613.07
00000210 00000135 733.71 138.68 413.16 651.35 869.71 380.95 1070.79 384.36 1002.40 480.63 885.34 602.40 1077.86 604.15
00000211 00000136 727.39 142.96 415.48 635.74 868.57 385.22 1071.02 383.43 1005.76 474.97 884.47 597.88 1077.95 595.85
00000212 00000137 722.93 145.79 416.72 627.72 865.82 381.36 1068.02 382.10 1002.64 470.93 880.59 593.01 1073.94 592.85
00000213 00000138 723.56 144.78 415.29 630.74 866.53 378.33 1066.07 378.12 1000.98 469.13 880.51 591.42 1071.15 590.46
00000214 00000139 723.41 144.54 413.24 637.71 866.72 375.33 1065.93 374.73 1001.55 467.99 882.99 595.29 1070.43 593.66
00000215 00000140 725.37 144.04 410.17 642.13 866.42 373.69 1067.22 374.47 1001.09 466.81 881.90 597.88 1069.67 597.31
00000216 00000141 729.07 144.53 407.54 645.91 868.48 373.74 1067.91 375.34 1000.85 468.77 883.39 600.63 1068.71 600.86
00000217 00000142 731.64 144.33 405.70 648.99 870.68 375.15 1070.39 378.42 1003.32 471.34 883.78 603.70 1069.05 605.56
00000218 00000143 734.43 144.78 403.89 643.23 872.40 375.93 1071.77 378.61 1004.03 469.94 887.27 602.19 1070.15 603.53
00000219 00000144 738.17 145.28 401.56 635.13 875.98 376.88 1074.83 378.88 1006.63 468.88 890.31 597.69 1074.93 598.74
00000220 00000145 738.03 145.18 403.22 629.49 877.33 377.91 1077.67 378.56 1010.61 467.40 889.59 592.94 1079.58 593.16
00000221 00000146 738.50 145.33 403.48 626.63 880.00 377.11 1079.81 379.86 1014.27 463.11 892.00 590.72 1081.22 592.79
00000222 00000147 742.34 143.30 404.28 634.48 879.04 374.14 1078.82 382.47 1012.43 462.99 894.74 588.68 1083.89 595.42
00000223 00000148 744.29 141.90 408.40 632.93 884.36 375.88 1085.34 386.35 1019.95 460.70 904.71 590.03 1090.79 598.05
00000224 DELETE   746.41 145.74 409.92 626.43 892.31 382.10 1089.83 395.98 1026.35 459.07 913.57 590.51 1093.56 601.56
CROP_BBOX: 347 0 1504 1080
