Video ID: 	XOL3ToXe_mk
H: 	1080
W: 	1920
FPS: 	59.94005994005994

FRAME INDEX X0 Y0 W H [Landmarks (5 Points)]

00005138 00000000 588.63 207.64 453.28 706.94 708.38 466.54 929.03 469.56 818.68 592.58 720.55 722.40 905.54 723.22
00005139 DELETE   588.63 208.93 452.66 704.68 707.52 466.66 928.94 469.13 817.99 592.34 720.15 722.76 906.26 723.12
00005140 00000002 588.93 210.48 453.67 712.37 713.17 462.40 930.69 464.64 823.67 586.61 724.07 718.69 908.32 718.61
00005141 00000003 589.06 210.36 453.91 712.47 713.02 462.30 930.77 464.60 823.80 586.42 723.92 718.85 908.42 718.83
00005142 00000004 591.80 210.62 450.53 714.10 715.64 460.95 931.12 461.48 825.78 581.22 725.94 714.74 914.06 712.98
00005143 00000005 591.74 211.33 451.19 713.48 715.25 460.61 931.18 461.27 824.86 581.33 724.96 714.95 913.71 713.38
00005144 00000006 592.22 210.77 450.12 712.10 714.60 459.74 930.77 459.68 824.07 576.08 725.60 712.10 913.47 709.75
00005145 00000007 592.23 210.66 450.21 712.24 714.61 459.75 930.79 459.69 824.12 576.06 725.62 712.10 913.46 709.76
00005146 00000008 591.70 208.37 448.52 708.98 711.32 458.22 925.04 456.68 818.00 573.20 726.93 709.59 907.58 706.16
00005147 00000009 591.07 209.23 449.10 708.39 711.88 458.28 925.26 457.42 819.10 573.06 726.83 708.92 907.80 706.03
00005148 00000010 590.63 203.39 447.23 706.81 708.03 457.22 921.89 457.78 811.31 573.79 721.34 709.24 898.46 708.13
00005149 00000011 588.17 202.53 444.99 698.88 705.77 457.99 919.03 461.02 809.70 578.05 710.69 708.91 896.72 711.77
00005150 00000012 590.67 201.35 440.38 678.66 703.97 456.83 919.47 460.64 807.96 576.58 710.49 702.78 892.63 706.27
00005151 00000013 590.94 201.83 440.29 677.91 704.11 456.68 919.48 460.29 808.15 577.08 710.69 702.38 892.72 705.66
00005152 00000014 589.68 200.28 440.49 684.06 704.76 454.97 919.07 455.66 812.73 573.12 714.67 702.28 896.89 702.97
00005153 00000015 589.71 200.29 440.48 684.06 704.78 454.93 919.07 455.62 812.70 573.08 714.69 702.27 896.90 702.96
00005154 00000016 587.73 198.77 442.58 690.56 706.63 454.17 918.30 454.05 814.64 571.06 716.47 700.44 900.94 700.16
00005155 00000017 591.14 200.68 442.97 699.90 708.17 454.64 921.41 451.34 817.09 567.00 726.65 703.41 903.01 699.41
00005156 00000018 587.57 198.86 445.59 706.52 706.73 454.62 917.19 449.26 814.57 566.61 727.36 703.30 900.84 697.42
00005157 00000019 587.74 197.77 445.08 707.33 706.80 454.46 917.22 449.40 814.40 567.04 727.34 703.09 900.63 697.45
00005158 00000020 584.77 196.22 449.15 711.17 703.82 453.99 913.28 447.63 808.45 570.33 727.38 703.66 895.42 697.10
00005159 00000021 584.74 196.05 449.17 711.25 703.85 453.87 913.35 447.57 808.42 570.33 727.38 703.64 895.41 697.12
00005160 00000022 584.15 199.10 450.20 706.53 703.75 456.11 910.91 450.85 806.11 571.70 727.53 707.13 885.47 702.34
00005161 00000023 583.93 198.72 450.22 707.19 703.68 456.09 910.93 450.65 806.01 572.63 727.31 706.51 886.44 701.47
00005162 00000024 583.92 200.22 451.58 703.87 704.04 457.59 910.08 452.07 806.65 572.53 730.31 710.80 880.46 706.47
00005163 00000025 583.94 200.14 451.56 703.86 704.05 457.65 910.03 452.10 806.64 572.55 730.31 710.78 880.43 706.42
00005164 00000026 584.82 204.43 452.09 702.68 706.88 458.86 914.81 452.18 811.36 575.79 733.96 714.63 884.27 709.07
00005165 00000027 585.05 205.14 451.52 701.50 707.06 459.20 914.62 452.36 811.36 575.68 734.64 714.69 883.75 708.96
00005166 00000028 585.85 207.29 453.81 703.96 709.68 460.04 923.23 452.57 820.12 580.68 742.20 722.21 895.53 715.04
00005167 00000029 585.35 207.16 454.03 704.90 710.21 459.87 923.69 452.98 820.42 581.00 742.56 722.29 894.50 715.60
00005168 00000030 587.12 206.03 455.76 702.04 711.24 461.13 927.12 455.18 826.01 588.63 747.37 724.81 902.50 718.25
00005169 00000031 587.42 206.09 455.67 701.84 711.32 461.19 927.14 455.27 826.06 588.71 747.31 724.75 902.49 718.21
00005170 00000032 587.03 203.54 458.28 701.80 711.32 462.60 929.27 456.32 828.58 593.64 749.48 727.28 906.40 720.27
00005171 00000033 587.02 204.20 458.31 702.37 711.19 462.41 929.15 455.58 828.26 592.96 749.24 727.45 906.11 719.95
00005172 00000034 587.51 203.15 458.73 701.63 709.04 464.43 929.10 459.10 825.56 596.19 745.45 727.83 906.74 721.74
00005173 00000035 587.42 203.22 459.04 701.54 709.21 464.61 929.29 459.30 825.64 596.41 745.53 727.73 906.77 721.64
00005174 00000036 585.38 206.71 462.23 696.64 711.21 471.56 930.38 471.29 823.80 599.06 741.46 727.72 903.44 725.94
00005175 00000037 585.63 205.64 462.24 697.20 712.11 471.87 931.21 471.77 824.61 598.85 742.40 728.01 903.86 726.35
00005176 00000038 584.58 206.48 455.92 688.58 705.78 478.67 924.77 477.74 819.01 599.57 728.43 725.11 904.46 724.99
00005177 00000039 584.79 206.59 455.63 688.41 705.79 478.70 924.74 477.70 818.96 599.54 728.42 725.09 904.46 724.93
00005178 00000040 583.72 209.38 457.03 686.57 705.57 476.97 924.80 478.17 818.00 601.32 726.08 727.08 898.70 729.12
00005179 DELETE   583.24 209.27 457.71 687.51 705.81 477.41 924.63 478.60 818.05 601.23 726.26 726.89 899.80 728.86
00005180 00000042 583.74 209.04 456.48 694.26 702.50 475.47 926.88 473.87 820.31 603.42 725.35 733.42 906.48 732.89
00005181 DELETE   584.02 209.32 456.30 694.20 702.98 475.40 927.10 474.29 820.52 602.86 724.94 733.46 905.55 733.37
00005182 00000044 581.55 210.57 461.32 708.20 705.58 473.68 929.82 472.27 823.15 606.51 732.47 741.42 906.51 738.87
00005183 00000045 581.56 210.68 461.19 708.03 705.47 473.70 929.77 472.20 823.12 606.38 732.38 741.46 906.47 738.83
00005184 00000046 578.05 209.60 466.56 723.93 703.46 474.10 927.81 471.61 821.00 606.51 723.77 742.41 909.32 738.80
00005185 00000047 578.50 209.67 466.39 724.27 703.20 474.33 927.62 471.28 820.66 606.35 724.30 743.05 909.48 739.00
00005186 00000048 576.47 209.48 468.49 733.43 700.90 474.15 924.84 470.68 817.49 606.96 719.14 743.64 908.56 739.34
00005187 00000049 576.49 209.41 468.48 733.52 700.87 474.14 924.81 470.69 817.47 606.96 719.10 743.62 908.57 739.33
00005188 00000050 575.85 207.98 468.35 733.92 696.89 474.39 921.36 469.87 812.68 607.28 716.97 743.08 907.46 737.95
00005189 00000051 575.46 208.21 469.06 735.01 697.08 474.66 921.23 470.07 812.63 607.27 717.19 743.58 907.13 738.37
00005190 00000052 574.66 208.38 469.03 734.83 696.04 474.65 920.11 470.59 810.91 607.66 716.15 743.75 905.37 739.10
00005191 00000053 574.59 208.35 469.08 734.86 696.01 474.66 920.02 470.61 810.90 607.69 716.10 743.70 905.36 739.06
00005192 00000054 572.92 210.36 470.88 736.14 695.73 475.10 919.16 471.41 810.49 608.42 715.31 743.55 905.09 739.11
00005193 00000055 572.68 209.59 471.54 736.80 695.61 475.20 919.06 471.23 810.56 608.28 715.48 743.57 905.19 738.89
00005194 00000056 571.38 210.00 473.08 739.82 694.66 475.94 918.18 471.34 810.55 608.73 715.11 745.16 905.83 740.00
00005195 00000057 571.76 210.15 472.52 739.02 695.00 475.73 918.25 471.17 810.66 608.45 715.37 744.78 905.91 739.61
00005196 00000058 570.83 210.59 473.92 738.56 694.35 475.41 917.69 470.92 809.87 608.97 714.77 744.58 905.41 739.42
00005197 00000059 570.80 210.55 473.96 738.66 694.32 475.43 917.69 470.93 809.87 608.99 714.73 744.61 905.43 739.44
00005198 00000060 570.53 211.94 473.24 740.92 694.13 477.21 917.67 472.25 809.57 610.07 713.63 746.14 905.89 740.54
00005199 00000061 569.81 212.16 474.41 742.43 693.67 477.36 917.49 472.28 809.85 610.21 713.24 746.45 905.88 740.77
00005200 00000062 569.42 211.64 472.92 745.23 693.14 477.99 916.69 473.80 808.67 611.58 711.28 747.37 904.30 742.45
00005201 00000063 569.40 211.46 472.45 745.13 693.14 477.92 916.64 473.67 808.88 611.35 711.36 747.46 904.41 742.47
00005202 00000064 568.50 211.05 472.65 745.95 692.55 478.76 916.21 474.64 808.42 611.60 710.32 747.59 904.11 742.74
00005203 00000065 568.57 211.32 472.67 745.65 692.41 478.79 916.15 474.55 808.50 611.68 710.32 747.53 904.31 742.58
00005204 00000066 568.48 210.60 472.49 746.04 692.35 479.04 916.05 475.41 807.75 611.91 709.70 746.59 904.85 742.07
00005205 00000067 568.28 211.14 472.15 745.87 692.58 478.99 916.08 475.61 808.56 612.55 709.78 746.48 904.81 742.13
00005206 00000068 568.39 209.80 471.36 747.02 692.53 479.33 915.72 476.14 808.31 613.25 709.65 746.27 904.76 742.06
00005207 00000069 568.38 209.73 471.36 747.08 692.56 479.29 915.73 476.14 808.28 613.26 709.65 746.24 904.74 742.06
00005208 00000070 569.59 209.22 468.63 742.63 692.99 481.69 917.11 478.70 808.34 612.92 709.91 745.63 906.01 741.50
00005209 00000071 569.70 209.17 468.47 742.16 693.18 480.62 916.83 477.21 808.81 612.60 710.76 744.94 906.39 740.36
00005210 00000072 569.60 209.12 468.27 742.56 693.31 480.92 917.24 477.60 808.80 612.46 710.68 745.30 906.56 740.80
00005211 00000073 571.30 206.24 464.59 734.17 694.84 482.46 918.94 480.36 806.46 609.93 712.20 742.20 905.79 738.79
00005212 00000074 571.35 206.32 464.56 734.07 694.87 482.47 918.95 480.37 806.46 609.94 712.21 742.20 905.78 738.79
00005213 00000075 566.50 199.89 465.04 725.06 687.79 481.15 914.81 476.19 804.96 607.43 705.88 735.93 907.18 732.21
00005214 00000076 567.01 200.49 464.52 724.58 687.74 480.61 914.48 475.95 804.40 607.87 705.57 736.07 906.33 732.65
00005215 DELETE   566.31 195.68 464.61 710.79 687.97 472.78 909.45 469.95 798.83 602.31 710.63 724.87 896.38 723.13
00005216 DELETE   566.62 195.85 463.95 710.38 688.00 472.78 909.49 469.92 798.92 602.28 710.56 724.90 896.32 723.13
00005217 DELETE   567.02 191.43 461.36 708.79 688.18 466.53 908.03 466.52 799.11 599.80 708.43 717.39 888.69 718.16
00005218 00000080 566.28 191.71 461.51 708.45 688.08 466.91 907.48 466.78 798.71 599.21 708.61 717.84 887.20 718.55
00005219 00000081 565.13 189.21 459.09 706.49 686.92 463.28 905.19 462.09 799.60 591.70 709.76 715.75 880.60 715.70
00005220 00000082 565.12 189.36 459.14 706.35 686.90 463.24 905.19 462.08 799.60 591.72 709.78 715.78 880.60 715.75
00005221 00000083 561.42 191.44 462.60 710.01 684.79 462.86 901.08 458.36 799.31 585.77 713.96 719.13 877.98 716.45
00005222 00000084 561.92 191.11 462.04 710.08 684.65 462.91 901.99 458.08 799.58 586.36 713.89 719.66 879.34 716.64
00005223 00000085 559.83 193.28 465.23 715.05 684.73 460.98 899.84 455.26 798.78 584.15 716.19 723.18 875.72 719.63
00005224 00000086 560.19 193.53 465.23 714.46 684.36 460.32 900.64 454.95 798.67 584.44 715.58 723.41 874.99 720.17
00005225 00000087 558.60 194.22 465.64 719.54 684.75 460.09 899.89 453.09 799.36 583.79 718.21 725.84 876.77 721.20
00005226 00000088 558.68 194.38 465.59 719.33 684.66 460.12 899.84 453.02 799.34 583.74 718.19 725.89 876.74 721.17
00005227 00000089 556.94 194.66 465.39 720.65 684.24 459.75 897.76 452.80 799.28 582.51 718.65 725.18 876.57 720.46
00005228 00000090 556.38 194.01 466.42 721.04 684.05 459.44 896.57 452.45 797.87 580.92 718.70 724.81 875.48 720.07
00005229 00000091 553.70 197.33 477.82 730.93 684.34 461.13 901.58 453.52 796.58 584.66 723.09 731.58 883.68 722.92
00005230 00000092 553.90 197.31 477.70 731.03 684.42 461.32 901.63 453.61 796.60 584.70 723.05 731.66 883.70 722.93
00005231 00000093 552.81 199.68 474.46 731.77 684.51 462.21 904.95 456.53 797.49 588.10 713.48 730.83 887.37 723.74
00005232 00000094 553.17 199.28 473.94 732.99 684.39 461.88 904.32 456.14 797.17 587.45 713.15 731.16 886.90 724.03
00005233 00000095 551.01 198.99 469.10 723.77 679.54 464.42 905.61 456.91 800.84 588.67 706.44 727.42 889.81 717.79
00005234 00000096 550.63 199.63 470.04 723.09 679.52 464.55 905.61 457.08 800.53 588.66 706.35 727.17 889.67 717.58
00005235 00000097 551.94 204.07 465.32 705.58 673.65 464.37 899.48 460.89 796.01 588.09 700.21 724.40 890.93 719.12
00005236 00000098 551.77 202.70 465.07 706.62 674.19 464.22 899.73 461.10 796.37 588.08 700.17 724.24 890.39 719.28
00005237 00000099 551.32 203.37 465.90 704.40 674.40 464.65 898.85 461.60 795.31 587.41 700.54 721.03 891.19 716.08
00005238 00000100 551.19 203.23 466.00 704.62 674.42 464.57 899.05 461.48 795.43 587.35 700.68 721.13 891.45 716.14
00005239 00000101 551.48 203.17 465.41 705.87 675.38 462.66 898.01 459.83 794.79 584.14 701.89 720.09 890.08 715.26
00005240 00000102 551.68 203.64 464.68 705.76 675.96 462.19 897.83 460.12 795.03 583.99 701.52 719.69 889.62 715.41
00005241 00000103 552.27 203.51 467.26 707.64 683.04 465.23 901.26 457.79 797.59 582.26 707.60 716.39 888.09 706.84
00005242 00000104 552.59 204.17 466.97 706.64 682.90 465.30 901.09 457.46 797.55 582.54 708.17 716.77 888.07 706.90
00005243 00000105 554.59 204.60 464.89 707.04 687.47 465.07 903.01 461.15 799.68 579.16 707.50 712.51 888.76 705.92
00005244 00000106 554.88 204.73 465.25 705.78 687.43 465.61 902.60 461.95 799.01 579.32 707.53 711.55 888.55 705.19
00005245 00000107 556.08 204.59 462.36 705.65 688.76 463.59 903.76 457.94 801.78 575.42 710.18 710.63 891.90 702.62
00005246 00000108 556.22 205.39 462.25 704.74 688.59 463.70 903.55 458.12 801.67 575.41 710.34 710.48 891.92 702.54
00005247 00000109 555.64 204.92 462.27 699.72 688.43 463.99 903.89 457.90 802.52 572.16 710.89 707.93 891.25 699.49
00005248 00000110 555.28 206.21 462.43 698.42 688.25 464.69 903.17 457.58 802.59 571.97 711.47 708.57 891.17 699.23
00005249 00000111 557.87 204.65 456.11 691.70 683.94 459.83 899.35 453.09 800.79 567.57 708.38 708.38 893.81 700.41
00005250 00000112 557.83 204.71 456.14 691.60 683.92 459.81 899.34 453.09 800.81 567.58 708.37 708.35 893.80 700.39
00005251 00000113 558.31 203.88 456.59 694.20 683.20 458.66 899.43 450.58 799.59 564.36 708.78 709.20 894.83 700.04
00005252 00000114 558.80 203.31 456.85 695.45 683.26 458.33 899.39 449.86 799.22 564.41 709.08 709.74 894.79 700.15
00005253 00000115 554.46 201.88 462.81 702.11 684.82 461.52 899.99 448.33 803.68 566.76 713.58 708.87 894.09 694.25
00005254 00000116 554.29 201.44 463.19 702.77 685.21 461.39 900.01 448.35 803.72 566.25 713.67 708.74 893.82 694.28
00005255 00000117 554.66 201.35 464.47 704.52 685.73 460.95 900.42 448.74 803.39 567.16 713.30 707.73 894.81 693.96
00005256 00000118 555.06 201.95 464.08 704.09 686.05 460.84 900.56 448.96 803.63 567.21 713.12 707.38 894.78 693.91
00005257 00000119 555.40 200.51 464.32 707.15 686.13 460.84 901.35 449.63 804.10 567.54 711.24 706.98 895.94 694.15
00005258 00000120 555.31 201.00 464.54 706.62 686.24 460.70 901.51 449.78 803.79 567.36 711.23 706.66 895.89 694.04
00005259 00000121 556.17 202.99 464.70 705.82 686.40 460.88 902.41 450.80 803.99 567.84 709.47 707.12 896.33 695.35
00005260 00000122 556.08 202.81 464.85 706.00 686.43 460.85 902.45 450.77 803.93 567.88 709.52 707.14 896.33 695.37
00005261 00000123 558.72 200.67 463.90 707.24 687.68 461.69 904.36 452.78 803.55 569.09 709.77 707.50 897.52 696.70
00005262 00000124 558.89 201.72 463.87 706.53 687.83 461.39 904.59 452.50 803.70 569.58 709.74 707.15 897.60 696.35
00005263 00000125 560.20 199.44 463.15 709.00 689.35 462.46 907.36 454.17 805.44 573.39 710.64 707.97 900.52 697.79
00005264 00000126 560.20 198.94 463.03 709.82 689.50 462.15 907.08 453.66 805.23 573.75 710.89 707.78 900.63 697.45
00005265 00000127 561.86 199.10 462.20 704.13 690.71 463.89 908.44 454.63 805.92 574.29 712.19 707.10 901.71 696.35
00005266 00000128 567.02 197.68 454.64 709.93 691.45 462.02 903.32 452.71 799.93 572.16 716.51 704.64 900.55 694.80
00005267 00000129 567.86 193.25 451.21 699.36 689.04 460.70 902.00 455.02 798.98 574.21 703.95 701.06 900.49 695.81
00005268 00000130 566.06 196.10 453.51 703.73 689.35 460.97 902.98 452.92 805.73 571.55 714.19 704.02 901.64 697.68
00005269 00000131 568.34 195.35 451.88 695.51 689.96 460.17 905.09 451.93 806.36 572.87 715.09 702.10 902.62 695.63
00005270 00000132 568.44 195.41 451.82 695.43 689.93 460.15 905.05 451.94 806.31 572.90 715.09 702.11 902.54 695.67
00005271 00000133 569.87 196.44 451.36 686.61 688.82 460.76 905.85 452.42 804.95 574.59 713.92 701.31 901.78 694.91
00005272 00000134 569.78 196.91 451.06 685.98 688.94 460.87 905.99 452.51 805.54 574.96 714.47 701.27 902.16 694.81
00005273 00000135 570.86 198.26 450.78 681.93 688.94 461.44 906.10 454.08 804.07 576.95 714.01 702.39 899.46 697.00
00005274 00000136 570.82 198.53 451.25 681.41 688.92 461.41 905.87 453.94 804.48 577.17 714.28 702.44 900.08 696.89
00005275 00000137 572.13 197.80 449.46 689.81 690.86 461.21 906.94 454.78 805.03 576.91 714.14 705.11 898.96 700.47
00005276 00000138 572.19 197.24 449.41 690.29 690.95 461.17 906.89 454.79 805.00 576.92 714.12 704.97 898.94 700.37
00005277 00000139 573.57 195.51 446.88 698.92 694.81 460.98 908.36 459.10 803.58 580.92 705.17 705.63 897.97 704.17
00005278 00000140 572.97 195.65 447.73 699.77 694.94 460.92 907.80 458.38 804.14 580.26 705.80 706.01 898.36 703.97
00005279 00000141 574.09 196.75 449.30 708.30 697.18 462.65 909.45 458.02 808.74 582.33 709.22 712.52 901.70 708.67
00005280 00000142 574.08 196.70 449.26 708.36 697.21 462.58 909.47 457.99 808.70 582.38 709.26 712.49 901.72 708.66
00005281 00000143 577.01 206.51 451.86 707.01 702.51 462.40 916.51 458.38 813.89 582.67 721.75 714.06 903.29 708.65
00005282 00000144 577.15 205.79 451.17 707.98 702.34 462.49 915.74 457.99 813.36 581.90 721.51 714.11 903.15 708.33
00005283 00000145 577.41 209.40 453.95 708.09 704.57 468.40 917.66 466.00 813.68 586.21 721.30 716.97 904.87 712.86
00005284 00000146 577.88 209.75 453.79 707.70 704.40 468.21 917.79 465.08 814.06 586.23 721.65 717.26 905.12 712.56
00005285 00000147 577.76 209.29 454.76 710.62 704.61 471.77 918.31 469.11 815.55 587.00 720.52 720.13 904.93 715.90
00005286 00000148 577.86 208.94 454.66 711.19 704.59 471.77 918.33 469.12 815.47 587.14 720.46 720.15 905.02 715.91
00005287 00000149 577.65 208.11 458.37 715.39 705.47 468.86 920.94 465.75 817.07 587.18 722.23 722.29 905.88 717.71
00005288 00000150 577.18 207.92 458.53 714.37 705.05 468.81 920.59 466.12 816.72 586.68 722.09 722.22 905.56 717.98
00005289 00000151 579.27 207.35 458.70 714.99 706.12 463.09 923.47 459.64 818.44 583.74 724.82 720.53 907.67 715.42
00005290 00000152 579.27 207.35 458.70 714.99 706.12 463.09 923.47 459.64 818.44 583.74 724.82 720.53 907.67 715.42
00005291 00000153 580.74 207.37 458.50 716.91 707.81 461.32 925.16 456.54 821.71 581.80 726.43 719.28 910.86 712.85
00005292 00000154 580.15 206.01 459.40 718.18 707.55 461.30 925.24 456.55 821.94 581.60 726.47 719.34 910.89 712.91
00005293 00000155 581.13 206.83 459.28 717.08 708.27 460.78 926.67 455.85 824.39 579.61 728.08 719.22 911.59 712.66
00005294 00000156 581.33 207.11 459.13 716.37 708.78 461.03 926.78 456.56 824.54 579.60 728.29 718.80 911.59 712.59
00005295 00000157 584.44 210.22 458.75 711.56 710.71 460.47 927.41 455.35 825.48 579.45 734.89 721.49 908.55 714.99
00005296 00000158 584.43 210.26 458.79 711.59 710.71 460.48 927.46 455.34 825.47 579.42 734.89 721.52 908.61 715.01
00005297 00000159 586.97 208.19 457.12 716.69 714.41 458.54 927.91 451.75 825.72 580.61 742.20 725.13 904.78 717.55
00005298 00000160 586.93 209.09 457.39 715.54 714.71 459.06 927.99 451.90 825.85 579.67 742.82 725.33 905.08 717.43
00005299 00000161 587.83 212.49 457.55 712.59 720.31 456.97 930.80 452.52 829.84 580.05 747.11 728.90 899.01 723.63
00005300 00000162 587.85 212.53 457.55 712.49 720.26 456.92 930.76 452.47 829.80 580.10 747.11 728.87 899.02 723.59
00005301 00000163 590.20 214.91 456.20 703.19 721.87 454.84 934.09 449.72 833.79 577.53 753.70 728.08 899.20 722.45
00005302 00000164 590.06 214.24 455.59 703.32 721.78 455.60 933.79 450.73 834.75 577.86 753.85 727.66 899.67 722.16
00005303 00000165 585.43 200.86 457.35 701.76 719.85 451.24 930.95 448.44 837.29 567.35 751.66 716.88 907.31 714.10
00005304 00000166 585.03 200.62 457.76 702.11 719.96 451.12 930.94 448.38 837.24 567.44 751.68 716.91 907.15 714.17
00005305 00000167 585.47 196.44 454.17 695.57 717.22 446.23 930.33 441.83 835.39 562.23 748.64 708.36 907.43 703.99
00005306 00000168 585.95 197.07 454.24 695.01 716.74 446.46 930.58 442.17 834.86 562.65 747.86 708.12 907.13 703.86
00005307 00000169 588.71 193.16 450.72 690.50 716.87 441.75 931.18 439.43 836.09 557.26 745.22 700.97 909.18 698.42
00005308 00000170 588.74 192.74 450.90 690.83 716.81 441.99 931.34 439.60 836.18 557.22 745.19 701.14 909.31 698.52
