Video ID: 	ArnzepVvIDo
H: 	1080
W: 	1920
FPS: 	25.0

FRAME INDEX X0 Y0 W H [Landmarks (5 Points)]

00060767 00000000 587.12 200.29 392.66 558.94 732.36 444.40 900.89 403.95 871.53 527.34 770.27 622.50 926.00 589.43
00060768 00000001 573.17 201.77 396.84 555.70 720.01 443.97 887.12 400.52 857.28 523.37 763.54 623.29 914.58 587.40
00060769 00000002 564.14 202.74 400.67 555.54 707.69 440.53 876.22 396.56 843.41 520.84 756.71 623.88 908.36 586.72
00060770 00000003 558.88 200.58 402.83 561.31 701.64 439.49 866.18 395.36 834.25 516.85 754.19 625.95 899.42 588.34
00060771 00000004 554.69 204.56 405.80 559.20 698.74 440.00 861.94 395.89 830.65 515.72 752.51 625.80 895.68 588.01
00060772 00000005 555.36 204.43 404.75 560.47 697.59 444.25 861.04 397.77 830.22 518.37 751.34 628.25 895.07 588.70
00060773 00000006 559.10 205.30 404.94 564.03 703.45 453.95 862.70 404.80 835.68 527.68 757.38 634.72 899.75 593.15
00060774 DELETE   565.94 222.09 400.91 553.26 714.05 466.63 871.01 418.40 843.12 543.64 767.58 646.73 903.25 605.98
00060775 DELETE   575.68 233.41 397.29 549.64 723.61 493.30 886.38 433.11 864.20 567.07 774.76 660.28 921.84 610.33
00060776 00000009 591.79 240.41 390.31 547.41 741.54 504.44 904.36 442.91 880.97 583.10 789.37 671.16 933.19 620.82
00060777 00000010 599.91 240.08 401.20 545.78 744.30 491.77 912.86 437.43 881.11 573.95 799.85 662.05 952.66 617.88
00060778 00000011 608.67 226.46 398.97 550.83 753.59 476.34 919.24 423.02 890.30 553.34 809.40 649.18 958.87 605.12
00060779 00000012 611.79 215.18 402.73 553.99 759.52 463.63 923.83 411.74 895.42 539.25 815.43 640.19 959.56 596.96
00060780 00000013 616.67 213.10 403.33 555.74 767.23 460.28 929.44 407.22 904.10 538.80 820.15 639.48 963.50 595.39
00060781 00000014 628.18 209.49 400.54 560.42 775.84 468.61 937.37 409.94 912.73 545.10 828.29 644.17 972.81 595.64
00060782 00000015 638.01 227.00 401.60 545.32 786.57 475.99 951.13 417.85 924.96 554.75 835.42 647.28 983.69 599.34
00060783 00000016 648.97 232.20 398.19 538.88 793.63 479.12 957.69 420.76 931.21 553.47 841.20 645.47 991.95 596.96
00060784 00000017 657.26 222.99 394.51 546.43 804.42 472.36 966.18 415.74 942.27 545.07 848.21 642.81 996.77 596.44
00060785 00000018 664.78 220.35 391.04 545.99 815.06 465.87 973.43 410.59 954.75 536.74 855.05 636.03 1002.76 591.83
00060786 00000019 675.08 218.16 386.54 545.73 819.36 458.16 985.49 412.38 955.53 543.85 875.37 635.25 1020.70 597.95
00060787 00000020 678.13 217.48 400.57 554.09 831.28 458.65 996.42 412.06 968.76 541.68 880.25 636.08 1031.00 597.50
00060788 00000021 683.94 208.46 401.92 564.73 837.21 459.10 1001.40 406.94 976.41 541.34 889.31 638.96 1036.42 595.25
00060789 00000022 689.73 204.92 400.34 568.24 846.53 455.58 1005.82 398.89 988.28 533.67 897.33 637.91 1041.35 590.62
00060790 00000023 696.32 199.57 399.37 572.99 850.59 451.26 1007.87 396.12 989.98 527.46 902.27 636.52 1043.01 590.26
00060791 00000024 700.61 200.96 399.20 574.01 854.26 443.45 1012.22 398.66 988.73 522.66 907.70 637.80 1039.57 599.28
00060792 00000025 701.91 204.30 400.25 574.84 857.17 442.50 1017.02 399.74 992.63 524.97 904.98 637.56 1040.79 600.91
00060793 00000026 705.93 203.69 396.47 562.48 859.41 443.76 1023.85 401.63 996.99 528.80 906.35 635.77 1045.98 600.40
00060794 00000027 705.40 200.58 397.06 559.86 857.65 442.87 1025.28 398.93 999.59 527.77 906.64 633.22 1050.39 596.50
00060795 00000028 702.94 201.39 396.82 557.92 855.44 440.67 1022.09 395.80 995.75 525.89 905.04 631.27 1048.77 593.62
00060796 00000029 697.92 201.74 394.13 555.20 851.98 438.68 1012.42 391.85 989.31 523.52 905.00 630.72 1041.24 591.59
00060797 00000030 687.61 193.72 391.04 555.12 840.36 443.43 1001.82 393.45 976.80 528.66 904.08 628.18 1035.02 585.58
00060798 00000031 683.45 196.51 390.02 547.87 833.86 442.81 994.32 394.71 967.85 526.83 897.45 625.13 1028.26 584.75
00060799 00000032 679.26 202.33 385.93 541.00 829.23 442.84 991.01 396.58 965.12 528.16 892.33 624.28 1024.07 585.87
00060800 00000033 673.08 202.21 387.05 540.58 819.96 440.69 985.02 399.07 955.20 528.24 883.13 621.88 1018.16 587.75
00060801 00000034 669.44 193.44 387.99 549.97 813.13 440.30 979.84 399.77 947.36 528.28 875.46 619.07 1016.03 585.71
00060802 00000035 663.94 195.15 393.31 554.92 816.00 438.91 977.32 392.46 954.04 518.49 857.40 621.57 999.42 584.02
00060803 00000036 666.84 189.83 388.99 553.92 808.75 437.09 975.15 399.46 939.58 522.67 866.66 614.43 1010.85 583.57
00060804 00000037 666.57 189.73 391.38 552.82 808.65 437.17 974.62 397.71 940.39 520.72 866.20 612.44 1011.36 580.15
00060805 00000038 668.19 184.16 390.47 554.53 810.52 436.73 975.44 393.81 943.17 517.60 869.43 610.83 1014.94 575.55
00060806 00000039 671.52 182.74 391.87 554.59 813.20 433.82 979.16 389.95 946.82 515.64 870.85 609.06 1017.85 572.92
00060807 00000040 675.63 186.62 392.72 548.58 818.41 428.86 984.47 387.91 951.00 511.45 874.19 606.48 1018.93 572.81
00060808 00000041 678.77 190.42 396.94 543.03 822.13 425.91 990.11 384.94 955.02 506.07 875.37 603.97 1021.08 570.38
00060809 00000042 683.29 184.10 395.60 546.87 825.26 423.93 992.30 383.67 956.12 500.64 878.03 600.81 1022.47 567.51
00060810 00000043 686.07 177.02 397.33 555.74 827.02 423.31 992.88 386.52 954.75 500.45 874.59 598.38 1021.51 568.25
00060811 00000044 685.63 179.26 395.21 551.64 826.36 420.78 991.83 386.40 951.88 500.25 872.16 595.72 1018.66 567.43
00060812 00000045 685.04 176.27 397.05 553.69 822.17 417.26 988.43 383.96 945.22 499.02 868.33 593.45 1015.32 566.25
00060813 00000046 686.44 176.77 396.09 550.50 816.95 411.91 985.57 384.66 934.58 498.89 862.25 590.62 1009.97 568.08
00060814 00000047 688.97 172.37 396.80 554.15 815.59 407.46 983.86 385.73 928.69 497.29 858.25 587.83 1004.79 569.94
00060815 00000048 690.11 172.03 398.67 553.90 815.60 402.45 984.74 384.05 925.68 495.77 856.28 585.45 1001.73 570.20
00060816 00000049 695.44 169.24 397.25 555.13 817.28 400.22 986.32 383.27 925.15 495.08 856.76 584.42 1001.52 570.17
00060817 00000050 700.70 169.58 399.64 553.88 818.73 399.53 989.25 383.76 924.72 496.06 857.38 584.44 1003.00 570.88
00060818 00000051 710.80 170.49 392.62 550.60 823.43 400.34 991.72 385.43 926.01 496.38 859.68 583.63 1004.31 570.61
00060819 00000052 717.72 172.72 390.59 547.10 827.25 404.81 997.52 389.88 928.28 499.25 859.48 583.23 1009.80 570.31
00060820 00000053 722.01 179.35 392.59 541.37 829.85 408.22 1003.02 394.11 928.59 506.07 858.53 585.05 1012.94 573.27
00060821 00000054 725.91 181.10 393.52 545.15 832.75 412.93 1002.84 399.11 928.45 511.07 861.16 589.34 1012.88 578.20
00060822 00000055 729.78 183.99 395.25 543.44 834.65 416.42 1005.43 402.32 927.29 517.73 862.41 592.25 1015.60 581.41
00060823 00000056 735.68 185.97 395.96 547.22 839.11 417.67 1010.97 405.83 929.29 519.34 863.91 593.80 1019.21 584.99
00060824 00000057 743.00 185.92 392.79 547.55 843.28 416.01 1014.80 405.01 932.49 517.40 867.53 592.06 1023.34 584.13
00060825 00000058 750.19 182.39 393.40 549.41 850.48 412.88 1020.03 402.36 939.59 514.70 874.29 589.37 1028.00 581.88
00060826 00000059 760.22 179.44 392.05 548.75 862.12 406.51 1031.16 405.85 948.56 508.10 884.80 583.98 1033.85 583.15
00060827 00000060 767.67 178.56 394.05 549.64 868.83 402.96 1039.15 403.17 955.99 505.78 890.20 581.35 1041.86 580.96
00060828 00000061 773.19 177.72 394.35 548.40 873.79 400.62 1043.07 399.70 959.87 503.46 896.21 580.46 1044.41 579.16
00060829 00000062 777.87 174.82 393.16 550.20 877.74 398.20 1045.98 398.34 962.29 500.78 898.60 581.84 1043.05 581.58
00060830 00000063 780.83 176.26 392.80 551.54 880.11 399.38 1048.17 399.14 964.62 501.57 901.13 584.98 1044.76 584.57
00060831 00000064 780.95 176.78 392.96 552.81 881.38 399.26 1049.33 399.89 965.48 502.41 901.86 585.79 1045.04 586.07
00060832 00000065 779.22 178.06 393.58 553.70 879.97 398.83 1048.93 401.75 963.19 503.02 898.88 585.72 1042.79 587.92
00060833 00000066 775.57 174.69 391.94 557.64 877.13 398.43 1045.94 403.73 960.87 505.21 895.04 585.64 1037.88 589.68
00060834 00000067 770.56 172.40 391.25 559.67 872.81 396.59 1042.35 404.70 956.29 504.75 887.60 583.99 1030.52 590.61
00060835 00000068 763.07 170.15 392.35 559.56 866.93 396.88 1036.52 406.97 950.70 503.02 880.62 581.89 1022.10 590.36
00060836 00000069 751.29 171.02 393.37 555.09 856.50 399.33 1026.59 400.31 941.17 508.01 872.85 586.02 1018.40 587.50
00060837 00000070 744.56 171.28 393.28 554.60 847.09 403.06 1017.42 404.20 931.05 510.07 863.83 587.20 1010.56 588.83
00060838 00000071 735.68 174.36 392.70 551.42 838.27 403.73 1010.36 405.42 922.10 512.38 853.25 587.70 1002.67 589.77
00060839 00000072 729.24 178.73 390.90 546.19 831.39 406.94 1002.01 407.27 914.51 515.24 848.95 591.61 994.44 592.34
00060840 00000073 722.63 190.41 391.10 538.95 823.71 411.81 992.57 410.42 907.70 518.65 846.12 598.61 984.48 598.15
00060841 00000074 718.21 191.49 390.60 544.11 819.40 416.42 987.50 418.03 901.32 526.11 842.13 603.54 977.20 605.40
00060842 00000075 711.63 193.38 390.95 548.02 814.68 421.74 983.64 422.88 899.02 533.85 839.98 609.64 974.14 610.79
00060843 00000076 703.89 198.56 394.82 549.02 807.31 425.70 979.41 429.21 891.35 540.11 831.04 613.77 966.51 616.99
00060844 00000077 697.86 197.62 397.08 559.56 802.70 426.84 974.57 432.93 886.62 545.55 824.47 618.80 961.76 624.23
00060845 00000078 697.03 202.40 395.82 562.72 801.79 428.52 971.56 433.62 885.97 546.08 825.37 623.69 960.73 628.56
00060846 00000079 702.57 205.10 393.37 563.13 803.18 429.11 971.12 430.33 891.73 544.05 831.20 628.15 955.59 628.52
00060847 00000080 705.46 203.98 393.38 557.93 805.13 428.26 975.38 429.20 893.18 544.52 831.40 624.27 959.02 624.27
00060848 00000081 708.35 203.01 393.04 557.58 806.46 428.96 978.88 428.80 894.98 543.62 829.28 619.91 966.33 618.71
00060849 00000082 705.98 200.54 393.79 557.64 806.12 429.74 982.08 431.95 891.54 542.16 826.81 615.88 974.95 617.81
00060850 00000083 709.60 198.37 392.23 558.11 809.11 429.95 984.56 431.70 893.58 542.59 830.36 615.60 978.55 617.10
00060851 00000084 713.48 198.56 390.12 556.07 813.29 429.31 986.21 431.24 896.42 542.88 833.51 614.95 979.85 616.70
00060852 00000085 721.70 204.65 388.21 551.38 818.00 428.24 988.30 427.08 904.73 538.87 839.94 618.53 973.69 616.40
00060853 00000086 724.84 205.94 388.61 553.57 819.91 427.74 993.27 426.88 907.86 539.12 842.40 622.27 976.39 620.18
00060854 00000087 727.80 208.48 387.19 547.50 822.40 426.52 995.63 424.83 910.81 537.71 845.11 620.72 980.48 617.99
00060855 00000088 730.17 203.10 387.03 549.90 825.28 424.67 1000.10 424.34 914.53 537.47 845.53 615.30 987.71 613.48
00060856 00000089 729.04 201.48 383.13 545.33 829.41 424.11 1003.63 426.51 916.05 541.80 847.70 611.02 996.25 613.63
00060857 00000090 729.63 200.55 383.11 545.83 829.96 424.60 1003.58 426.87 916.28 541.18 848.21 611.24 996.07 613.63
00060858 00000091 732.78 202.78 386.67 551.65 829.17 421.79 1004.83 422.32 920.21 538.59 848.34 612.92 991.88 611.98
00060859 00000092 733.77 206.17 390.32 546.41 838.40 419.17 1018.40 416.41 938.38 536.59 857.90 610.80 1007.39 607.31
00060860 DELETE   740.11 194.54 391.88 559.67 859.16 418.68 1036.62 409.05 970.48 531.41 883.65 612.96 1033.87 604.97
00060861 00000094 748.64 190.97 385.25 559.05 886.60 418.94 1053.83 409.21 998.10 520.56 913.39 614.02 1052.60 605.24
00060862 00000095 751.77 190.84 381.16 554.19 901.10 411.33 1062.44 400.31 1014.93 525.99 934.61 607.68 1068.01 598.95
00060863 00000096 751.75 191.99 382.57 553.39 905.01 419.43 1066.69 403.55 1022.29 535.05 938.75 614.22 1071.93 601.37
00060864 00000097 752.77 202.05 382.09 549.23 903.45 430.80 1067.99 413.06 1021.55 543.78 938.32 621.12 1072.34 606.90
00060865 00000098 752.13 199.77 380.98 557.21 902.28 432.39 1066.07 413.92 1021.18 544.27 938.14 623.67 1074.29 608.74
00060866 00000099 751.93 195.20 381.37 559.85 902.65 426.47 1065.28 408.21 1022.04 540.10 937.98 620.57 1075.07 605.52
00060867 00000100 751.42 194.91 382.35 554.85 900.84 419.36 1062.89 401.78 1020.08 530.73 937.59 614.07 1074.47 599.91
00060868 00000101 749.82 191.30 382.79 549.83 898.70 414.42 1063.72 396.21 1018.49 523.52 935.44 605.13 1076.66 590.46
00060869 00000102 749.71 186.79 382.34 547.95 896.18 413.21 1062.18 393.02 1017.14 518.48 930.35 598.91 1075.90 583.03
00060870 00000103 747.77 187.69 383.13 550.15 896.11 413.73 1060.83 393.44 1021.83 511.26 921.65 596.90 1070.48 580.75
00060871 00000104 745.64 183.61 383.36 554.03 893.05 414.39 1058.63 393.67 1019.29 510.14 919.23 596.87 1068.61 580.31
00060872 00000105 743.31 181.93 383.73 555.24 891.89 414.80 1056.80 394.60 1017.73 510.65 917.97 597.05 1066.04 580.90
00060873 00000106 741.84 184.58 382.14 553.90 889.20 414.69 1054.45 394.71 1014.74 508.96 916.86 599.22 1063.80 583.19
00060874 00000107 738.48 183.90 383.46 553.86 886.43 414.13 1052.43 395.21 1010.76 508.15 916.24 600.34 1061.01 584.76
00060875 00000108 735.68 180.61 381.68 552.69 882.51 416.45 1053.02 395.73 1009.07 507.75 916.46 601.52 1062.54 584.01
00060876 00000109 733.46 181.78 379.59 550.27 878.05 416.43 1048.89 395.47 1003.97 507.62 914.27 600.55 1060.04 582.58
00060877 00000110 726.71 181.04 382.34 556.79 870.75 414.51 1041.90 396.51 996.39 503.88 908.57 601.72 1053.80 585.90
00060878 00000111 719.82 183.50 383.60 554.68 864.44 411.49 1034.21 392.90 989.13 502.42 903.66 600.83 1045.38 584.46
00060879 00000112 713.30 180.01 387.40 552.56 858.10 413.01 1027.57 391.33 982.36 502.59 899.49 598.48 1040.21 579.58
00060880 00000113 706.59 176.78 390.11 546.87 852.63 410.53 1023.14 386.49 977.64 503.01 895.49 594.90 1036.08 574.09
00060881 00000114 697.81 178.85 394.67 543.20 841.67 410.74 1013.79 386.44 965.43 501.03 889.03 594.17 1028.55 572.95
00060882 00000115 689.91 186.83 391.33 536.70 831.98 413.45 1000.63 390.57 951.50 506.43 874.69 594.23 1015.05 575.36
00060883 DELETE   682.18 177.69 388.15 548.82 814.99 414.93 987.23 396.73 931.39 508.82 856.14 595.58 1002.82 580.86
00060884 DELETE   670.52 186.62 391.46 550.45 797.12 417.75 963.75 402.47 905.11 513.03 830.69 600.24 973.25 587.66
00060885 DELETE   657.11 184.18 396.73 555.84 773.45 410.50 944.56 397.70 874.74 505.63 805.27 597.99 951.52 587.46
00060886 00000119 649.95 180.47 396.19 561.15 758.25 403.69 927.14 394.01 851.18 504.95 786.33 595.25 931.78 586.92
00060887 00000120 646.37 177.97 394.51 564.28 745.31 400.37 914.01 394.86 829.45 503.65 769.70 593.17 916.43 588.40
00060888 00000121 645.71 172.81 394.11 574.43 742.69 397.59 911.91 394.66 823.41 501.82 763.06 593.97 911.88 591.34
00060889 00000122 649.30 163.91 392.37 584.51 749.00 393.56 920.54 391.47 832.64 499.69 765.67 593.99 917.97 591.99
00060890 DELETE   653.99 159.38 394.70 580.62 764.36 393.88 936.68 389.89 858.37 498.24 786.55 591.79 934.45 587.97
00060891 00000124 665.85 166.75 394.96 562.42 783.00 391.27 957.05 387.30 883.19 493.25 806.62 585.50 954.40 581.96
00060892 00000125 676.81 167.43 390.96 558.63 798.90 387.75 970.07 385.04 902.10 493.90 823.00 581.48 969.46 579.20
00060893 00000126 685.43 167.40 388.35 558.31 804.40 385.07 976.40 388.32 906.06 493.71 827.23 577.85 972.03 580.59
00060894 00000127 688.10 167.36 388.96 560.52 805.15 388.02 976.79 391.74 904.68 499.04 826.56 582.08 968.55 585.19
00060895 00000128 689.88 174.18 393.78 558.66 806.52 393.20 978.31 396.55 902.98 505.02 828.43 587.77 967.57 590.59
00060896 00000129 695.69 181.44 395.62 557.52 814.70 399.09 987.70 401.38 909.75 512.99 836.19 595.13 976.94 596.83
00060897 00000130 702.07 185.18 397.03 555.79 827.44 403.81 998.45 404.02 921.45 519.69 848.80 600.38 986.58 600.43
00060898 00000131 713.38 186.37 393.03 550.94 833.60 407.90 1007.67 405.04 932.07 521.65 858.79 601.78 1000.26 599.68
00060899 00000132 720.50 183.11 390.84 547.44 839.45 403.21 1014.25 402.09 937.74 519.43 860.81 594.71 1006.76 594.50
00060900 00000133 726.78 178.48 389.35 547.64 846.69 396.24 1022.45 399.25 945.10 511.66 863.63 588.51 1010.81 591.84
00060901 00000134 729.48 173.06 391.41 553.31 851.62 390.96 1026.57 397.32 949.80 504.76 866.22 585.14 1012.73 590.91
00060902 00000135 732.00 171.02 390.00 552.50 853.63 389.99 1029.68 397.39 952.11 504.84 865.86 581.62 1016.79 588.35
00060903 00000136 732.26 174.99 391.23 553.74 854.92 391.26 1030.19 397.20 954.76 504.10 869.24 584.09 1019.08 589.59
00060904 00000137 731.08 178.49 391.54 552.30 856.75 392.88 1029.41 398.75 955.83 504.03 872.87 588.14 1015.94 593.37
00060905 00000138 730.36 178.70 393.64 556.69 855.94 395.38 1028.66 400.41 955.00 505.07 876.07 594.78 1015.25 598.94
00060906 00000139 729.52 177.59 392.23 555.33 855.50 395.41 1027.16 401.12 954.32 505.22 875.63 594.63 1011.74 599.46
00060907 00000140 725.11 172.46 392.88 555.03 850.47 392.68 1021.97 397.16 949.31 501.89 871.63 590.49 1006.47 594.12
00060908 00000141 720.72 163.40 392.29 559.01 846.29 387.18 1016.67 393.84 943.65 495.58 866.38 583.96 1001.49 588.53
00060909 00000142 713.60 166.13 390.42 554.58 836.47 385.52 1008.10 390.55 934.33 491.21 856.35 580.32 996.21 583.51
00060910 00000143 706.92 166.78 389.85 555.83 828.22 386.69 1000.37 389.20 928.56 492.36 849.44 581.27 990.80 582.70
00060911 00000144 698.29 169.98 391.66 553.93 820.75 386.70 993.64 389.54 920.42 496.84 841.01 580.87 981.79 582.85
00060912 00000145 692.38 169.93 388.54 554.93 813.42 388.31 985.07 393.91 912.44 497.59 830.90 581.03 972.14 585.78
00060913 00000146 684.93 168.54 391.00 560.79 803.90 388.40 975.19 395.53 900.93 499.94 818.90 581.95 962.28 588.42
00060914 00000147 670.12 169.92 392.18 553.17 794.01 388.65 964.50 393.01 894.11 494.76 808.78 580.20 953.19 584.26
00060915 00000148 657.15 164.83 390.72 550.59 778.62 386.43 951.96 388.94 879.53 490.04 795.61 576.51 943.83 578.25
00060916 00000149 647.59 168.13 387.36 545.81 766.03 385.84 938.68 389.07 864.06 487.96 784.16 575.01 930.30 577.22
00060917 DELETE   633.96 170.09 388.06 546.28 755.02 387.30 926.66 390.39 854.07 487.92 771.63 575.76 916.05 578.31
00060918 00000151 620.79 170.98 389.37 546.74 742.54 387.82 913.85 392.03 841.24 491.26 758.88 573.27 904.94 576.89
00060919 00000152 607.67 172.50 389.98 542.87 726.54 392.93 901.18 392.22 830.08 497.79 745.83 575.64 898.48 575.70
00060920 00000153 597.30 171.94 389.93 541.93 716.39 393.20 890.87 390.15 820.98 493.50 738.11 577.68 888.63 575.46
00060921 00000154 589.38 168.94 390.00 548.50 705.26 393.23 877.99 389.94 807.56 490.20 728.02 579.68 876.85 576.74
00060922 00000155 584.20 172.88 388.10 549.08 699.82 391.89 871.88 388.99 800.83 488.04 723.05 581.59 869.84 578.82
00060923 00000156 582.33 171.46 388.35 556.64 698.74 391.86 869.26 388.23 800.44 488.19 721.68 583.03 868.65 579.84
00060924 00000157 584.61 170.56 389.86 563.71 701.01 391.96 874.86 387.58 805.72 487.59 725.07 586.76 875.50 582.95
00060925 00000158 589.59 174.79 392.39 572.31 718.34 393.71 886.59 392.70 822.33 490.16 735.06 586.92 887.05 586.14
00060926 DELETE   597.81 176.43 386.97 578.97 728.62 404.67 896.44 399.82 837.90 497.92 749.05 594.04 904.10 590.33
00060927 DELETE   605.52 181.55 387.67 568.29 737.99 409.35 906.16 401.58 850.32 507.32 769.82 596.91 922.67 590.27
00060928 00000161 610.03 196.45 389.87 557.13 747.78 424.56 915.31 407.96 864.87 525.32 779.45 607.05 933.02 593.30
00060929 DELETE   615.50 211.55 392.24 550.42 757.41 445.57 926.46 417.33 880.15 545.56 788.48 622.60 943.18 599.46
00060930 DELETE   618.23 219.37 400.58 561.46 766.59 452.81 934.48 425.78 889.37 553.83 798.56 635.43 947.54 613.09
00060931 DELETE   623.29 230.01 400.36 562.55 771.18 466.72 937.26 432.65 897.94 565.59 818.27 653.28 959.69 623.44
CROP_BBOX: 272 0 1535 1080
