Video ID: 	ZGN7rUg2HrU
H: 	1080
W: 	1920
FPS: 	25.0

FRAME INDEX X0 Y0 W H [Landmarks (5 Points)]

00004656 00000000 561.84 317.33 420.43 566.26 713.43 565.98 887.19 547.98 824.34 692.34 727.41 750.06 879.97 736.79
00004657 DELETE   560.46 315.84 419.89 570.22 710.85 566.22 885.09 548.10 822.67 691.59 725.58 751.19 878.58 737.68
00004658 00000002 560.59 316.16 420.16 565.77 709.38 561.75 889.09 544.78 823.71 686.26 725.79 748.41 881.17 735.59
00004659 00000003 560.15 309.04 420.76 571.38 707.80 557.50 889.94 542.07 823.31 680.61 728.11 749.38 880.70 737.18
00004660 00000004 558.25 306.05 423.29 577.37 707.76 551.16 887.42 535.46 822.95 673.18 735.22 751.70 878.60 738.61
00004661 00000005 556.95 299.38 425.71 580.79 706.76 544.14 886.73 531.24 823.23 664.75 738.52 748.11 878.02 736.41
00004662 00000006 558.32 297.15 426.96 577.20 706.51 539.15 888.56 528.54 823.01 659.79 740.07 742.96 881.51 732.57
00004663 00000007 562.94 300.03 423.11 566.33 706.71 538.45 891.65 526.84 823.44 654.58 740.02 738.08 885.17 726.91
00004664 00000008 567.43 295.62 419.99 563.45 707.77 538.76 893.98 526.44 825.25 654.21 740.22 735.10 888.28 723.51
00004665 00000009 570.52 296.78 419.37 560.40 710.58 536.09 897.13 524.81 828.06 653.98 742.18 732.59 890.78 721.90
00004666 00000010 572.85 297.05 419.04 559.72 714.22 535.71 897.75 524.80 830.74 653.07 743.96 730.20 891.67 719.86
00004667 00000011 573.02 299.00 418.55 556.76 715.45 535.56 899.39 524.70 832.81 653.04 742.90 727.68 892.96 717.67
00004668 00000012 574.17 306.38 417.71 547.91 715.25 537.06 901.93 525.78 834.52 653.85 741.87 725.71 896.08 715.78
00004669 00000013 574.45 308.41 416.59 545.97 716.46 537.13 902.65 526.08 835.62 653.05 742.15 724.65 896.08 715.00
00004670 00000014 574.91 310.24 416.40 544.76 717.19 537.00 901.80 526.31 835.31 652.66 741.29 723.18 895.28 713.97
00004671 00000015 574.35 307.59 416.06 546.66 717.49 535.80 900.26 525.24 834.93 652.22 740.37 722.12 893.27 713.13
00004672 00000016 573.43 306.46 415.74 546.46 717.00 535.27 898.19 524.90 833.32 652.22 739.22 720.56 891.93 711.73
00004673 00000017 571.98 308.45 415.50 543.98 715.82 536.07 897.53 525.33 832.33 651.59 737.70 720.60 890.79 711.53
00004674 00000018 570.63 312.85 415.50 539.31 714.57 536.91 896.58 525.76 830.92 651.96 736.09 720.35 889.16 711.12
00004675 00000019 568.45 312.71 416.36 539.32 713.59 538.03 896.53 525.99 830.78 654.45 735.05 721.11 888.74 711.16
00004676 00000020 567.58 309.02 416.84 542.51 711.25 539.13 895.28 527.26 828.01 656.11 731.98 721.53 888.23 711.81
00004677 00000021 566.92 309.12 416.93 541.02 710.78 539.89 895.63 528.06 827.08 658.48 730.77 722.56 886.87 712.98
00004678 00000022 567.02 310.18 416.41 538.94 709.67 540.19 896.78 528.98 826.40 659.64 728.48 722.62 886.63 713.85
00004679 00000023 565.09 309.07 417.63 540.54 708.76 541.06 895.32 529.10 825.41 660.84 727.67 723.26 885.11 713.86
00004680 00000024 564.32 311.85 417.17 541.79 709.32 541.92 892.39 529.86 824.26 661.40 726.03 722.89 882.95 713.62
00004681 00000025 561.21 313.84 420.59 550.60 711.25 540.71 887.46 531.29 822.16 662.67 723.87 721.18 879.49 714.06
00004682 00000026 559.83 311.56 421.93 558.30 713.73 537.58 884.32 530.82 822.98 658.04 722.56 717.54 878.06 712.72
00004683 00000027 558.54 304.41 422.55 567.75 713.84 532.78 882.10 527.63 822.50 653.32 722.42 714.31 878.09 710.32
00004684 00000028 556.90 301.73 424.54 567.48 712.44 527.99 882.93 522.04 823.08 648.78 721.64 711.05 879.60 706.01
00004685 00000029 557.80 299.37 424.04 561.86 712.42 524.39 886.10 516.59 824.91 647.05 723.86 708.65 881.48 701.77
00004686 00000030 562.27 297.41 423.44 560.17 715.36 522.63 890.05 514.68 828.72 646.13 727.93 706.39 885.24 699.25
00004687 00000031 575.15 289.54 420.26 565.65 724.48 526.34 905.83 520.52 836.31 643.56 734.17 702.48 892.79 700.92
00004688 00000032 579.85 298.07 421.69 556.91 732.02 525.47 914.76 521.40 845.85 645.08 741.27 702.86 899.33 702.71
00004689 00000033 584.76 298.06 424.34 558.96 742.64 525.16 924.33 522.57 857.98 646.19 749.82 704.77 905.47 706.10
00004690 DELETE   591.34 303.03 422.85 559.34 753.71 532.52 927.10 529.46 866.22 650.77 756.49 714.75 910.35 714.56
00004691 00000035 599.56 306.77 420.82 555.66 758.43 536.93 937.12 533.27 871.25 654.40 762.85 719.05 916.90 718.50
00004692 00000036 605.68 310.22 422.04 556.01 763.05 537.91 941.75 536.86 872.94 659.50 765.86 722.82 918.63 724.24
00004693 00000037 607.71 314.15 424.61 557.73 765.22 538.93 942.97 537.47 873.82 661.19 768.81 725.91 921.09 726.91
00004694 00000038 609.83 316.64 426.46 552.24 767.33 536.57 946.37 535.28 876.39 659.71 773.02 724.32 924.53 725.21
00004695 00000039 611.48 317.42 425.91 545.43 768.70 533.77 949.69 531.78 880.88 656.07 779.11 722.20 930.60 722.15
00004696 00000040 611.81 312.33 426.28 549.48 769.71 529.02 951.15 527.61 882.46 652.03 783.11 723.04 932.42 722.82
00004697 00000041 611.35 311.04 430.95 554.51 773.32 526.03 953.82 522.65 886.46 647.90 790.51 727.05 933.39 724.48
00004698 00000042 611.35 301.45 429.65 565.32 775.74 522.89 953.92 519.66 890.90 643.21 795.90 729.56 933.41 726.47
00004699 00000043 611.01 295.21 428.66 568.90 774.47 515.76 956.06 512.41 892.85 638.78 797.76 727.13 936.36 723.78
00004700 00000044 610.74 295.88 427.78 564.43 773.73 511.71 957.94 510.16 891.76 638.39 793.48 722.70 936.02 721.17
00004701 00000045 611.71 295.25 427.00 563.56 773.30 511.43 957.82 511.03 891.23 640.08 792.58 721.94 936.10 721.38
00004702 00000046 611.25 298.49 428.30 564.70 775.73 514.33 955.84 513.71 891.14 643.23 791.57 720.73 935.05 720.16
00004703 00000047 610.16 307.38 430.53 558.57 778.13 516.65 955.47 516.82 892.75 645.21 791.86 720.09 935.34 720.48
00004704 00000048 610.63 311.42 431.75 555.97 778.82 520.21 956.39 518.13 894.35 647.89 794.45 721.61 937.62 720.09
00004705 00000049 610.48 309.87 431.40 559.44 780.16 524.25 955.85 521.39 895.28 651.78 794.98 723.26 937.29 721.32
00004706 00000050 610.29 312.34 432.21 561.50 779.51 525.20 956.84 520.62 896.82 653.84 794.87 726.18 939.63 722.89
00004707 00000051 610.71 311.98 431.71 563.91 782.25 524.64 958.79 520.31 900.29 656.51 793.99 725.13 941.29 722.36
00004708 00000052 611.46 314.56 431.70 560.58 784.70 524.66 961.61 520.22 902.76 658.75 794.50 725.13 942.43 722.48
00004709 00000053 611.92 314.42 432.70 559.57 787.07 524.89 964.65 521.14 904.84 660.36 795.51 725.50 942.62 723.40
00004710 00000054 611.76 316.93 433.09 556.75 787.05 526.14 964.67 521.99 904.60 661.66 795.57 726.00 941.72 723.64
00004711 00000055 611.94 317.45 432.74 555.75 787.26 526.92 964.94 523.33 904.10 662.86 794.66 726.10 940.78 724.23
00004712 00000056 611.44 317.71 432.35 555.46 786.26 526.84 963.68 523.17 903.14 662.35 795.15 726.15 940.36 724.11
00004713 00000057 609.97 318.38 433.17 555.02 784.85 526.59 962.16 523.12 901.59 662.93 793.91 725.58 938.66 723.74
00004714 00000058 609.00 315.56 432.45 558.47 782.94 527.51 960.13 523.52 899.68 662.42 792.81 726.28 937.86 723.91
00004715 00000059 607.79 314.92 432.55 558.30 781.94 528.43 957.30 523.69 896.87 662.77 791.93 727.01 934.42 724.02
00004716 00000060 608.86 318.47 430.04 550.80 778.59 530.11 955.83 524.47 893.03 664.77 790.01 727.85 932.03 724.40
00004717 00000061 607.35 322.08 428.91 544.70 773.59 532.78 955.99 524.40 891.30 668.75 786.69 730.17 932.59 725.01
00004718 00000062 605.67 322.24 427.64 543.76 767.97 534.73 955.85 525.07 888.68 671.86 781.03 731.25 932.62 725.54
00004719 00000063 603.64 324.33 426.61 543.68 763.32 536.69 953.76 526.79 884.88 673.70 776.91 732.43 931.71 726.81
00004720 00000064 600.33 326.17 428.33 545.93 762.34 538.67 950.38 529.81 881.98 675.25 774.00 733.10 927.12 728.45
00004721 00000065 597.85 324.04 427.84 549.30 762.49 541.30 945.85 532.01 879.91 676.34 771.75 733.76 922.06 728.75
00004722 00000066 596.42 324.84 426.10 549.70 762.05 544.04 942.01 534.66 877.85 678.29 769.98 734.22 918.76 729.30
00004723 00000067 594.67 326.93 426.45 548.87 760.93 545.60 939.05 535.61 875.57 680.49 768.78 735.97 915.85 730.58
00004724 00000068 592.16 325.06 426.20 552.19 759.24 548.45 935.21 536.93 873.87 682.31 768.02 737.95 913.45 731.35
00004725 00000069 588.62 328.60 427.70 549.06 756.63 551.37 932.40 539.23 871.22 685.73 765.45 739.78 910.33 732.75
00004726 00000070 586.93 330.03 427.63 550.25 753.86 555.53 928.46 542.12 868.93 688.71 763.04 742.67 908.48 735.01
00004727 DELETE   584.52 333.59 428.75 546.54 752.82 561.61 924.82 547.89 863.26 688.25 757.51 743.31 899.84 735.73
00004728 00000072 583.73 329.88 427.45 550.50 750.30 566.17 921.52 551.70 859.59 688.51 752.80 744.31 896.22 736.22
00004729 00000073 582.05 330.02 427.43 551.75 748.60 565.72 920.68 551.98 858.50 690.27 750.49 743.69 896.64 736.24
00004730 00000074 583.43 333.08 425.14 549.76 745.86 567.08 919.85 552.77 856.82 689.38 751.52 746.22 897.66 738.01
00004731 00000075 581.85 338.19 426.69 544.39 740.50 566.98 917.88 552.36 853.26 690.56 749.97 747.19 897.27 738.59
00004732 00000076 580.02 338.11 427.72 544.24 738.46 565.72 918.27 551.40 852.97 691.91 749.71 748.12 897.16 739.72
00004733 00000077 578.18 337.75 428.87 543.22 735.65 563.84 918.02 550.09 851.66 690.82 750.05 749.62 897.57 741.43
00004734 00000078 577.16 333.46 429.21 546.21 734.17 562.71 918.15 550.12 850.40 689.53 749.68 750.58 897.74 742.98
00004735 00000079 577.31 332.80 428.38 546.37 734.02 561.02 918.05 549.57 849.72 687.29 751.20 750.90 897.33 743.92
00004736 00000080 577.38 334.04 428.87 544.81 733.18 560.26 916.52 549.06 847.57 685.47 749.44 748.40 896.20 741.57
00004737 00000081 577.27 334.42 427.52 540.01 731.55 559.54 916.86 547.26 846.78 685.25 748.60 745.68 898.15 737.99
00004738 00000082 579.00 331.82 427.13 541.78 732.52 560.15 916.98 546.58 847.63 685.41 751.10 745.67 899.17 736.92
00004739 00000083 579.55 332.18 426.55 545.20 734.09 559.65 916.09 546.57 847.45 686.25 749.37 744.76 896.71 736.70
00004740 00000084 580.67 333.46 425.20 543.49 735.56 560.24 915.11 546.12 849.04 685.69 750.38 742.20 898.11 733.48
00004741 00000085 581.73 333.90 424.23 543.84 736.63 560.51 914.39 546.25 849.28 684.18 751.27 741.65 898.11 732.75
00004742 00000086 583.47 336.03 422.73 541.33 737.77 560.14 913.75 546.25 849.34 684.77 749.77 739.48 898.49 731.08
00004743 00000087 583.22 335.49 423.41 541.29 738.18 560.88 914.21 546.78 850.19 684.84 748.72 738.64 898.71 730.19
00004744 00000088 583.70 336.93 423.78 539.90 738.63 560.46 914.62 546.57 850.70 685.39 748.70 737.61 899.22 729.38
00004745 00000089 584.53 338.30 423.73 537.10 739.20 560.88 915.26 547.22 851.42 686.22 747.92 735.65 900.61 727.70
00004746 00000090 585.44 336.24 423.83 538.24 739.41 561.78 915.46 547.68 851.62 686.17 749.82 736.30 901.38 727.93
00004747 00000091 587.18 334.75 422.99 539.21 740.23 561.36 916.12 547.02 852.25 685.14 751.42 736.32 902.42 727.74
00004748 00000092 588.30 335.54 422.57 537.48 741.04 560.20 917.67 546.35 853.48 684.00 752.19 734.28 904.69 726.11
00004749 00000093 590.41 330.96 421.70 541.02 742.62 559.13 919.39 546.62 854.81 681.54 752.95 732.43 907.48 725.41
00004750 00000094 592.22 329.47 420.73 541.07 743.95 557.36 920.55 545.28 855.90 679.85 754.20 731.01 909.06 724.29
00004751 00000095 595.14 329.66 420.24 540.89 745.63 556.59 921.98 545.49 856.59 680.06 755.82 730.67 910.57 724.77
00004752 00000096 598.06 329.13 419.41 541.89 747.77 556.64 923.23 546.44 858.03 679.96 757.09 730.15 912.16 725.00
00004753 00000097 600.63 326.71 420.08 545.33 748.55 555.18 926.94 546.08 859.49 678.70 758.08 730.55 915.60 725.97
00004754 00000098 603.26 323.40 419.11 548.62 749.77 554.36 929.63 545.05 861.63 678.71 758.49 730.27 918.96 725.45
00004755 00000099 604.87 327.37 419.71 542.62 752.24 552.32 934.21 544.07 864.42 678.36 759.72 728.47 920.69 724.74
00004756 00000100 606.77 332.61 420.32 536.99 754.34 552.79 938.48 544.47 867.60 678.82 761.43 728.61 923.03 725.17
00004757 00000101 611.09 328.25 418.92 542.07 758.83 554.44 941.26 546.27 871.13 679.31 764.94 728.60 927.04 725.10
00004758 00000102 613.65 331.54 419.79 539.04 763.30 553.67 944.06 545.62 873.86 682.17 768.50 728.61 929.08 725.10
00004759 00000103 614.59 336.42 420.97 535.09 765.99 554.52 947.63 546.38 877.31 684.93 770.97 729.21 931.82 725.60
00004760 00000104 615.14 338.83 420.50 535.26 769.16 554.77 947.94 547.51 879.49 686.11 772.71 728.68 933.35 725.66
00004761 00000105 615.66 336.70 419.84 538.52 770.37 555.61 947.30 547.37 880.29 687.12 773.26 729.77 933.82 726.03
00004762 00000106 615.08 336.33 421.33 539.20 770.98 555.80 948.16 547.62 881.29 686.80 773.99 731.05 933.13 727.36
00004763 00000107 614.81 332.95 422.41 544.43 772.94 556.36 949.83 547.83 883.46 686.51 777.32 736.61 931.49 732.37
00004764 00000108 616.62 332.76 421.96 544.41 774.51 555.73 953.23 546.42 886.43 687.11 781.19 739.40 933.44 734.22
00004765 00000109 618.34 330.10 421.56 545.02 774.34 554.41 956.55 544.22 888.54 684.78 782.97 739.70 937.53 733.67
00004766 00000110 617.61 327.87 422.94 545.75 773.23 552.88 956.25 542.40 888.47 681.71 782.63 738.59 937.49 732.37
00004767 00000111 615.69 327.76 422.64 544.61 769.93 551.82 954.23 540.77 885.91 679.17 780.29 737.72 936.01 731.06
00004768 00000112 615.65 327.51 422.20 544.66 769.65 551.83 953.61 540.82 885.53 678.95 780.44 737.15 936.23 730.50
00004769 00000113 621.28 324.05 420.63 549.82 778.60 552.78 958.35 544.28 890.77 682.14 783.74 737.11 938.67 732.60
00004770 DELETE   631.43 335.59 423.00 542.86 789.27 560.41 970.84 553.85 901.20 693.33 795.39 744.59 949.12 741.03
00004771 DELETE   642.63 343.09 433.93 542.99 804.18 565.56 987.76 557.92 916.84 697.46 804.48 744.22 960.34 741.66
00004772 00000116 653.94 350.61 433.79 541.34 818.42 571.83 999.01 566.19 929.80 707.26 812.44 747.37 966.21 747.19
00004773 00000117 662.97 356.97 429.24 540.28 826.37 572.98 1004.37 569.74 935.72 715.07 820.15 751.73 971.31 753.70
00004774 00000118 668.98 358.43 426.97 543.54 831.75 573.24 1008.51 571.84 939.57 717.61 824.15 753.74 976.79 757.18
00004775 00000119 674.01 360.45 430.15 542.52 837.65 575.70 1015.63 573.74 945.72 722.52 828.81 755.61 985.27 758.22
00004776 00000120 679.25 360.22 430.43 544.88 840.80 580.23 1020.05 576.97 950.93 724.96 833.54 758.91 994.51 760.16
00004777 00000121 692.52 368.87 427.13 543.19 853.30 592.09 1032.93 593.33 958.43 730.49 838.14 760.91 996.83 766.28
00004778 00000122 690.60 376.69 432.94 541.50 857.16 596.69 1040.14 598.64 965.67 735.96 840.00 766.15 999.61 772.54
CROP_BBOX: 215 0 1274 1080
