Video ID: 	k8v84GopFTI
H: 	1080
W: 	1920
FPS: 	23.976023976023978

FRAME INDEX X0 Y0 W H [Landmarks (5 Points)]

00028561 00000000 579.36 187.93 448.68 612.55 781.95 386.97 973.51 404.34 932.71 505.85 814.56 642.31 954.82 653.78
00028562 00000001 565.50 154.43 456.37 636.84 773.30 389.64 957.85 404.60 922.94 499.61 806.69 630.37 944.13 642.40
00028563 00000002 560.54 150.45 456.76 637.01 766.15 386.77 950.64 399.35 915.06 493.09 802.68 624.76 939.56 634.63
00028564 00000003 554.09 165.02 453.43 610.48 752.40 382.10 937.86 392.28 899.71 485.22 792.41 615.84 934.24 624.15
00028565 00000004 552.71 160.41 447.34 602.54 738.14 376.37 928.20 383.04 886.94 473.22 782.42 606.50 930.15 611.29
00028566 00000005 548.21 162.22 448.47 589.25 728.05 376.26 926.82 370.30 880.67 466.32 775.51 601.53 931.35 594.31
00028567 00000006 547.98 151.47 450.02 604.41 725.64 376.86 925.06 371.40 876.49 465.15 771.99 601.82 930.77 594.86
00028568 00000007 551.58 158.91 451.85 595.09 732.49 375.35 932.98 369.74 884.47 465.04 776.63 601.88 935.17 594.91
00028569 DELETE   561.36 154.68 455.35 605.22 752.53 374.64 943.11 383.90 898.99 468.74 793.07 598.53 943.27 605.12
00028570 00000009 569.50 154.09 454.40 614.48 773.22 380.80 956.97 386.68 921.78 482.92 811.50 608.87 953.87 613.06
00028571 00000010 575.41 150.26 452.46 627.55 779.84 385.84 965.97 394.00 930.21 490.40 814.52 615.23 960.17 621.16
00028572 00000011 577.29 152.46 454.08 624.11 778.62 387.65 968.68 395.27 928.64 494.99 814.61 617.64 961.93 623.09
00028573 00000012 575.61 152.95 456.03 629.12 774.37 389.11 966.70 398.67 922.69 497.84 807.72 620.89 955.94 628.19
00028574 00000013 575.26 152.36 456.26 637.03 773.76 389.00 964.35 402.47 918.84 499.02 803.69 625.84 947.63 636.63
00028575 00000014 581.81 186.74 449.43 617.82 781.07 382.81 968.01 398.64 923.65 496.31 811.11 633.42 948.33 644.07
00028576 00000015 582.64 183.43 450.89 635.09 778.74 381.75 969.13 401.32 928.20 492.91 803.11 636.41 953.03 650.21
00028577 00000016 581.23 187.63 451.12 637.13 777.33 384.20 969.92 402.16 930.30 499.27 799.99 642.15 953.98 654.65
00028578 00000017 579.06 185.23 455.05 635.20 777.69 384.92 972.81 400.95 928.30 504.10 802.63 641.74 954.75 652.30
00028579 00000018 581.06 179.93 454.70 629.08 780.17 385.86 978.06 401.50 931.57 504.09 807.92 638.53 957.70 648.93
00028580 00000019 585.00 189.06 451.40 607.62 783.24 401.82 980.18 417.20 930.19 507.73 807.55 633.85 960.41 644.75
00028581 DELETE   585.90 188.64 450.65 598.16 785.63 400.74 976.77 417.31 928.98 506.52 810.00 633.51 954.51 645.22
00028582 00000021 586.59 189.78 450.27 602.08 788.09 398.54 977.75 414.22 932.71 508.21 811.21 635.27 957.21 646.44
00028583 00000022 586.01 177.01 451.37 618.23 795.29 392.00 979.89 409.37 941.92 505.67 818.39 636.86 959.08 649.38
00028584 00000023 586.62 184.57 451.22 621.23 796.08 390.76 981.01 406.52 944.55 504.87 820.32 638.10 966.14 649.18
00028585 00000024 585.93 182.23 452.71 625.57 798.05 389.12 983.03 401.18 949.64 505.71 825.76 639.99 971.31 648.09
00028586 00000025 585.18 181.48 453.28 627.33 799.52 388.03 984.18 400.19 952.03 504.74 830.77 640.81 974.29 648.54
00028587 00000026 585.18 185.68 453.50 623.11 800.37 385.72 984.36 396.96 954.30 502.62 833.40 641.17 976.17 648.14
00028588 00000027 584.45 183.27 452.28 627.07 799.93 385.94 982.54 398.75 955.22 499.83 832.71 639.96 975.47 648.26
00028589 00000028 581.56 183.85 452.23 627.82 796.29 384.83 979.87 398.39 954.90 498.14 825.99 638.83 971.68 648.07
00028590 00000029 581.26 182.83 451.84 631.28 794.67 385.07 978.22 397.91 954.22 498.42 822.65 639.39 970.22 648.10
00028591 00000030 581.00 182.27 451.81 637.61 794.13 385.35 976.77 398.24 952.70 498.93 821.50 640.35 969.19 648.98
00028592 00000031 578.96 182.66 453.01 637.53 791.95 385.66 976.42 398.40 952.51 499.41 820.17 639.72 969.64 648.23
00028593 00000032 578.79 181.12 452.27 630.57 793.03 385.68 976.68 399.11 951.22 499.37 820.22 636.94 967.82 646.08
00028594 00000033 576.94 177.94 452.21 626.68 793.58 385.25 976.69 399.50 949.89 499.64 819.08 635.26 966.08 645.20
00028595 00000034 576.95 177.56 450.59 624.72 792.54 386.01 978.48 400.40 949.62 503.43 816.53 636.49 964.19 646.69
00028596 00000035 576.44 179.96 449.71 624.37 791.83 393.11 977.93 404.25 947.83 511.54 816.59 642.13 963.34 649.50
00028597 00000036 568.70 191.06 454.71 618.78 785.74 406.48 973.90 419.73 942.00 519.94 811.82 645.97 958.92 654.87
00028598 DELETE   565.33 185.93 452.55 637.12 780.69 413.40 965.63 426.70 936.00 529.93 805.71 653.70 948.67 662.79
00028599 DELETE   560.29 165.41 453.90 653.90 772.98 435.17 953.50 430.93 924.16 545.86 806.54 670.29 938.28 668.16
00028600 00000039 556.69 167.73 455.40 652.61 767.41 441.60 950.65 434.25 917.97 554.03 805.53 676.96 937.08 672.31
00028601 00000040 556.19 175.10 454.19 647.76 768.24 438.94 949.48 433.16 918.11 556.31 808.04 680.75 934.39 677.49
00028602 00000041 552.56 172.30 457.26 653.50 769.13 437.51 948.88 432.94 919.02 553.79 809.64 681.45 934.89 679.01
00028603 00000042 555.89 175.52 458.16 651.15 773.05 439.79 953.61 439.76 922.37 550.69 814.59 680.06 938.30 680.88
00028604 00000043 556.88 184.02 458.40 649.95 775.07 437.36 954.12 436.46 924.84 548.55 818.73 681.89 941.59 681.87
00028605 00000044 553.34 175.79 459.47 655.27 771.52 428.88 951.81 431.66 921.18 543.62 813.63 677.10 936.23 680.18
00028606 00000045 553.32 170.21 455.01 664.87 767.56 421.02 945.82 428.57 913.09 531.91 800.07 671.18 926.63 678.23
00028607 00000046 550.48 190.30 456.40 640.57 766.67 411.42 948.71 424.95 917.74 527.17 792.89 661.06 930.95 670.94
00028608 00000047 551.58 179.19 455.90 649.67 768.10 400.10 951.56 421.64 912.26 523.09 784.81 647.42 927.63 662.68
00028609 00000048 553.13 154.40 460.11 661.63 763.59 413.57 949.24 421.03 913.62 523.83 781.55 648.84 927.09 655.67
00028610 00000049 553.64 156.25 462.36 652.42 773.08 415.10 956.14 420.82 926.11 526.85 788.07 647.69 930.92 653.46
00028611 00000050 562.15 199.60 457.42 615.25 784.50 410.47 969.61 429.31 935.89 529.53 795.87 642.02 945.20 656.38
00028612 DELETE   570.49 195.83 456.60 629.83 798.47 420.65 983.12 442.64 951.00 539.57 813.02 655.79 954.81 672.52
00028613 DELETE   587.71 209.63 453.42 618.25 812.06 444.09 997.96 450.97 965.46 559.88 850.92 686.11 977.40 690.02
00028614 DELETE   596.22 194.85 455.53 654.93 821.83 456.55 1002.46 459.02 975.58 578.81 864.64 707.89 988.62 708.46
00028615 00000054 603.03 209.92 454.82 651.53 821.18 460.58 1004.48 458.24 978.41 590.86 863.62 721.51 988.02 718.75
00028616 00000055 595.59 226.73 461.72 644.65 831.02 453.31 1003.41 463.35 978.63 587.16 853.30 713.27 974.56 720.28
00028617 DELETE   595.47 241.03 460.26 629.15 827.24 448.84 1001.53 460.34 974.76 576.32 836.81 696.50 973.08 706.05
00028618 00000057 599.93 215.16 452.93 638.25 820.64 439.92 1001.95 444.56 973.61 556.22 839.70 681.74 981.57 684.92
00028619 00000058 595.80 215.80 451.60 625.91 811.15 430.61 998.99 437.47 964.86 544.64 837.78 673.35 981.51 677.61
00028620 00000059 589.14 212.12 450.97 622.09 804.65 426.05 992.15 435.93 957.51 544.47 832.28 672.65 971.35 679.43
00028621 DELETE   586.64 212.43 457.47 635.84 811.03 439.12 990.37 446.34 965.60 555.41 816.50 673.81 959.42 680.19
00028622 00000061 589.37 213.07 459.50 635.19 812.84 449.07 997.81 455.11 970.59 566.67 817.31 677.54 968.62 683.53
00028623 00000062 598.30 215.17 456.44 629.86 822.87 446.30 1004.55 452.60 973.65 560.46 834.16 677.33 977.68 682.92
00028624 00000063 610.24 216.23 451.61 615.79 825.56 436.13 1014.10 441.89 976.26 552.07 855.70 676.29 993.22 679.35
00028625 00000064 612.80 201.83 450.36 612.98 832.30 421.88 1017.68 428.08 987.66 543.31 867.53 671.86 1000.61 675.28
00028626 00000065 618.05 191.79 444.75 618.74 838.31 411.46 1020.88 421.23 992.98 539.38 873.84 669.87 1000.88 676.49
00028627 00000066 618.77 196.65 444.35 610.20 836.48 406.69 1023.63 417.44 992.34 538.71 870.81 666.69 1001.44 674.01
00028628 00000067 622.50 201.94 441.62 603.57 842.52 404.79 1025.66 416.23 996.67 538.66 874.92 664.13 1003.16 672.03
00028629 00000068 620.04 173.97 456.33 637.58 848.65 411.44 1025.37 420.75 998.48 546.13 887.74 667.50 1004.22 676.03
00028630 00000069 628.07 178.56 454.09 643.92 857.37 411.80 1028.51 419.95 1006.88 547.23 901.60 674.49 1011.66 682.09
00028631 00000070 636.59 188.98 450.37 647.38 869.65 398.87 1042.18 425.26 1014.30 537.66 906.02 670.06 1016.35 689.10
00028632 00000071 638.90 186.64 453.37 658.56 873.70 397.62 1044.67 425.04 1021.44 535.68 904.13 671.23 1018.19 691.58
00028633 00000072 639.43 189.67 456.81 649.75 874.40 394.44 1048.89 421.16 1023.90 533.93 899.98 665.94 1019.81 685.74
00028634 00000073 639.01 192.29 457.15 635.20 873.53 395.25 1052.31 420.86 1026.59 534.26 891.93 660.81 1018.63 680.08
00028635 00000074 635.04 184.32 455.03 640.25 870.80 393.63 1047.62 418.73 1023.96 531.22 881.00 654.35 1012.08 673.68
00028636 00000075 622.74 182.32 458.86 641.06 862.05 391.38 1039.56 419.34 1012.34 528.36 869.37 647.77 1004.06 669.28
00028637 00000076 614.68 191.96 457.13 623.07 846.57 395.79 1026.63 411.16 1004.54 531.96 855.89 646.43 1001.40 659.03
00028638 00000077 605.15 185.21 457.33 625.72 830.84 394.73 1017.76 410.04 984.53 525.33 841.54 642.60 992.46 655.26
00028639 00000078 604.55 181.75 453.76 622.42 823.20 392.08 1012.32 403.86 974.43 521.18 842.37 643.38 989.20 652.36
00028640 00000079 599.73 179.72 451.87 618.77 821.50 402.59 1003.80 416.16 969.33 520.59 839.07 637.07 981.17 647.52
00028641 DELETE   599.49 190.68 450.24 605.63 813.45 406.61 998.28 423.82 955.53 521.48 828.74 635.66 971.34 649.14
00028642 00000081 595.78 195.18 451.81 607.91 806.94 403.68 991.42 426.10 944.83 523.51 810.46 634.70 957.20 653.55
00028643 DELETE   594.60 162.89 454.50 638.20 795.71 405.57 987.00 422.53 932.97 528.72 795.13 639.28 944.32 654.52
00028644 00000083 598.52 155.47 467.25 652.41 805.69 404.10 994.48 441.30 930.09 539.68 786.58 634.97 941.25 666.57
00028645 00000084 609.40 172.74 465.75 642.26 810.77 407.05 1000.91 443.92 929.58 552.27 787.15 644.52 937.21 676.58
00028646 00000085 614.52 198.33 473.23 627.54 813.24 413.26 1007.62 450.20 929.12 566.82 784.43 651.60 938.11 684.14
00028647 00000086 614.04 209.32 487.81 641.58 830.45 420.48 1023.18 463.46 938.81 585.14 792.08 663.45 948.11 699.23
00028648 00000087 622.11 220.54 492.18 655.17 840.98 433.00 1027.48 472.49 947.55 601.14 801.57 676.46 959.14 709.40
00028649 00000088 632.50 224.41 492.40 660.82 852.96 439.11 1036.19 474.61 963.93 607.90 817.18 686.50 972.60 716.92
00028650 00000089 645.41 246.47 482.27 644.00 857.75 434.16 1050.33 473.70 974.75 612.87 826.45 688.42 978.38 721.96
00028651 00000090 649.26 245.08 477.82 642.22 857.56 435.36 1050.67 471.39 976.10 611.28 826.39 690.23 980.17 721.19
00028652 00000091 646.45 238.55 477.97 638.64 852.18 434.47 1046.18 466.46 969.71 610.16 821.61 682.80 980.22 710.46
00028653 00000092 639.68 209.35 482.36 651.93 842.17 433.20 1036.97 460.12 956.69 596.79 819.70 678.38 979.07 699.86
00028654 00000093 630.28 208.18 480.74 655.56 834.03 426.58 1029.44 454.07 949.22 585.09 819.12 674.13 976.89 695.66
00028655 00000094 629.74 213.33 475.69 651.74 829.42 423.32 1026.75 446.32 950.01 582.27 826.29 681.10 975.16 699.26
00028656 00000095 627.95 203.71 478.33 662.31 838.78 427.24 1032.17 449.37 960.92 589.37 838.13 690.76 973.33 708.34
00028657 00000096 630.75 199.64 476.44 665.88 843.08 429.78 1035.80 451.34 966.41 590.87 844.05 692.05 977.36 708.96
00028658 00000097 632.65 188.57 474.72 671.37 844.89 429.22 1037.91 450.30 971.92 586.35 850.15 686.82 985.05 702.42
00028659 00000098 633.64 186.27 471.61 661.94 846.73 426.61 1041.24 446.37 977.62 578.48 853.31 680.03 993.93 694.05
00028660 00000099 637.81 187.39 468.48 655.09 846.87 421.64 1043.05 441.65 979.45 570.92 851.08 672.18 999.22 686.55
00028661 00000100 642.32 201.80 469.14 639.77 848.98 428.12 1047.33 444.45 981.62 578.79 849.59 672.31 1009.16 684.38
00028662 00000101 645.30 220.60 471.16 625.62 848.25 435.39 1047.53 450.71 979.43 587.41 844.47 673.03 1012.28 685.20
00028663 00000102 645.34 218.00 468.40 637.13 848.45 442.18 1042.89 457.89 977.91 593.98 838.39 679.11 1005.55 691.99
00028664 00000103 638.35 207.86 472.32 663.05 850.76 454.02 1030.87 470.02 976.95 597.23 833.13 686.01 992.61 700.15
00028665 00000104 644.58 226.66 460.03 655.16 845.29 443.28 1035.05 464.47 973.54 597.44 831.55 694.61 984.45 712.61
00028666 00000105 636.40 212.66 464.53 665.35 840.12 435.66 1032.16 456.43 971.03 593.20 836.33 689.60 982.70 706.97
00028667 00000106 623.25 190.32 470.78 679.42 836.03 430.56 1022.95 448.31 962.01 585.59 832.23 685.95 979.67 699.52
00028668 00000107 620.45 202.22 469.56 662.43 826.35 424.87 1014.73 440.46 954.92 577.28 826.37 679.25 979.51 690.95
00028669 00000108 622.17 204.57 470.18 660.31 831.11 421.80 1017.67 439.92 957.46 575.76 828.25 676.96 978.85 690.76
00028670 00000109 625.65 206.19 472.97 658.76 839.58 424.19 1027.90 443.52 967.95 578.15 835.02 678.87 986.21 693.98
00028671 00000110 636.45 205.67 471.06 657.21 851.12 428.91 1036.94 449.45 976.57 585.57 843.71 679.96 992.85 695.98
00028672 00000111 642.67 210.48 466.84 648.72 854.44 433.72 1039.06 453.56 978.83 585.95 844.90 677.67 998.26 693.02
00028673 00000112 638.29 218.48 469.92 639.27 849.57 434.74 1035.88 450.33 976.83 586.83 836.59 676.03 997.09 688.57
00028674 00000113 627.56 200.11 472.39 655.89 843.78 431.70 1029.12 447.09 969.26 582.09 825.46 670.16 987.19 682.19
00028675 00000114 625.70 198.44 466.49 648.07 821.81 429.05 1017.82 444.02 952.81 573.66 816.33 662.27 978.33 676.46
00028676 00000115 621.38 198.23 461.48 642.79 811.24 426.93 1006.67 442.17 942.97 572.84 804.83 654.66 970.20 669.28
00028677 00000116 618.39 198.82 458.77 639.05 808.17 425.08 1002.22 440.86 939.92 573.36 799.79 652.95 964.39 668.13
00028678 00000117 612.55 225.25 470.26 632.42 804.92 419.18 1007.53 432.37 943.13 573.81 789.91 654.74 972.03 666.07
00028679 00000118 611.69 225.60 471.14 632.98 804.70 419.60 1007.68 432.71 942.84 574.48 789.78 655.68 971.85 666.85
00028680 00000119 615.64 193.66 457.29 643.21 806.68 427.62 999.71 442.72 938.42 573.87 794.12 650.79 960.15 665.74
00028681 00000120 617.10 191.61 454.84 640.00 805.76 431.37 999.50 445.27 937.04 573.55 794.16 650.32 960.63 664.36
00028682 00000121 610.95 211.20 459.43 630.26 799.74 431.22 998.82 434.65 939.07 573.21 794.14 660.22 975.11 663.20
00028683 00000122 619.28 192.42 452.67 630.54 807.67 430.44 1001.02 443.35 940.41 570.45 798.83 650.71 960.94 664.48
00028684 00000123 619.87 191.47 452.55 630.60 811.36 431.57 1001.66 443.18 942.28 571.46 801.87 650.43 961.18 663.32
00028685 00000124 621.35 202.19 450.31 622.77 811.15 431.92 1000.95 445.50 940.61 574.01 801.03 651.14 960.30 665.83
00028686 00000125 620.66 202.66 450.06 628.23 811.76 433.88 998.77 447.94 938.72 577.92 799.21 650.87 959.73 665.86
00028687 00000126 620.15 208.08 451.49 620.17 810.61 433.99 998.06 448.65 936.93 578.60 796.39 649.74 956.69 665.48
00028688 00000127 616.82 210.55 456.10 615.32 805.96 427.61 997.45 445.85 933.11 573.03 789.89 647.58 951.93 665.91
00028689 DELETE   611.33 212.91 467.41 618.70 796.56 418.48 992.97 447.21 911.39 564.26 775.79 643.74 940.58 669.61
00028690 DELETE   608.02 246.99 465.79 596.63 791.73 400.74 983.33 442.65 894.74 557.42 753.87 633.37 922.30 668.71
00028691 DELETE   603.21 218.45 466.52 632.05 779.98 408.32 967.65 455.01 866.95 557.22 726.66 633.01 905.83 672.37
00028692 00000131 607.05 221.64 465.12 629.52 775.27 410.84 962.88 459.54 852.37 560.52 718.51 634.86 900.00 675.80
00028693 00000132 612.10 249.02 471.72 603.28 776.74 404.83 974.15 462.93 855.31 566.25 724.54 637.36 900.14 686.83
00028694 00000133 613.02 246.01 475.01 616.42 769.93 421.72 965.49 470.48 850.92 570.63 727.58 648.14 902.05 689.72
00028695 00000134 618.48 243.89 473.35 622.86 773.34 427.19 970.13 472.28 854.16 575.64 731.24 654.43 908.43 693.00
00028696 00000135 625.35 247.12 471.83 621.70 778.79 429.62 977.76 473.03 858.40 580.55 736.69 660.71 914.50 698.16
00028697 00000136 628.69 247.03 475.23 620.18 784.77 430.83 985.39 475.26 864.06 582.20 742.06 662.00 920.31 700.02
00028698 00000137 634.44 245.47 475.89 615.76 790.37 433.39 991.12 478.03 869.79 583.75 746.61 661.38 925.71 699.43
00028699 00000138 640.09 247.56 477.23 604.63 793.94 432.69 997.75 478.06 873.00 584.27 750.33 657.87 930.65 696.44
00028700 00000139 643.45 246.50 477.20 601.29 797.08 432.17 1001.93 478.07 876.37 583.26 752.91 656.32 935.15 695.40
00028701 00000140 645.22 247.09 476.25 598.03 797.78 431.28 1003.49 476.96 877.77 582.06 755.51 656.06 936.30 694.85
00028702 00000141 646.25 245.60 475.71 597.37 798.97 430.64 1004.74 475.91 879.20 581.00 756.67 655.28 937.67 693.80
00028703 00000142 645.79 249.39 473.75 592.29 799.11 432.18 1003.79 477.57 879.77 580.68 756.52 653.80 937.42 692.45
00028704 00000143 645.82 238.09 471.20 600.71 801.61 436.78 1001.35 481.34 882.92 577.88 760.83 654.56 936.88 692.14
00028705 00000144 646.26 237.10 469.12 604.06 803.04 435.38 1000.82 476.88 885.07 574.85 765.67 657.82 936.74 692.82
00028706 00000145 646.76 236.10 468.92 607.75 804.36 432.63 1003.37 470.84 889.65 570.07 769.34 659.58 938.95 691.96
00028707 00000146 648.98 238.04 465.61 602.10 804.12 423.47 1009.64 457.19 899.97 561.99 776.57 659.79 944.03 688.09
00028708 00000147 651.72 219.40 457.76 617.13 810.45 416.04 1014.58 449.28 914.06 555.32 785.69 657.57 949.53 685.04
00028709 00000148 651.86 207.60 452.60 622.23 816.39 403.26 1016.98 436.85 921.01 548.15 792.75 650.87 952.59 678.52
00028710 00000149 651.08 206.18 443.72 617.04 820.02 396.76 1019.21 428.48 929.47 539.78 800.94 646.74 957.44 672.64
00028711 00000150 646.54 206.52 446.99 612.74 818.74 386.05 1019.51 417.33 932.92 530.49 805.98 641.97 960.77 667.03
00028712 00000151 634.84 191.88 457.63 627.27 807.36 386.88 1011.87 411.54 935.66 517.41 805.28 642.71 963.47 662.35
00028713 00000152 625.92 189.86 461.85 626.14 803.90 384.15 1006.00 407.21 934.25 517.24 806.00 642.68 957.74 661.04
00028714 00000153 619.07 190.58 463.57 623.54 801.44 381.85 999.21 404.55 932.01 512.84 807.36 640.21 953.25 658.32
00028715 00000154 610.84 188.10 462.90 623.49 799.23 379.19 993.97 400.55 929.27 514.76 807.65 637.38 950.08 654.41
00028716 00000155 606.57 184.64 459.42 625.39 794.69 376.39 988.44 397.31 925.01 513.80 804.45 637.03 944.18 653.49
00028717 00000156 599.01 169.76 461.00 635.90 790.30 376.39 985.97 397.17 920.46 514.11 800.66 630.07 944.49 646.42
00028718 00000157 593.28 149.61 459.83 648.27 780.63 379.54 980.46 393.73 915.04 507.01 792.16 625.96 948.10 637.06
00028719 00000158 589.00 149.53 461.03 647.31 775.36 378.71 976.13 393.04 910.00 505.85 785.86 623.24 944.12 634.41
00028720 00000159 585.96 152.73 462.79 643.09 770.02 375.38 973.37 391.40 905.55 504.24 777.83 619.44 942.45 632.14
00028721 00000160 584.59 150.64 462.21 644.96 768.32 372.63 970.99 391.88 902.68 501.00 772.51 615.70 939.55 631.17
00028722 00000161 582.17 151.18 464.96 642.54 766.23 370.14 970.47 390.19 901.64 498.05 770.64 612.05 940.11 628.06
00028723 00000162 582.29 153.38 464.16 637.31 765.08 367.65 970.83 387.25 902.58 492.48 774.96 609.66 943.05 625.12
00028724 00000163 589.09 150.89 457.96 635.86 767.74 365.45 972.05 378.49 908.78 488.74 782.06 606.15 953.43 616.21
00028725 00000164 594.35 142.66 456.85 629.14 777.48 357.15 981.27 366.47 921.93 479.19 804.93 600.39 966.24 606.31
00028726 00000165 602.86 137.85 455.88 616.03 792.73 349.56 993.50 358.76 933.10 472.05 819.20 591.53 974.78 597.48
00028727 00000166 611.68 139.71 455.87 600.12 802.59 334.42 1001.05 348.55 945.16 454.70 822.10 577.87 978.32 588.73
00028728 00000167 621.12 131.94 453.52 594.03 812.43 327.18 1010.52 341.79 954.10 444.43 827.16 566.40 986.24 577.82
CROP_BBOX: 231 0 1414 1080
