Video ID: 	CyknsUm1-Rw
H: 	2160
W: 	3840
FPS: 	25.0

FRAME INDEX X0 Y0 W H [Landmarks (5 Points)]

00016764 00000000 1354.13 168.14 1250.89 1675.50 1703.44 843.84 2286.57 830.61 2019.75 1159.63 1778.09 1437.11 2248.50 1421.71
00016765 00000001 1370.23 174.59 1258.23 1667.18 1726.12 832.81 2316.82 821.21 2059.64 1160.77 1797.02 1430.80 2279.99 1419.37
00016766 00000002 1372.93 171.32 1264.15 1683.38 1745.29 831.84 2329.37 823.77 2081.80 1153.73 1808.20 1431.00 2292.76 1422.58
00016767 00000003 1379.55 168.29 1268.75 1689.52 1765.65 827.86 2345.02 825.69 2104.34 1148.16 1820.13 1430.27 2302.25 1426.95
00016768 00000004 1385.53 183.59 1273.66 1695.28 1781.58 826.50 2359.73 830.66 2121.78 1147.45 1828.66 1433.66 2318.38 1434.93
00016769 00000005 1390.64 183.82 1273.68 1712.42 1786.70 827.57 2363.98 832.13 2126.57 1146.49 1830.67 1436.88 2327.81 1438.46
00016770 00000006 1390.23 182.56 1266.41 1712.58 1778.87 828.51 2353.13 830.37 2116.27 1144.49 1823.34 1431.54 2325.25 1430.69
00016771 00000007 1386.03 174.83 1267.68 1719.37 1771.67 828.60 2349.09 828.65 2110.08 1144.26 1815.62 1429.72 2324.55 1427.43
00016772 DELETE   1392.20 178.05 1271.90 1718.76 1780.51 834.86 2358.42 833.19 2120.35 1148.19 1827.54 1431.45 2337.64 1427.36
00016773 00000009 1412.25 190.28 1284.17 1696.21 1810.45 848.83 2389.46 837.30 2154.13 1167.05 1863.57 1439.03 2364.85 1428.21
00016774 DELETE   1418.76 213.81 1286.81 1641.27 1841.51 876.92 2425.33 856.58 2192.29 1176.66 1898.38 1449.83 2379.90 1430.96
00016775 DELETE   1429.03 211.26 1283.20 1649.30 1823.76 877.79 2401.70 855.37 2163.65 1182.72 1890.83 1451.44 2366.91 1432.88
00016776 DELETE   1414.35 210.55 1281.78 1649.43 1789.95 877.53 2377.20 861.89 2119.96 1184.59 1852.25 1453.55 2337.55 1439.87
00016777 00000013 1393.21 214.00 1275.51 1650.04 1759.95 881.87 2349.08 861.13 2092.22 1192.03 1830.52 1461.38 2317.87 1442.02
00016778 00000014 1392.73 214.56 1273.42 1652.41 1756.94 884.67 2347.69 862.69 2092.08 1195.52 1831.54 1470.85 2319.10 1450.27
00016779 00000015 1402.23 218.72 1277.55 1651.25 1777.14 889.11 2361.30 869.03 2111.75 1197.12 1847.54 1470.74 2331.04 1452.20
00016780 00000016 1414.82 227.13 1283.14 1647.24 1798.77 896.35 2381.23 874.76 2133.47 1205.76 1873.41 1479.58 2343.41 1461.07
00016781 00000017 1424.83 230.35 1282.35 1644.01 1810.31 897.37 2390.40 875.77 2142.62 1213.32 1885.95 1484.60 2344.53 1467.23
00016782 00000018 1427.43 232.13 1277.65 1627.98 1808.98 895.24 2390.21 875.38 2139.40 1209.95 1883.59 1479.41 2338.60 1463.51
00016783 00000019 1422.54 225.16 1276.76 1629.59 1797.55 888.10 2383.88 872.49 2127.22 1205.79 1872.30 1477.78 2328.92 1465.23
00016784 00000020 1421.41 222.54 1274.01 1630.93 1787.43 880.19 2377.63 866.61 2116.83 1206.63 1864.94 1477.52 2323.14 1466.68
00016785 00000021 1425.62 225.67 1279.86 1631.69 1794.81 879.13 2386.04 869.52 2122.01 1210.16 1868.01 1478.80 2326.03 1471.65
00016786 00000022 1436.10 232.07 1284.24 1626.36 1809.95 888.69 2398.22 878.75 2134.97 1219.72 1882.03 1486.03 2334.23 1478.98
00016787 00000023 1442.95 244.13 1286.09 1620.26 1819.03 903.90 2405.37 889.13 2146.35 1237.16 1893.37 1496.73 2347.58 1485.60
00016788 00000024 1446.43 253.36 1281.03 1601.75 1819.17 909.95 2404.17 893.90 2144.45 1244.10 1893.61 1496.19 2344.09 1484.26
00016789 00000025 1454.90 250.32 1247.41 1600.98 1822.08 913.40 2403.68 903.80 2136.49 1226.15 1899.38 1488.29 2348.88 1477.26
00016790 00000026 1443.91 245.39 1277.68 1611.36 1811.13 907.34 2398.11 891.86 2135.11 1235.30 1887.75 1496.30 2340.06 1484.48
00016791 00000027 1439.98 240.42 1281.37 1645.13 1809.42 902.19 2395.57 890.76 2131.85 1226.51 1880.03 1499.40 2341.75 1490.91
00016792 00000028 1437.62 235.56 1279.72 1672.50 1804.74 897.08 2392.08 889.71 2126.21 1219.18 1868.57 1501.53 2342.55 1495.47
00016793 00000029 1431.24 234.63 1277.83 1683.28 1795.97 897.17 2386.22 889.94 2119.99 1218.55 1856.18 1501.20 2344.60 1494.41
00016794 00000030 1425.19 239.13 1277.68 1677.69 1785.44 901.85 2377.48 892.96 2110.46 1226.70 1843.51 1499.59 2344.47 1490.09
00016795 00000031 1424.34 246.27 1276.46 1654.20 1778.85 907.28 2372.86 893.49 2105.25 1234.30 1845.53 1499.66 2343.49 1485.98
00016796 00000032 1423.38 255.19 1278.68 1625.64 1778.04 913.19 2372.17 893.69 2105.86 1241.35 1854.98 1498.46 2340.71 1480.63
00016797 00000033 1420.21 263.58 1280.76 1611.49 1778.26 918.14 2370.40 896.86 2105.73 1244.75 1854.35 1496.23 2338.76 1476.87
00016798 00000034 1418.23 263.40 1275.18 1609.92 1774.80 919.42 2365.48 897.14 2102.61 1246.43 1848.92 1495.84 2335.23 1475.26
00016799 00000035 1417.99 262.80 1267.74 1613.51 1772.33 922.56 2359.20 901.76 2097.72 1247.02 1842.22 1497.56 2330.50 1477.71
00016800 00000036 1412.64 255.61 1262.17 1624.97 1765.23 930.07 2344.24 909.54 2086.12 1246.83 1836.92 1501.18 2317.71 1480.36
00016801 00000037 1409.44 253.47 1256.62 1634.21 1759.22 933.72 2335.70 910.91 2079.85 1245.10 1831.78 1503.04 2312.54 1479.43
00016802 00000038 1406.16 254.62 1266.20 1652.46 1755.89 919.17 2338.84 896.16 2081.30 1239.34 1831.25 1509.45 2316.75 1485.95
00016803 00000039 1411.46 257.61 1256.67 1659.68 1759.03 908.57 2340.58 887.51 2085.78 1236.42 1834.63 1513.25 2316.22 1492.35
00016804 00000040 1416.39 262.84 1255.08 1652.01 1760.98 907.33 2344.19 885.47 2089.85 1238.04 1837.61 1511.17 2324.92 1489.56
00016805 00000041 1418.48 266.82 1257.79 1633.31 1759.57 906.96 2348.25 883.49 2091.03 1244.02 1838.70 1505.27 2331.78 1482.37
00016806 00000042 1420.65 270.74 1257.10 1621.84 1759.12 905.99 2348.99 883.54 2088.40 1245.28 1835.89 1501.18 2329.62 1479.28
00016807 00000043 1420.37 267.85 1255.21 1621.58 1754.33 900.32 2346.57 878.26 2082.59 1247.99 1830.84 1501.78 2322.17 1480.62
00016808 00000044 1418.59 266.28 1257.07 1622.42 1749.67 888.70 2342.85 866.33 2078.74 1247.86 1829.84 1497.28 2317.60 1475.91
00016809 00000045 1416.40 264.10 1261.01 1619.72 1743.17 874.76 2341.35 851.89 2076.54 1245.20 1832.19 1494.09 2317.19 1472.73
00016810 00000046 1417.16 264.59 1260.69 1617.23 1742.93 866.71 2341.13 844.93 2076.77 1242.84 1833.80 1488.95 2318.06 1468.57
00016811 00000047 1416.19 267.35 1265.35 1612.05 1743.76 860.03 2343.01 840.96 2076.84 1236.61 1836.86 1483.68 2318.87 1465.60
00016812 00000048 1416.63 270.38 1266.78 1604.07 1742.72 853.90 2342.16 835.00 2075.26 1232.94 1839.27 1478.48 2318.46 1460.85
00016813 00000049 1416.21 262.24 1268.35 1605.96 1742.01 850.92 2343.12 832.65 2074.58 1226.48 1837.66 1474.81 2317.39 1457.85
00016814 00000050 1416.98 258.93 1268.65 1605.90 1742.92 847.16 2343.34 829.65 2074.35 1223.15 1838.35 1472.06 2314.60 1455.94
00016815 00000051 1419.22 262.10 1266.99 1600.14 1745.27 846.05 2345.10 828.91 2076.43 1222.23 1840.12 1470.79 2315.01 1454.93
00016816 00000052 1419.52 259.50 1266.08 1600.77 1745.48 843.91 2344.24 826.72 2076.00 1218.96 1840.28 1467.36 2314.84 1451.56
00016817 00000053 1420.42 253.53 1263.40 1602.72 1745.68 841.87 2344.14 824.71 2076.16 1214.27 1839.61 1464.27 2314.95 1448.64
00016818 00000054 1422.29 258.76 1261.81 1596.50 1748.25 843.66 2344.80 829.32 2074.84 1213.04 1837.00 1462.26 2314.34 1448.97
00016819 00000055 1422.09 255.65 1254.16 1595.89 1750.96 854.04 2344.73 836.73 2081.10 1208.47 1836.80 1462.50 2320.47 1446.17
00016820 00000056 1421.42 248.19 1256.05 1599.59 1750.31 850.78 2345.55 834.40 2079.73 1207.19 1834.62 1460.75 2317.78 1445.54
00016821 00000057 1419.41 245.45 1255.81 1588.67 1744.72 848.79 2344.37 833.51 2072.62 1205.87 1830.16 1456.04 2308.44 1442.13
00016822 00000058 1414.96 246.69 1254.39 1581.03 1738.34 848.08 2337.97 833.68 2061.66 1206.57 1819.81 1447.60 2295.84 1434.48
00016823 00000059 1415.06 239.27 1247.99 1581.17 1745.34 865.40 2333.33 848.68 2060.79 1200.51 1818.56 1443.91 2288.63 1428.97
00016824 00000060 1411.61 225.68 1248.30 1592.05 1748.23 881.22 2328.51 867.92 2057.47 1193.31 1810.63 1442.70 2282.82 1429.31
00016825 00000061 1420.60 221.76 1246.38 1601.09 1759.41 881.29 2337.58 868.38 2068.02 1192.48 1819.10 1444.53 2293.35 1431.72
00016826 00000062 1429.45 230.48 1257.16 1591.89 1779.55 885.48 2360.18 877.10 2091.53 1199.01 1840.51 1449.06 2313.01 1440.65
00016827 00000063 1442.64 244.59 1267.96 1588.73 1807.58 902.60 2391.93 892.44 2126.45 1222.82 1869.11 1466.32 2341.64 1457.91
00016828 00000064 1464.01 252.73 1235.93 1590.47 1836.47 917.31 2407.74 913.18 2146.96 1232.45 1897.76 1474.99 2355.98 1468.37
00016829 00000065 1457.98 271.54 1254.59 1601.66 1825.88 935.22 2409.45 919.19 2149.75 1269.41 1892.78 1505.01 2355.13 1488.04
00016830 00000066 1459.39 295.21 1253.57 1576.00 1818.29 942.52 2408.30 936.51 2133.67 1282.01 1876.99 1510.01 2347.30 1501.22
00016831 00000067 1462.30 295.76 1250.54 1574.53 1817.19 945.74 2408.52 941.37 2131.35 1287.55 1873.74 1512.48 2346.76 1505.07
00016832 00000068 1463.59 291.09 1252.59 1580.68 1824.31 942.90 2413.21 936.34 2141.51 1284.71 1883.71 1511.56 2352.13 1502.44
00016833 00000069 1463.52 288.99 1254.21 1586.71 1830.93 941.09 2416.72 930.37 2152.80 1278.96 1895.83 1511.61 2358.44 1498.95
00016834 00000070 1461.75 284.70 1254.93 1594.07 1831.83 940.11 2416.70 928.07 2155.54 1276.04 1896.41 1511.11 2360.02 1497.40
00016835 00000071 1462.09 284.74 1252.61 1595.41 1826.28 937.50 2414.17 928.18 2149.99 1274.57 1890.10 1515.78 2356.89 1504.22
00016836 00000072 1460.97 286.29 1251.24 1605.38 1823.22 935.62 2410.35 928.72 2145.51 1273.28 1887.59 1519.94 2353.39 1510.44
00016837 00000073 1460.34 282.72 1250.39 1615.35 1822.34 935.50 2408.22 930.66 2142.28 1270.01 1882.18 1517.71 2352.01 1509.68
00016838 00000074 1457.74 283.15 1252.12 1629.22 1820.30 933.59 2406.52 932.07 2137.79 1267.95 1873.22 1516.13 2351.40 1510.78
00016839 00000075 1450.07 293.30 1272.88 1613.63 1819.22 934.12 2405.20 932.65 2133.63 1269.20 1864.62 1509.88 2351.67 1508.58
00016840 00000076 1448.89 289.21 1265.41 1604.32 1808.56 938.01 2395.50 939.37 2120.20 1267.73 1850.81 1499.96 2347.02 1500.39
00016841 00000077 1441.01 282.35 1255.28 1602.23 1780.46 936.42 2365.03 937.27 2085.71 1258.22 1824.45 1497.99 2325.53 1495.45
00016842 DELETE   1430.51 262.34 1246.19 1647.67 1744.67 926.28 2322.53 936.39 2031.19 1256.28 1781.90 1496.15 2286.38 1499.79
00016843 00000079 1412.44 261.88 1246.61 1677.43 1725.24 918.34 2297.10 944.02 1991.47 1268.19 1744.61 1505.42 2233.09 1523.26
00016844 00000080 1409.06 275.13 1248.37 1688.77 1705.57 923.41 2281.56 954.83 1960.25 1276.79 1721.92 1515.12 2216.55 1537.22
00016845 00000081 1412.05 279.64 1244.80 1686.21 1708.48 933.73 2279.09 970.07 1956.72 1283.19 1721.87 1520.93 2208.56 1546.88
00016846 00000082 1414.64 287.97 1267.27 1697.12 1725.72 927.92 2300.93 968.54 1966.49 1280.65 1733.74 1519.48 2218.57 1552.51
00016847 00000083 1432.20 298.65 1265.81 1710.80 1742.61 938.91 2323.30 970.00 1989.97 1293.63 1752.19 1545.12 2240.89 1570.27
00016848 00000084 1464.92 331.36 1234.67 1657.87 1751.12 958.10 2334.04 977.60 2010.52 1324.92 1785.03 1561.80 2262.24 1578.12
00016849 00000085 1472.04 346.91 1237.84 1654.70 1759.97 967.71 2347.30 990.06 2021.96 1336.54 1791.47 1572.30 2272.99 1590.97
00016850 00000086 1480.28 344.76 1239.18 1653.46 1766.17 967.92 2355.66 990.67 2030.49 1341.41 1800.34 1574.44 2281.64 1593.14
00016851 00000087 1486.28 347.67 1243.29 1648.26 1775.34 961.19 2367.24 988.31 2041.94 1336.66 1807.80 1568.95 2290.40 1591.08
00016852 00000088 1497.67 339.72 1243.59 1634.97 1792.66 957.87 2387.29 988.05 2065.29 1334.09 1825.21 1565.30 2301.88 1590.60
00016853 00000089 1500.09 335.44 1254.35 1639.29 1815.09 962.45 2404.21 1000.63 2085.21 1321.52 1841.06 1567.12 2311.74 1595.99
00016854 00000090 1515.13 339.13 1249.17 1625.86 1837.93 969.22 2423.57 1001.47 2114.97 1333.85 1867.48 1567.41 2334.60 1592.01
00016855 00000091 1522.89 346.86 1247.68 1623.31 1859.68 976.20 2441.31 1009.87 2137.91 1339.59 1878.14 1571.61 2347.67 1597.76
00016856 00000092 1529.10 332.25 1246.11 1628.59 1869.40 986.13 2436.72 1024.38 2135.02 1341.78 1881.24 1565.82 2338.82 1595.92
00016857 00000093 1527.56 319.39 1240.05 1627.59 1863.21 982.13 2424.35 1019.41 2122.69 1332.20 1879.55 1557.21 2326.89 1586.23
00016858 00000094 1523.84 305.98 1238.78 1643.21 1853.27 964.45 2418.37 1000.07 2117.61 1322.85 1878.03 1551.87 2326.18 1578.97
00016859 00000095 1524.05 305.73 1239.60 1664.54 1855.75 961.68 2423.19 994.06 2125.98 1316.20 1880.39 1555.64 2338.27 1579.97
00016860 00000096 1530.05 314.53 1244.76 1674.12 1862.30 964.87 2439.13 994.23 2138.85 1316.42 1881.71 1561.71 2358.24 1583.77
00016861 00000097 1540.66 319.30 1251.06 1649.76 1871.59 956.90 2460.79 986.77 2158.97 1326.35 1887.92 1556.24 2372.28 1580.87
00016862 00000098 1546.41 313.68 1250.27 1661.02 1880.10 958.57 2469.63 991.84 2169.94 1325.61 1887.39 1556.45 2382.80 1583.87
00016863 00000099 1551.60 315.33 1253.38 1661.58 1885.00 962.52 2477.49 998.03 2173.77 1330.10 1890.45 1557.22 2390.69 1586.50
00016864 00000100 1557.05 327.90 1254.99 1645.48 1888.05 964.71 2482.30 1002.88 2174.14 1333.25 1893.44 1556.72 2392.74 1588.10
00016865 00000101 1562.62 334.23 1253.05 1629.57 1894.27 964.33 2486.53 1003.47 2177.29 1333.27 1895.81 1551.18 2392.72 1583.69
00016866 00000102 1565.34 338.41 1254.92 1624.52 1898.35 960.85 2489.45 998.63 2182.12 1330.27 1898.75 1547.17 2397.59 1578.74
00016867 00000103 1569.53 329.60 1257.32 1634.82 1903.53 955.96 2493.74 992.14 2189.38 1321.70 1907.19 1548.72 2403.06 1579.38
00016868 00000104 1572.35 332.18 1260.48 1631.83 1909.58 949.30 2495.37 985.38 2194.08 1311.75 1916.27 1545.69 2402.45 1576.34
00016869 00000105 1572.61 319.28 1258.77 1641.26 1917.74 939.39 2499.70 978.05 2203.58 1299.73 1921.85 1535.64 2406.01 1568.58
00016870 00000106 1572.90 324.07 1255.63 1640.00 1925.12 927.80 2506.47 970.85 2209.06 1277.21 1926.55 1531.15 2412.25 1565.76
00016871 00000107 1566.62 300.01 1264.08 1648.95 1926.24 917.90 2506.68 959.10 2213.73 1265.08 1930.19 1520.10 2415.11 1552.48
00016872 00000108 1566.96 288.16 1260.29 1643.51 1924.52 909.46 2503.05 947.11 2212.78 1256.43 1931.18 1509.38 2415.24 1538.87
00016873 00000109 1570.09 288.92 1247.36 1606.46 1918.22 906.86 2500.54 937.19 2211.68 1258.08 1935.13 1502.40 2415.09 1525.92
00016874 00000110 1561.79 277.05 1248.52 1598.40 1913.85 904.77 2494.22 924.88 2210.10 1255.13 1947.42 1501.11 2406.17 1516.66
CROP_BBOX: 706 0 3307 2160
