Video ID: 	qsWFDFkpAnw
H: 	2160
W: 	3840
FPS: 	23.976023976023978

FRAME INDEX X0 Y0 W H [Landmarks (5 Points)]

00015422 00000000 1549.65 480.72 496.28 659.28 1635.73 779.99 1853.54 745.97 1735.45 900.66 1690.40 982.21 1890.46 952.28
00015423 DELETE   1545.26 482.00 496.84 657.39 1629.82 782.52 1849.18 745.85 1731.51 903.72 1686.31 985.10 1889.62 953.08
00015424 DELETE   1541.84 484.47 497.85 654.46 1625.28 783.08 1845.84 744.77 1728.07 904.81 1683.05 986.70 1888.95 953.18
00015425 00000003 1578.77 271.74 474.31 619.52 1665.61 560.79 1887.92 498.74 1779.57 604.19 1723.95 756.01 1914.70 705.48
00015426 00000004 1575.25 277.97 478.88 626.80 1663.11 566.45 1888.64 504.71 1778.38 613.16 1723.19 766.46 1914.38 716.61
00015427 00000005 1565.88 280.58 487.63 632.71 1656.19 571.35 1884.94 509.76 1772.48 619.91 1715.64 774.85 1910.28 725.75
00015428 00000006 1557.88 275.37 489.97 654.30 1647.75 573.27 1879.51 510.67 1768.59 622.96 1709.03 783.98 1910.98 735.04
00015429 00000007 1551.45 275.29 492.91 665.16 1641.71 576.87 1874.77 514.25 1763.19 631.90 1696.13 785.55 1912.56 736.08
00015430 00000008 1544.84 282.45 498.64 653.19 1637.86 580.69 1862.59 520.76 1756.12 639.09 1688.54 786.96 1908.50 738.63
00015431 00000009 1537.46 288.45 505.29 653.67 1633.70 585.18 1859.55 524.33 1754.04 644.48 1683.51 791.58 1907.88 741.71
00015432 00000010 1534.84 294.92 507.97 654.75 1631.67 590.04 1859.82 528.66 1753.58 652.98 1682.19 798.72 1908.37 748.36
00015433 00000011 1532.98 299.48 512.08 654.64 1631.95 593.68 1862.42 533.68 1755.11 659.33 1684.78 804.72 1907.42 756.06
00015434 00000012 1534.57 302.86 512.31 655.99 1633.89 597.10 1865.38 540.12 1755.95 667.66 1684.93 809.04 1907.53 763.19
00015435 00000013 1539.98 302.83 507.14 661.04 1637.60 603.10 1868.26 545.72 1758.70 673.63 1688.07 813.49 1909.19 767.51
00015436 00000014 1544.39 306.79 504.17 663.95 1640.54 610.21 1871.44 551.18 1761.02 679.09 1690.59 817.97 1912.64 770.28
00015437 00000015 1548.54 309.02 503.66 665.62 1644.11 613.14 1875.95 555.38 1765.49 684.55 1694.10 819.98 1917.19 773.55
00015438 00000016 1554.39 310.54 499.99 667.50 1648.02 616.80 1880.13 558.89 1768.55 690.11 1696.87 822.38 1923.22 775.86
00015439 00000017 1560.16 314.26 492.76 666.85 1656.53 614.87 1887.22 561.81 1776.35 698.24 1701.00 823.59 1923.98 782.09
00015440 00000018 1563.30 317.38 495.21 677.89 1661.63 618.16 1893.57 562.29 1782.97 698.32 1706.32 831.17 1932.14 786.58
00015441 00000019 1567.86 317.77 494.64 686.21 1664.45 619.80 1897.41 562.48 1784.37 699.63 1708.06 835.88 1937.45 789.70
00015442 00000020 1571.46 320.09 494.44 676.07 1666.90 618.36 1900.73 562.63 1788.49 702.92 1711.44 834.42 1940.51 790.16
00015443 00000021 1573.53 319.74 493.66 672.07 1668.71 617.36 1902.87 562.36 1791.14 703.14 1712.93 831.69 1942.46 787.92
00015444 00000022 1575.22 320.14 495.41 675.62 1670.63 617.22 1904.53 562.51 1791.78 703.11 1715.32 833.29 1944.73 789.64
00015445 00000023 1577.54 320.71 494.71 677.24 1671.29 617.76 1906.77 561.69 1793.15 704.48 1717.36 836.58 1947.67 791.66
00015446 00000024 1578.69 319.59 493.72 674.86 1671.94 618.24 1908.25 561.98 1795.02 706.23 1716.96 834.90 1951.00 789.71
00015447 00000025 1579.26 317.89 494.39 674.38 1672.83 618.62 1909.01 562.71 1796.27 706.53 1717.79 834.61 1950.41 790.03
00015448 00000026 1580.03 319.13 494.15 668.34 1673.68 618.88 1910.54 563.58 1797.54 707.74 1719.45 834.14 1949.82 790.10
00015449 00000027 1579.27 319.53 495.46 663.06 1674.49 618.16 1910.94 564.11 1799.13 708.45 1719.56 830.87 1949.02 787.75
00015450 00000028 1578.99 321.83 493.48 659.24 1674.98 617.49 1911.34 564.98 1799.93 711.10 1719.48 829.45 1947.30 787.24
00015451 00000029 1579.28 320.53 494.70 660.09 1675.15 617.13 1912.16 564.83 1799.45 710.99 1720.84 831.09 1945.58 789.46
00015452 00000030 1580.33 321.70 492.89 659.57 1675.80 617.01 1912.51 565.36 1798.83 711.47 1723.92 833.61 1941.09 792.80
00015453 00000031 1581.92 319.94 492.65 662.76 1676.41 617.41 1914.29 565.48 1798.84 711.56 1728.03 839.07 1937.09 798.62
00015454 00000032 1583.66 320.19 491.61 663.60 1678.28 617.23 1915.84 565.11 1800.14 710.93 1730.29 838.94 1938.12 798.14
00015455 00000033 1585.38 318.53 492.29 664.33 1680.97 616.18 1917.50 564.12 1802.09 708.18 1734.20 838.28 1939.21 797.51
00015456 00000034 1588.28 318.08 491.66 665.57 1683.39 615.13 1918.78 562.92 1803.95 707.67 1737.28 838.58 1941.25 797.55
00015457 00000035 1592.90 318.50 489.47 666.91 1685.80 614.28 1920.78 561.96 1804.77 706.39 1737.65 839.20 1945.73 798.31
00015458 00000036 1594.85 319.69 491.53 662.16 1688.11 613.31 1920.44 561.59 1805.87 706.40 1742.70 838.05 1944.89 797.49
00015459 00000037 1597.10 318.33 493.33 665.54 1689.99 612.35 1922.26 560.89 1807.33 706.07 1740.25 836.08 1950.52 795.93
00015460 00000038 1600.27 317.67 488.95 665.85 1692.83 612.55 1923.84 560.49 1810.31 705.72 1740.91 832.84 1956.48 791.56
00015461 00000039 1601.23 314.48 489.53 667.27 1695.02 612.38 1925.70 560.47 1813.16 705.23 1741.12 829.73 1960.86 788.25
00015462 00000040 1607.53 315.03 486.09 669.27 1698.70 618.09 1929.44 567.74 1813.76 702.89 1741.50 828.45 1965.06 788.62
00015463 00000041 1611.35 320.15 486.60 663.78 1700.77 622.21 1931.52 571.80 1814.93 702.11 1743.62 830.28 1965.74 790.69
00015464 00000042 1613.12 322.06 485.92 661.82 1701.08 622.11 1932.54 572.24 1815.43 704.48 1745.81 832.67 1965.18 793.93
00015465 00000043 1612.33 321.28 488.71 663.86 1700.27 622.65 1932.19 572.94 1813.53 706.00 1747.65 835.27 1961.20 796.85
00015466 00000044 1607.18 324.65 491.72 657.68 1694.60 622.97 1926.16 573.70 1806.62 707.40 1744.74 835.45 1952.79 797.65
00015467 00000045 1598.02 323.71 492.86 658.31 1684.72 624.05 1919.58 573.02 1798.74 706.67 1735.51 836.98 1943.78 797.97
00015468 00000046 1589.71 327.63 491.70 651.80 1676.05 623.59 1910.02 572.90 1789.96 709.37 1729.61 839.17 1931.36 800.24
00015469 00000047 1583.22 320.68 487.31 656.20 1669.96 616.46 1902.43 571.45 1777.09 705.25 1718.76 832.51 1916.55 798.18
00015470 00000048 1577.93 317.24 486.92 652.58 1666.49 607.69 1898.43 573.47 1769.04 698.72 1706.39 823.57 1901.74 797.95
00015471 00000049 1576.21 320.53 488.32 651.12 1666.13 601.39 1897.09 578.08 1763.31 703.18 1698.25 820.58 1890.41 803.57
00015472 00000050 1574.65 323.19 490.62 655.01 1666.81 604.06 1898.78 585.03 1762.24 710.04 1694.60 824.60 1887.19 811.17
00015473 00000051 1575.72 326.45 493.96 658.29 1668.77 608.70 1902.24 589.84 1765.40 714.44 1697.04 830.00 1891.16 817.02
00015474 00000052 1576.65 328.46 496.02 664.96 1669.53 612.89 1903.27 589.81 1767.64 717.61 1701.54 838.91 1897.09 822.69
00015475 00000053 1578.29 332.15 498.74 674.02 1670.76 616.63 1903.69 589.99 1767.81 720.37 1704.99 849.56 1903.06 831.08
00015476 00000054 1577.31 334.55 497.63 667.75 1668.36 616.44 1902.39 590.02 1766.30 721.72 1701.86 847.94 1903.25 829.53
00015477 00000055 1573.69 334.97 497.78 663.62 1665.45 616.30 1898.09 591.21 1763.42 725.11 1699.73 844.89 1897.88 827.24
00015478 00000056 1570.44 339.07 498.45 661.14 1664.36 618.31 1897.44 595.97 1762.46 729.48 1695.89 844.65 1896.23 828.92
00015479 00000057 1574.52 338.67 494.15 661.93 1667.09 617.64 1899.34 595.74 1766.65 733.03 1702.39 855.67 1901.24 839.92
00015480 00000058 1576.31 341.46 495.65 666.68 1669.38 621.55 1900.45 597.32 1769.70 736.18 1708.00 862.20 1903.50 844.69
00015481 00000059 1578.13 340.31 494.09 667.85 1671.71 622.29 1902.22 597.84 1773.28 739.10 1709.89 862.77 1906.46 845.01
00015482 00000060 1579.35 341.59 492.21 663.33 1673.35 623.72 1903.71 599.51 1775.95 740.87 1710.00 860.40 1909.17 842.86
00015483 00000061 1580.71 342.37 491.33 662.38 1674.14 623.12 1903.94 598.68 1775.93 741.09 1710.04 858.55 1910.46 840.70
00015484 00000062 1582.85 342.74 490.99 663.04 1676.95 621.77 1906.99 597.04 1779.43 740.39 1712.78 858.49 1914.36 840.29
00015485 00000063 1583.10 340.64 492.34 661.59 1680.17 619.86 1910.64 595.28 1784.94 739.93 1715.71 853.97 1919.10 835.72
00015486 00000064 1585.47 336.86 492.41 663.87 1683.20 618.14 1914.58 594.02 1788.45 736.95 1716.80 851.43 1923.77 833.68
00015487 00000065 1590.75 334.36 490.79 664.85 1688.91 619.64 1917.74 595.19 1793.74 735.53 1721.13 849.80 1928.59 831.96
00015488 00000066 1600.44 341.02 486.31 658.11 1691.90 629.54 1923.24 602.91 1797.23 733.87 1727.44 850.88 1931.60 831.77
00015489 00000067 1600.97 340.49 484.79 658.41 1691.70 628.85 1923.71 603.44 1796.56 733.12 1730.30 853.02 1925.83 835.00
00015490 00000068 1600.78 335.60 483.46 663.71 1692.80 624.72 1924.81 600.19 1796.37 732.03 1730.89 854.23 1924.83 836.84
00015491 00000069 1602.29 332.36 483.10 672.40 1695.26 620.57 1926.71 596.15 1798.00 730.08 1733.08 857.75 1925.38 840.46
00015492 00000070 1598.46 327.25 484.42 671.21 1692.05 611.88 1924.46 591.15 1792.52 721.57 1725.37 847.91 1920.44 833.59
00015493 00000071 1595.51 322.96 484.11 667.82 1681.93 606.30 1918.38 580.70 1779.24 706.72 1713.85 835.80 1912.83 817.35
00015494 00000072 1591.41 316.50 483.51 662.47 1679.81 596.46 1914.64 574.81 1777.03 698.56 1711.40 824.84 1904.64 808.95
00015495 00000073 1592.92 314.63 483.63 658.92 1682.73 590.61 1916.19 570.20 1781.00 691.38 1714.42 820.37 1905.37 805.27
00015496 00000074 1594.36 310.65 483.20 659.06 1683.07 588.19 1915.66 567.22 1780.57 686.03 1715.10 818.08 1905.12 802.62
00015497 00000075 1587.75 306.11 485.89 656.73 1681.20 582.21 1913.67 562.91 1779.46 676.75 1713.56 811.40 1900.64 797.11
00015498 00000076 1582.73 302.09 487.83 660.08 1678.92 577.27 1912.93 558.76 1778.86 670.72 1713.46 807.09 1899.03 793.19
00015499 00000077 1576.81 297.98 489.81 666.15 1675.66 572.72 1908.40 554.50 1775.47 663.30 1712.58 806.58 1894.13 793.01
00015500 00000078 1573.81 301.02 488.64 678.00 1673.15 577.24 1904.12 556.84 1771.79 664.06 1713.13 815.31 1890.19 799.85
00015501 00000079 1574.77 305.24 488.97 672.84 1670.41 585.27 1903.54 560.66 1770.71 670.70 1714.39 822.06 1892.13 803.47
00015502 00000080 1580.71 300.33 486.53 669.05 1675.88 578.93 1909.16 557.19 1776.46 666.12 1714.52 817.33 1897.76 801.46
00015503 00000081 1589.64 289.29 484.43 662.83 1685.63 564.10 1916.22 545.07 1783.83 654.13 1718.29 797.77 1906.34 784.53
00015504 00000082 1595.26 268.04 480.69 664.22 1692.67 552.26 1926.27 534.27 1789.57 628.57 1715.95 773.98 1908.74 762.27
00015505 00000083 1597.69 259.87 482.61 669.17 1698.08 546.66 1931.54 530.85 1795.41 626.62 1718.95 765.33 1914.62 755.44
00015506 00000084 1602.29 274.95 483.12 672.42 1702.82 556.44 1936.22 541.07 1800.55 640.19 1726.48 782.66 1916.04 773.13
00015507 00000085 1615.83 291.90 478.34 675.56 1709.37 569.60 1937.26 553.28 1806.83 664.27 1736.70 803.72 1927.84 792.42
00015508 00000086 1612.65 299.65 480.92 672.77 1708.82 577.52 1938.04 559.80 1809.12 677.11 1734.32 808.73 1932.52 795.76
00015509 00000087 1608.31 301.44 480.92 662.90 1705.56 578.33 1935.20 560.61 1807.29 680.18 1731.31 804.92 1927.78 791.77
00015510 00000088 1608.00 302.92 477.54 659.27 1704.41 580.06 1933.07 561.68 1805.50 684.04 1730.58 805.15 1925.25 791.28
00015511 00000089 1608.32 306.40 476.74 662.56 1703.99 582.96 1932.79 565.37 1805.27 690.78 1729.83 810.50 1923.64 797.13
00015512 00000090 1606.66 307.02 476.20 664.35 1701.35 585.00 1930.94 566.73 1803.16 693.56 1728.72 814.56 1921.65 800.69
00015513 00000091 1602.27 306.56 478.98 666.38 1699.37 584.58 1930.56 565.94 1802.27 693.15 1727.34 814.46 1920.56 800.31
00015514 00000092 1598.92 308.08 480.94 667.20 1698.05 585.99 1930.57 567.31 1802.17 694.50 1725.25 815.06 1921.12 800.92
00015515 00000093 1598.14 307.40 480.95 664.80 1697.21 585.84 1929.82 567.76 1801.39 695.73 1725.30 813.39 1919.59 799.60
00015516 00000094 1598.90 307.62 479.85 664.08 1697.09 586.14 1928.80 568.45 1800.31 697.36 1725.99 812.33 1918.20 798.66
00015517 00000095 1599.63 308.03 480.47 667.16 1696.99 587.11 1928.86 568.15 1800.40 698.28 1728.63 817.17 1919.28 802.50
00015518 00000096 1601.04 308.04 481.57 670.16 1696.94 588.40 1928.45 567.91 1799.71 698.64 1731.60 821.47 1919.45 805.58
00015519 00000097 1599.99 309.54 484.68 670.76 1697.62 589.37 1929.36 567.42 1801.23 698.45 1732.79 821.10 1922.59 803.85
00015520 00000098 1603.07 309.34 483.10 670.69 1701.25 590.57 1931.79 568.29 1805.33 700.07 1734.89 820.07 1927.74 802.62
00015521 00000099 1607.48 310.28 481.42 669.83 1704.81 590.87 1934.68 568.88 1808.42 700.66 1736.45 819.36 1933.21 802.14
00015522 00000100 1608.82 312.71 481.51 667.11 1707.44 591.15 1936.38 569.03 1812.08 701.22 1737.16 819.23 1937.48 801.90
00015523 00000101 1610.25 312.35 480.40 666.00 1708.82 591.40 1939.00 569.23 1814.74 700.61 1736.40 818.03 1942.60 800.75
00015524 00000102 1615.32 313.59 476.23 660.21 1710.07 596.31 1939.28 572.40 1815.20 700.57 1738.32 817.61 1943.91 799.12
00015525 00000103 1614.71 313.45 476.88 659.90 1708.66 600.54 1941.58 575.68 1815.56 699.30 1737.79 817.93 1945.69 799.04
00015526 00000104 1616.88 313.51 475.48 655.83 1710.01 599.88 1942.42 575.71 1816.86 697.60 1741.00 816.26 1943.31 797.69
00015527 00000105 1619.39 311.68 473.96 653.71 1712.55 597.84 1943.94 574.17 1820.77 694.11 1745.80 814.95 1943.26 796.33
00015528 00000106 1620.66 308.97 474.78 652.24 1714.12 596.12 1945.89 572.10 1824.97 691.52 1749.48 813.53 1944.29 794.48
00015529 00000107 1621.99 306.79 475.69 653.82 1716.81 593.53 1947.00 568.51 1828.14 688.77 1753.09 810.94 1947.92 791.15
00015530 00000108 1625.14 310.81 473.77 651.44 1717.11 596.89 1945.28 568.12 1828.93 694.18 1753.45 814.03 1952.69 791.60
00015531 00000109 1627.05 320.32 471.43 666.96 1719.31 608.30 1945.35 575.10 1830.85 713.37 1760.30 835.07 1955.81 809.54
00015532 00000110 1620.89 332.41 476.35 665.99 1716.23 620.37 1943.42 590.14 1826.03 734.41 1757.77 853.72 1952.16 831.02
00015533 00000111 1617.30 339.34 472.97 666.09 1711.16 628.03 1938.51 596.88 1822.36 743.23 1750.99 861.27 1951.14 837.87
00015534 00000112 1615.98 347.95 471.22 678.11 1711.31 634.06 1935.81 601.41 1820.15 750.32 1752.32 870.55 1949.64 845.62
00015535 00000113 1617.07 351.64 471.04 682.20 1712.70 637.24 1934.01 604.14 1819.17 754.25 1754.13 870.86 1951.03 844.89
00015536 00000114 1616.41 351.51 469.46 670.83 1710.18 635.92 1934.72 604.37 1820.98 757.24 1747.04 861.14 1956.87 835.46
00015537 00000115 1613.63 349.26 471.86 661.19 1707.37 633.44 1934.90 602.91 1822.55 754.69 1742.07 851.21 1960.23 825.95
00015538 00000116 1613.32 347.14 471.77 659.16 1706.98 632.33 1934.54 601.15 1823.23 753.67 1741.75 848.52 1961.37 822.69
00015539 00000117 1614.06 346.75 470.20 660.17 1706.54 632.08 1933.80 600.54 1822.46 753.29 1741.51 848.23 1962.17 822.07
00015540 00000118 1614.03 346.10 470.73 661.82 1706.01 632.17 1933.22 600.45 1821.53 753.97 1741.74 848.05 1962.74 821.52
00015541 00000119 1612.96 345.64 471.68 661.73 1705.26 631.95 1932.76 600.26 1820.54 753.66 1741.12 846.28 1963.16 819.54
00015542 00000120 1612.80 344.17 472.61 661.24 1705.24 630.80 1933.50 599.45 1821.12 753.52 1741.18 844.55 1964.38 817.92
00015543 00000121 1614.12 342.82 474.51 662.26 1706.97 629.46 1935.49 599.16 1823.37 752.80 1741.44 843.42 1965.90 817.73
00015544 00000122 1615.59 339.28 478.96 673.49 1709.67 629.97 1940.13 598.97 1825.26 754.34 1744.11 840.40 1968.96 814.98
00015545 00000123 1617.61 338.68 476.47 668.57 1710.35 627.36 1940.25 598.40 1827.00 754.72 1746.37 844.70 1967.29 820.16
00015546 00000124 1622.93 337.84 474.83 695.06 1713.91 629.71 1941.05 597.88 1822.78 754.71 1753.85 859.17 1967.17 832.65
00015547 00000125 1623.29 337.76 475.08 694.96 1714.05 629.99 1940.86 597.79 1822.82 753.52 1754.05 859.62 1966.77 833.01
00015548 00000126 1622.32 337.55 473.98 686.89 1711.85 628.79 1940.54 596.73 1823.45 750.84 1750.06 854.33 1968.30 827.97
00015549 00000127 1619.94 338.40 474.24 679.72 1710.66 628.71 1939.72 596.13 1824.37 751.80 1749.47 854.59 1965.80 828.01
00015550 00000128 1620.80 340.45 473.28 679.48 1710.74 631.70 1940.20 598.85 1824.27 756.15 1750.60 857.72 1963.61 830.99
00015551 00000129 1623.03 347.21 470.92 670.30 1712.26 635.59 1941.16 603.82 1825.60 760.63 1750.56 859.34 1964.70 833.38
00015552 00000130 1623.05 352.09 469.65 667.43 1712.62 638.51 1940.43 608.41 1826.55 766.19 1748.87 860.24 1965.15 835.21
00015553 00000131 1625.30 353.21 465.86 675.04 1714.57 640.89 1939.52 611.59 1826.62 771.21 1751.32 865.55 1962.26 841.07
00015554 00000132 1623.35 359.34 468.03 682.15 1714.18 645.27 1939.61 618.33 1823.83 778.53 1752.36 874.97 1958.21 852.08
00015555 00000133 1620.45 365.97 470.08 680.19 1712.53 649.79 1938.80 622.17 1822.66 786.87 1753.39 881.41 1957.97 857.45
00015556 00000134 1619.27 370.67 469.42 676.65 1711.35 651.22 1938.53 624.07 1821.67 789.65 1752.71 882.42 1956.97 858.52
00015557 00000135 1617.63 369.26 468.07 675.49 1710.25 650.98 1936.79 624.37 1820.50 788.15 1750.50 879.09 1955.25 855.50
00015558 00000136 1617.73 368.00 466.08 674.51 1708.07 650.28 1935.12 624.72 1818.26 788.96 1745.66 875.31 1955.68 852.25
00015559 00000137 1613.04 369.84 466.97 671.90 1704.60 650.18 1932.53 623.86 1817.06 787.98 1742.02 873.22 1954.89 849.36
00015560 00000138 1612.43 369.13 467.88 674.00 1704.23 650.31 1932.11 623.30 1816.79 785.96 1741.43 873.09 1954.64 848.90
00015561 00000139 1612.20 367.99 469.75 675.45 1705.10 649.94 1933.20 622.45 1817.44 785.47 1743.48 874.01 1954.96 849.51
00015562 00000140 1615.58 361.95 469.89 679.86 1706.19 649.06 1935.21 620.35 1818.68 779.41 1743.75 872.84 1959.00 847.95
00015563 00000141 1619.60 358.42 466.78 675.20 1707.55 644.41 1935.99 614.09 1821.20 772.53 1744.75 869.73 1959.77 844.07
00015564 00000142 1620.97 354.40 467.62 680.65 1709.04 641.20 1939.78 610.97 1823.83 769.54 1746.80 869.47 1960.94 844.37
00015565 00000143 1622.15 353.00 468.34 685.33 1712.28 640.08 1941.84 610.74 1826.38 770.75 1751.24 871.28 1960.00 846.96
00015566 00000144 1625.42 352.39 466.49 690.08 1714.86 641.01 1942.81 612.01 1828.11 772.07 1751.34 867.05 1966.78 842.55
00015567 00000145 1625.55 353.26 467.58 688.28 1713.60 641.80 1942.88 613.98 1828.05 772.41 1747.26 860.14 1971.16 836.16
00015568 00000146 1625.67 356.16 468.29 684.33 1712.70 642.91 1942.66 616.14 1827.76 773.63 1744.83 856.74 1973.20 833.25
00015569 00000147 1624.27 357.60 470.54 681.24 1712.09 643.80 1943.25 619.34 1827.00 775.74 1741.45 854.19 1974.74 832.25
00015570 00000148 1628.26 358.19 468.77 680.76 1714.20 644.45 1944.43 620.70 1827.49 776.90 1742.55 855.22 1975.06 834.06
00015571 00000149 1626.47 357.48 473.69 689.74 1715.72 645.85 1947.17 620.84 1829.74 779.83 1749.57 865.80 1972.49 844.00
00015572 00000150 1629.10 359.75 473.87 684.46 1716.75 647.21 1947.67 621.56 1828.81 778.86 1751.10 869.03 1972.26 847.03
00015573 00000151 1631.64 359.64 473.15 679.53 1717.98 646.75 1948.06 620.25 1829.41 776.57 1752.91 866.98 1972.19 844.50
00015574 00000152 1630.64 360.48 475.56 675.46 1718.32 646.17 1949.37 618.18 1831.90 773.45 1755.08 866.04 1972.80 842.70
00015575 00000153 1633.47 355.09 473.42 682.15 1718.72 643.93 1950.72 615.50 1830.75 769.69 1755.01 866.13 1973.30 842.98
00015576 00000154 1634.80 349.47 474.72 682.98 1718.67 641.31 1952.77 612.16 1831.61 764.59 1756.33 867.18 1972.68 844.02
00015577 00000155 1636.52 343.84 476.25 677.49 1718.95 640.20 1953.38 606.71 1833.00 759.24 1759.73 865.17 1975.16 838.91
00015578 00000156 1635.46 343.23 479.28 674.16 1720.51 640.14 1953.63 603.50 1835.70 757.81 1765.11 864.23 1977.51 835.47
00015579 00000157 1637.31 343.48 475.29 676.35 1720.31 641.98 1951.86 600.78 1837.25 755.83 1766.50 864.48 1981.38 832.15
00015580 00000158 1633.89 341.21 471.87 687.37 1716.56 643.75 1943.39 601.30 1833.96 760.80 1762.79 862.22 1979.12 828.08
00015581 00000159 1620.18 348.99 475.91 684.67 1708.12 649.30 1933.64 602.54 1829.06 768.10 1756.38 862.15 1978.48 822.66
00015582 00000160 1606.79 356.81 469.87 677.12 1693.87 656.76 1918.34 604.80 1816.88 774.72 1743.03 862.17 1971.22 817.49
00015583 00000161 1584.65 364.42 476.71 669.16 1678.27 660.57 1905.33 607.98 1804.93 784.29 1730.09 863.18 1956.83 816.91
00015584 00000162 1572.81 371.25 478.76 662.64 1663.16 662.77 1892.07 609.91 1789.26 788.43 1719.09 865.98 1945.28 818.94
