Video ID: 	Mnjpu8OgYgs
H: 	1080
W: 	1920
FPS: 	29.97002997002997

FRAME INDEX X0 Y0 W H [Landmarks (5 Points)]

00001245 00000000 894.04 101.75 394.48 585.27 920.54 346.90 1082.51 334.38 928.41 427.48 929.58 555.15 1055.85 546.79
00001246 00000001 887.25 102.44 396.31 574.14 919.24 352.14 1064.67 333.33 931.14 423.46 932.27 544.56 1046.39 529.63
00001247 00000002 878.39 102.82 393.52 582.47 906.48 366.17 1051.20 334.32 918.55 425.74 924.46 556.73 1038.02 531.78
00001248 00000003 873.65 112.16 391.94 595.16 899.37 371.85 1041.84 339.91 907.30 432.23 923.64 566.96 1033.39 541.96
00001249 00000004 872.66 125.91 396.13 604.85 900.48 386.38 1036.72 345.92 905.18 448.64 939.83 580.62 1054.35 546.93
00001250 DELETE   863.27 156.92 405.50 586.99 902.92 389.24 1042.45 357.83 902.89 469.46 943.71 599.75 1072.04 570.97
00001251 00000006 862.39 159.14 405.70 602.10 899.98 409.90 1038.57 371.26 906.36 490.83 952.46 618.68 1081.20 583.85
00001252 00000007 864.45 165.61 407.15 600.37 903.05 415.58 1037.76 385.42 908.86 503.80 953.19 624.46 1074.09 596.74
00001253 00000008 866.05 175.65 407.85 589.79 903.07 424.85 1041.06 401.75 909.27 516.81 945.02 630.28 1061.61 609.37
00001254 00000009 876.23 171.50 401.86 583.91 904.45 426.89 1047.22 410.62 925.29 521.79 945.96 628.34 1050.86 614.90
00001255 00000010 880.72 172.87 396.69 577.08 907.51 425.08 1051.87 411.04 928.66 518.86 941.68 625.33 1051.35 613.72
00001256 00000011 883.04 169.43 394.69 581.61 912.09 423.70 1057.21 408.86 933.77 514.39 944.40 624.54 1053.26 612.58
00001257 00000012 884.35 171.80 393.73 578.93 916.45 421.25 1060.70 406.80 937.02 512.74 949.96 622.76 1058.19 610.86
00001258 00000013 886.55 171.16 391.53 576.09 919.04 418.45 1065.07 406.74 940.73 513.68 952.34 618.93 1064.84 609.07
00001259 00000014 881.75 181.37 393.00 570.98 921.72 418.49 1059.34 408.53 933.27 515.97 955.80 615.25 1075.33 605.88
00001260 00000015 882.61 182.88 395.04 582.10 920.69 418.46 1060.44 405.74 933.29 518.42 959.65 616.29 1088.01 603.95
00001261 00000016 884.43 183.75 391.31 593.73 920.70 420.31 1059.94 402.22 931.54 519.37 964.20 623.33 1095.65 606.13
00001262 00000017 885.43 183.55 389.83 596.04 921.26 421.24 1061.30 401.26 931.89 520.14 966.25 626.47 1097.30 607.77
00001263 00000018 888.66 177.11 391.17 592.43 924.59 419.23 1064.29 405.10 934.43 517.89 963.12 622.45 1087.44 609.46
00001264 00000019 896.58 162.98 385.93 594.31 930.79 423.79 1071.30 410.77 945.52 516.56 967.60 623.27 1074.39 611.66
00001265 00000020 891.82 165.35 397.16 583.86 928.48 426.97 1075.41 413.58 944.70 515.77 962.74 622.02 1073.97 610.26
00001266 00000021 894.80 166.37 395.59 580.67 929.86 424.91 1077.76 413.85 946.22 516.04 962.64 621.87 1072.81 612.06
00001267 00000022 898.41 166.77 396.33 578.81 935.97 423.48 1077.71 411.21 950.45 514.90 971.88 621.95 1074.77 611.40
00001268 00000023 905.95 164.44 394.22 582.36 938.92 425.04 1077.25 410.58 951.65 513.68 974.84 625.88 1073.16 613.86
00001269 00000024 913.22 166.63 391.87 581.07 943.21 423.54 1080.72 409.92 955.37 512.37 975.54 626.70 1072.49 615.82
00001270 00000025 918.68 160.02 389.10 587.52 944.76 420.88 1084.61 406.76 958.92 509.04 975.52 628.56 1070.25 617.53
00001271 00000026 918.80 159.43 393.22 588.54 943.64 420.44 1090.88 406.40 963.26 511.72 972.04 628.78 1074.18 618.23
00001272 00000027 919.40 161.55 394.90 583.23 947.73 420.99 1095.45 406.18 967.16 509.30 975.27 625.76 1078.15 614.49
00001273 00000028 922.32 159.76 394.39 588.29 951.13 419.99 1099.28 405.70 970.40 505.96 978.18 623.74 1081.36 612.79
00001274 00000029 923.82 167.49 395.66 583.59 962.17 414.52 1105.73 404.38 972.60 510.55 987.67 623.11 1099.49 613.61
00001275 00000030 927.36 169.02 394.89 581.32 967.09 413.85 1107.36 405.52 974.17 512.39 992.58 622.69 1102.77 614.37
00001276 00000031 928.97 174.69 395.89 573.84 969.92 416.30 1111.09 408.62 979.37 512.68 992.95 621.90 1101.63 614.43
00001277 00000032 929.37 175.78 397.32 569.37 971.91 413.89 1113.09 410.93 980.60 513.06 991.73 619.44 1098.61 616.08
00001278 00000033 936.01 167.83 392.71 576.60 970.59 414.51 1110.41 407.19 987.78 505.69 995.87 618.83 1091.65 613.89
00001279 00000034 937.90 167.43 391.32 578.62 972.96 413.95 1111.40 406.61 989.78 504.74 997.17 619.50 1091.11 614.61
00001280 00000035 939.10 162.64 390.21 585.66 972.81 412.95 1112.68 402.73 991.54 503.15 997.23 622.44 1091.15 615.60
00001281 00000036 938.79 163.48 390.28 586.14 973.84 412.46 1114.97 401.29 992.61 501.00 998.94 622.34 1093.82 614.61
00001282 00000037 936.27 160.57 392.80 586.53 973.49 408.37 1120.76 399.10 994.92 500.52 1000.11 616.76 1103.91 610.17
00001283 00000038 933.48 167.27 396.60 581.66 975.08 397.92 1123.19 394.34 988.37 503.91 999.20 609.36 1122.71 605.47
00001284 00000039 934.17 162.72 396.87 589.92 975.13 393.74 1123.59 388.40 988.14 500.08 1002.65 606.12 1132.81 600.03
00001285 00000040 933.57 161.35 397.63 597.44 973.43 393.60 1125.61 385.13 988.59 497.50 1004.39 607.51 1141.64 598.44
00001286 00000041 931.60 162.09 398.28 598.37 972.49 393.43 1126.54 384.04 989.89 496.54 1004.44 606.69 1145.22 596.65
00001287 00000042 930.37 160.95 398.97 597.77 971.20 393.14 1126.65 384.39 989.29 496.97 1002.51 605.87 1144.76 596.25
00001288 00000043 928.25 162.41 400.04 591.39 969.19 393.91 1126.43 385.38 989.20 495.55 999.22 605.20 1140.25 596.00
00001289 00000044 926.88 162.60 400.46 590.85 968.38 393.64 1126.31 385.36 988.12 494.81 998.15 604.18 1140.69 595.13
00001290 00000045 927.29 161.31 399.84 593.90 967.84 393.29 1126.20 385.30 987.32 495.71 997.27 604.79 1141.46 595.90
00001291 00000046 928.32 163.84 395.44 591.99 969.83 396.01 1124.71 390.59 988.65 496.30 995.04 603.34 1138.47 596.56
00001292 00000047 928.09 163.92 393.67 590.38 969.65 394.58 1124.63 390.50 988.94 495.06 993.23 603.42 1132.96 598.28
00001293 00000048 929.42 163.94 389.35 585.24 969.58 394.25 1122.23 392.15 987.32 498.42 990.40 608.81 1114.58 606.68
00001294 00000049 930.62 147.81 389.26 600.07 963.95 398.97 1125.76 392.96 988.84 492.03 982.82 612.48 1098.61 608.63
00001295 00000050 929.14 152.96 388.91 593.72 961.90 399.54 1124.23 393.53 988.97 491.15 978.42 611.66 1091.91 608.17
00001296 00000051 926.01 151.43 388.98 592.51 958.59 398.46 1121.39 390.42 985.29 486.26 973.04 610.94 1085.38 605.85
00001297 00000052 921.96 150.87 390.49 592.03 958.25 396.09 1117.89 387.56 980.35 477.43 968.92 606.94 1078.29 601.29
00001298 00000053 918.67 152.49 391.82 589.82 959.19 393.79 1111.71 381.17 974.84 466.60 970.81 603.92 1069.17 594.81
00001299 00000054 915.04 154.99 388.55 580.94 949.25 384.12 1100.04 372.67 964.70 459.44 957.67 597.39 1059.88 588.43
00001300 00000055 911.97 142.83 381.60 582.56 950.53 372.63 1093.85 359.27 959.47 438.40 955.58 581.94 1050.75 571.91
00001301 00000056 905.22 129.60 385.31 583.79 950.51 365.56 1097.44 348.17 957.73 421.68 952.56 572.51 1048.79 558.97
00001302 00000057 901.03 122.31 388.51 575.70 953.23 357.05 1104.81 339.28 961.22 402.65 952.76 555.67 1054.08 541.24
00001303 00000058 903.55 115.66 392.52 574.52 951.04 341.16 1117.81 329.75 963.17 403.70 947.35 546.07 1075.90 538.61
00001304 00000059 903.15 115.39 390.65 577.47 944.72 339.77 1116.79 324.84 963.35 403.58 945.13 547.70 1086.44 536.81
00001305 00000060 891.87 114.54 393.32 579.70 935.02 347.21 1095.80 323.65 957.36 409.82 948.72 544.30 1088.03 526.00
00001306 DELETE   871.21 127.96 399.73 570.72 911.91 366.18 1068.81 327.23 933.93 412.47 935.13 556.14 1066.62 524.56
00001307 DELETE   852.70 132.26 392.25 569.95 874.38 374.43 1024.29 317.38 887.74 423.70 914.44 573.05 1048.17 524.72
00001308 DELETE   839.46 133.61 386.39 567.17 855.90 374.05 1000.36 312.63 864.35 420.30 894.63 568.67 1034.44 516.22
00001309 00000064 826.62 120.54 389.51 568.81 858.12 360.82 998.99 307.45 862.38 415.63 893.36 551.28 1021.09 506.32
00001310 00000065 829.31 116.72 389.80 566.81 847.48 355.48 999.46 302.59 858.87 406.40 882.91 548.04 1028.68 504.21
00001311 00000066 827.20 109.82 399.14 563.74 849.97 348.67 1005.73 296.72 864.20 395.27 886.86 541.08 1033.18 498.68
00001312 00000067 827.04 106.14 402.65 560.45 853.74 349.47 1014.09 294.70 875.99 393.27 895.37 538.93 1043.79 494.41
00001313 00000068 830.62 116.45 408.30 551.43 860.47 350.17 1022.60 299.72 886.01 397.56 899.13 539.20 1050.00 498.18
00001314 00000069 834.29 118.02 410.72 554.34 864.62 358.00 1029.22 308.19 891.33 411.32 905.05 550.26 1052.36 509.53
00001315 00000070 837.92 117.93 407.45 560.34 875.03 371.87 1028.59 330.00 896.23 421.98 910.53 547.58 1052.80 513.14
00001316 00000071 842.59 132.85 402.22 561.02 878.10 383.38 1023.23 340.04 894.85 438.24 917.10 556.07 1052.21 519.80
00001317 00000072 846.17 146.43 399.81 557.04 878.15 390.80 1025.95 349.59 895.50 453.19 917.36 567.60 1052.94 533.22
00001318 00000073 843.34 161.25 408.22 561.59 882.62 394.79 1035.21 360.65 905.17 475.84 917.90 578.71 1063.35 547.45
00001319 00000074 841.87 164.49 407.09 566.50 883.43 415.46 1035.16 376.86 914.35 481.24 926.07 592.51 1072.18 560.45
00001320 00000075 843.32 164.28 408.28 574.62 884.63 419.02 1035.29 384.85 914.07 494.62 929.86 600.93 1070.60 572.43
00001321 00000076 846.08 168.06 404.78 577.11 887.54 423.30 1034.10 396.89 913.97 501.41 932.38 602.34 1068.52 579.62
00001322 00000077 846.62 184.44 403.29 564.18 888.40 422.29 1032.74 400.20 912.69 513.92 934.06 608.80 1070.45 586.90
00001323 00000078 848.07 183.24 408.94 570.69 888.46 427.74 1036.41 401.93 914.11 520.22 937.55 614.95 1077.91 589.69
00001324 00000079 849.62 185.08 410.98 568.65 890.22 428.44 1038.55 403.66 916.03 522.35 940.29 616.45 1080.07 592.14
00001325 00000080 853.13 186.26 408.79 568.19 893.41 427.90 1040.63 402.66 917.44 522.58 944.42 616.24 1083.86 591.50
00001326 00000081 855.94 183.58 408.10 571.14 895.85 427.63 1042.70 401.74 919.89 522.27 947.62 615.51 1087.67 590.32
00001327 00000082 855.98 186.33 412.02 568.56 898.62 425.90 1045.02 400.37 923.86 521.14 953.42 614.26 1092.90 589.29
00001328 00000083 860.81 184.41 411.11 571.29 902.90 424.78 1048.83 399.25 928.79 518.48 956.41 613.55 1095.64 589.04
00001329 00000084 864.42 185.05 408.99 570.81 906.29 423.43 1050.98 399.09 931.02 519.21 959.67 612.27 1098.79 588.64
00001330 00000085 869.44 184.49 408.53 571.53 910.22 422.77 1055.98 398.36 935.11 519.28 963.50 612.40 1102.97 589.04
00001331 00000086 874.23 186.42 404.84 569.70 913.70 424.15 1060.94 401.25 938.97 520.52 964.47 613.00 1104.21 591.15
00001332 00000087 878.81 186.13 401.23 568.40 917.71 427.12 1066.16 405.27 943.76 520.61 963.61 613.43 1101.65 593.00
00001333 00000088 882.92 181.52 398.13 567.14 921.92 428.24 1074.05 412.99 956.50 524.25 965.22 617.30 1089.35 603.36
00001334 00000089 887.19 186.38 394.17 563.20 927.11 428.45 1076.48 417.94 960.90 527.16 967.41 619.92 1082.55 610.04
00001335 00000090 890.66 186.88 394.64 567.90 931.27 428.67 1079.23 421.31 963.49 529.68 968.48 623.48 1079.42 616.25
00001336 00000091 895.05 191.76 392.25 566.20 934.87 429.56 1081.74 422.59 965.00 530.83 970.94 625.95 1081.14 618.94
00001337 00000092 896.37 193.66 394.49 570.61 936.06 434.90 1083.02 426.47 966.47 534.48 972.09 629.99 1085.06 621.48
00001338 00000093 899.71 198.68 393.79 576.26 938.83 442.86 1083.61 431.24 966.86 540.35 975.81 636.48 1091.00 625.12
00001339 00000094 901.62 197.13 394.08 589.76 941.32 452.53 1079.03 438.84 964.45 549.50 982.13 645.64 1095.69 631.92
00001340 00000095 888.63 208.77 404.08 583.02 923.48 453.51 1080.28 429.20 956.67 556.36 977.45 663.99 1093.18 645.31
00001341 00000096 894.14 203.55 394.86 603.71 938.45 452.67 1072.73 436.70 955.45 551.95 984.19 654.72 1093.29 639.33
00001342 00000097 892.91 201.84 395.35 605.80 935.72 450.78 1070.01 433.55 953.50 547.82 979.72 652.28 1088.97 636.12
00001343 00000098 892.27 201.22 395.34 603.56 935.35 446.31 1072.08 429.39 955.64 542.97 978.41 648.96 1087.35 633.32
00001344 00000099 895.55 197.80 391.84 601.41 936.82 441.00 1075.56 425.43 958.92 538.02 976.67 645.53 1086.62 631.17
00001345 00000100 897.92 191.91 390.55 600.81 937.02 436.09 1076.38 420.88 959.61 534.61 978.00 642.78 1086.95 628.84
00001346 00000101 902.78 181.52 391.95 602.80 937.06 433.87 1079.95 417.51 956.96 531.85 977.97 638.71 1092.07 623.96
00001347 00000102 902.28 176.00 396.09 597.95 935.05 433.50 1083.61 419.21 958.96 530.65 972.78 634.73 1089.56 621.50
00001348 00000103 900.01 177.89 396.74 587.63 934.84 433.44 1084.11 420.32 961.31 532.11 973.02 633.75 1086.93 621.47
00001349 00000104 899.12 178.54 399.00 593.94 935.73 440.06 1087.61 428.33 959.28 528.90 969.77 638.92 1079.65 629.22
00001350 00000105 900.95 173.91 396.28 595.45 937.54 434.74 1088.46 420.55 961.65 521.14 972.75 638.25 1076.02 626.53
00001351 00000106 901.56 173.84 394.62 591.80 940.46 429.72 1086.87 418.86 956.64 516.32 970.95 631.84 1074.40 622.68
00001352 00000107 904.02 165.16 395.59 600.06 942.83 422.11 1090.90 412.52 954.35 509.37 969.43 622.39 1082.03 614.64
00001353 00000108 905.83 159.29 394.67 603.35 941.84 414.48 1092.31 401.53 958.01 507.84 970.68 619.19 1099.29 606.67
00001354 00000109 906.12 156.83 394.07 608.02 943.69 407.72 1095.94 394.30 958.33 501.33 971.09 615.11 1106.81 601.88
00001355 00000110 903.43 150.09 396.27 614.91 943.29 402.93 1101.16 391.81 961.09 498.20 968.62 609.17 1112.05 597.78
00001356 00000111 899.05 151.45 400.80 606.59 941.99 398.56 1104.20 391.38 963.27 496.09 965.16 602.57 1113.81 594.31
00001357 00000112 895.06 152.59 400.96 600.66 941.34 395.75 1103.93 392.99 964.53 494.66 961.54 595.21 1113.25 590.42
00001358 00000113 891.37 152.96 401.61 596.36 932.88 393.55 1102.79 386.67 959.88 488.65 954.43 595.21 1108.48 588.13
00001359 00000114 893.07 150.08 399.95 602.93 939.97 396.35 1102.47 393.30 964.63 494.77 959.62 594.50 1111.40 589.60
00001360 00000115 892.40 152.03 399.28 592.40 935.74 401.12 1095.37 394.23 957.76 497.91 959.24 592.75 1111.27 585.04
00001361 00000116 894.49 155.88 392.51 599.75 936.10 402.81 1095.62 399.63 959.41 505.04 958.98 604.63 1098.64 600.40
00001362 00000117 895.10 159.18 387.52 601.21 935.53 414.79 1092.02 411.78 960.42 513.55 959.59 619.64 1080.33 616.63
00001363 00000118 892.66 167.50 387.78 598.70 935.00 416.84 1093.35 418.34 962.44 517.87 956.31 623.87 1074.13 624.79
00001364 00000119 883.26 166.19 397.62 606.21 933.77 417.63 1094.41 420.59 958.16 514.48 950.07 625.70 1070.60 627.64
00001365 00000120 880.21 164.43 396.24 598.24 932.71 415.01 1093.01 417.90 957.50 511.46 947.81 621.42 1065.35 623.28
00001366 00000121 881.20 162.97 389.20 585.48 929.09 411.71 1084.30 416.70 952.24 515.88 938.94 615.52 1065.17 619.72
00001367 00000122 881.61 162.36 389.22 585.53 928.51 413.06 1083.83 418.05 951.36 515.97 938.49 618.13 1062.86 622.43
00001368 00000123 881.61 161.14 389.98 593.89 933.30 417.55 1092.92 421.13 959.25 510.00 946.08 623.85 1055.60 626.37
00001369 00000124 879.50 160.25 388.62 600.44 930.35 419.21 1094.73 421.64 960.65 511.81 946.40 631.66 1051.86 633.31
00001370 00000125 880.54 173.51 388.28 600.40 928.35 423.33 1096.96 423.07 962.27 517.85 946.36 642.71 1052.24 642.38
00001371 00000126 874.07 174.59 389.19 604.74 924.13 427.35 1085.70 426.75 953.39 524.93 946.14 649.63 1045.10 648.92
00001372 00000127 872.22 179.81 385.55 598.90 915.59 427.78 1074.62 426.64 942.35 531.51 943.78 653.36 1043.50 651.84
00001373 00000128 871.32 172.24 376.32 601.19 904.40 421.57 1055.72 425.73 928.64 532.36 929.67 642.77 1030.80 647.11
00001374 00000129 862.14 173.78 390.30 589.07 910.77 416.95 1053.60 421.12 924.89 522.70 926.06 629.33 1037.00 632.11
00001375 00000130 869.10 158.78 382.14 592.46 905.94 407.61 1065.84 409.54 935.11 510.00 923.77 622.03 1037.01 624.82
00001376 00000131 870.08 147.09 387.88 595.82 912.45 403.87 1077.36 401.05 948.14 504.36 929.69 615.61 1049.61 614.89
00001377 00000132 869.10 158.65 391.95 580.78 915.34 401.67 1072.77 401.76 939.80 509.10 930.79 614.11 1061.03 613.52
00001378 00000133 863.81 152.09 395.28 592.52 905.95 405.40 1067.10 399.58 940.42 504.79 929.88 615.51 1052.70 611.85
00001379 00000134 855.84 167.83 393.95 585.97 901.04 416.88 1046.12 416.05 915.10 520.39 922.62 622.35 1040.82 620.37
00001380 00000135 853.28 173.84 399.06 594.95 894.88 426.94 1033.74 424.81 903.95 536.37 923.00 634.16 1036.30 631.02
00001381 DELETE   855.46 192.30 397.30 595.40 895.12 444.47 1040.54 443.59 910.49 555.57 926.60 651.74 1041.62 650.79
00001382 DELETE   864.39 200.78 393.39 595.97 900.45 458.67 1064.90 453.94 932.30 574.54 938.50 672.95 1058.77 667.68
00001383 DELETE   870.90 214.69 397.93 587.41 914.81 462.26 1077.36 462.58 943.47 592.30 949.90 677.26 1073.79 677.08
00001384 00000139 872.09 212.18 400.65 592.32 920.33 466.29 1087.99 462.04 957.72 590.35 956.65 680.82 1082.14 676.81
00001385 00000140 877.71 209.01 402.31 592.28 920.13 463.89 1091.74 459.46 963.83 584.12 959.23 678.48 1083.39 672.90
00001386 00000141 878.25 210.47 402.32 591.01 921.35 459.43 1090.48 452.64 962.24 573.50 959.48 667.38 1090.87 659.65
00001387 00000142 880.41 206.24 395.64 593.00 924.46 450.60 1084.91 451.17 960.96 568.25 954.98 650.60 1092.10 649.29
00001388 00000143 878.74 207.72 399.99 588.95 923.86 449.43 1083.37 447.05 957.92 564.02 956.37 646.60 1096.82 642.58
00001389 00000144 883.39 205.25 397.73 590.03 926.70 449.40 1087.52 445.47 961.51 561.89 958.59 646.05 1103.36 640.64
00001390 00000145 887.41 202.88 395.36 594.96 930.09 449.12 1091.14 446.17 963.20 561.27 961.85 647.24 1106.07 642.68
00001391 00000146 890.90 203.38 392.98 596.99 931.62 450.91 1091.33 449.26 964.38 561.82 961.54 651.83 1099.09 648.71
00001392 00000147 892.10 200.73 395.05 595.87 933.40 451.47 1090.46 450.43 966.72 563.76 963.95 653.38 1092.97 650.92
00001393 00000148 895.97 202.55 392.70 597.16 934.87 451.44 1090.79 452.84 965.68 567.13 965.05 655.00 1093.93 654.51
00001394 00000149 886.58 205.42 402.38 594.11 922.98 451.78 1097.03 446.38 959.18 570.05 957.86 668.37 1089.99 664.72
00001395 00000150 897.80 203.69 391.99 596.46 937.52 451.77 1092.64 454.27 964.54 566.01 967.63 653.09 1098.98 653.42
00001396 00000151 898.57 207.45 394.57 595.19 937.29 452.64 1094.02 454.55 964.12 569.22 970.66 652.52 1107.36 652.31
00001397 00000152 900.88 207.27 396.08 595.84 938.81 453.86 1096.51 454.48 965.10 571.15 975.34 651.32 1117.14 649.89
00001398 00000153 902.46 208.13 398.62 597.77 940.78 454.15 1099.45 454.94 966.26 573.16 977.38 651.45 1122.00 650.24
00001399 00000154 904.06 207.20 398.57 602.87 943.59 456.25 1101.99 455.74 968.63 575.01 981.29 654.13 1125.77 652.10
00001400 00000155 905.92 209.15 397.83 601.42 945.81 455.20 1105.29 456.06 969.97 576.78 982.02 652.93 1130.13 652.18
00001401 00000156 907.17 210.42 398.84 602.14 947.67 456.11 1107.47 455.67 972.44 579.25 985.13 653.61 1135.96 651.91
00001402 00000157 907.20 209.71 400.84 603.07 949.16 456.65 1109.04 455.59 974.54 579.79 987.02 653.54 1138.06 651.39
00001403 00000158 908.11 212.76 401.55 600.19 950.92 458.14 1110.30 456.43 977.32 581.59 989.65 652.68 1142.31 649.94
00001404 00000159 909.30 208.43 402.70 603.61 951.81 456.45 1113.55 458.05 978.26 581.37 987.96 650.58 1142.65 650.62
00001405 00000160 910.98 210.15 395.45 600.03 952.68 456.19 1114.51 461.21 978.31 581.57 986.72 647.79 1141.98 650.36
00001406 00000161 900.00 218.71 392.99 587.43 950.57 453.15 1116.32 471.94 975.85 588.60 976.00 646.53 1130.83 658.12
00001407 00000162 899.62 232.09 390.84 579.80 951.56 457.01 1116.32 482.14 973.30 590.97 970.30 646.37 1126.27 662.16
00001408 00000163 904.55 241.62 383.43 573.01 960.82 466.25 1119.52 496.67 975.05 600.08 970.13 656.48 1122.68 676.47
00001409 00000164 901.94 246.48 384.80 567.47 953.98 472.17 1124.11 511.89 989.03 614.76 964.23 662.41 1119.55 692.76
00001410 00000165 899.30 249.12 388.94 573.01 954.42 480.67 1126.53 522.33 990.66 621.52 959.21 673.00 1109.16 705.33
00001411 00000166 883.23 256.56 395.81 579.32 947.69 488.95 1126.83 528.72 983.72 623.20 936.94 686.19 1080.67 717.94
CROP_BBOX: 489 0 1579 1035
