Video ID: 	5S8b8Ncl2T0
H: 	1080
W: 	1920
FPS: 	25.0

FRAME INDEX X0 Y0 W H [Landmarks (5 Points)]

00001771 00000000 1081.85 244.75 448.80 671.86 1200.21 517.81 1412.69 504.84 1320.33 665.28 1242.64 758.11 1414.44 748.24
00001772 00000001 1078.64 239.87 449.99 675.06 1197.48 517.15 1411.41 504.89 1319.29 665.46 1239.26 757.44 1413.54 748.22
00001773 00000002 1077.26 232.74 447.52 680.08 1194.54 517.81 1408.32 505.08 1316.19 665.06 1234.28 756.00 1410.65 746.27
00001774 DELETE   1077.37 230.69 444.86 681.91 1190.58 519.83 1401.51 504.66 1310.86 665.74 1234.09 756.54 1409.29 744.74
00001775 00000004 1074.12 232.72 443.74 680.62 1186.47 521.28 1397.45 505.45 1307.47 664.29 1229.56 756.78 1405.38 744.50
00001776 00000005 1070.76 233.04 444.26 678.94 1183.80 520.23 1393.88 504.27 1305.26 664.98 1228.78 756.13 1402.15 743.53
00001777 00000006 1056.33 243.55 450.45 666.68 1173.82 518.86 1383.07 495.82 1297.85 663.13 1229.50 765.11 1391.69 742.45
00001778 00000007 1052.62 254.84 448.63 652.99 1167.07 518.39 1379.53 495.02 1291.27 659.52 1222.74 762.39 1388.89 739.66
00001779 DELETE   1047.99 249.09 451.71 663.88 1161.68 518.91 1373.86 495.10 1286.71 655.59 1216.53 760.70 1386.27 738.15
00001780 00000009 1047.07 251.15 451.59 659.91 1157.53 517.21 1367.42 492.42 1280.31 652.84 1214.31 760.70 1382.33 737.23
00001781 00000010 1044.48 245.77 449.36 660.85 1153.93 517.18 1361.28 494.42 1274.16 651.53 1212.55 759.47 1376.93 737.65
00001782 00000011 1037.33 252.86 452.61 652.90 1147.86 517.92 1352.36 492.17 1269.99 652.42 1210.99 758.63 1373.00 734.56
00001783 DELETE   1034.77 253.65 454.01 652.49 1143.97 517.68 1349.58 491.80 1267.28 651.43 1206.59 757.72 1371.32 733.59
00001784 00000013 1033.39 255.12 454.22 650.89 1140.72 516.57 1347.39 490.44 1264.25 649.93 1204.10 758.44 1369.57 734.08
00001785 00000014 1029.37 251.23 456.62 655.55 1137.41 513.05 1345.67 489.02 1261.69 648.38 1201.49 756.43 1366.67 733.66
00001786 00000015 1027.12 242.59 458.98 658.85 1133.63 512.25 1339.02 484.20 1252.08 648.58 1196.99 751.63 1363.00 727.90
00001787 00000016 1027.43 243.81 456.14 651.92 1130.39 508.47 1338.97 482.91 1248.32 647.50 1193.46 749.84 1358.81 728.26
00001788 00000017 1028.70 232.92 453.58 665.11 1125.88 508.99 1335.69 479.71 1244.08 646.04 1190.78 753.20 1357.44 728.66
00001789 00000018 1026.60 227.85 453.08 676.10 1121.88 507.82 1331.68 478.17 1238.42 643.55 1185.53 752.50 1356.73 727.40
00001790 00000019 1023.46 232.42 454.25 674.90 1120.04 509.74 1327.82 478.16 1235.77 643.92 1187.35 753.11 1355.39 726.64
00001791 00000020 1022.86 236.04 453.62 675.08 1117.64 509.77 1324.74 478.91 1232.27 647.33 1184.90 753.18 1354.20 727.44
00001792 00000021 1017.46 240.40 456.99 673.25 1116.02 511.67 1321.74 481.39 1231.51 650.50 1184.83 754.32 1352.03 729.30
00001793 00000022 1015.48 249.31 457.36 664.31 1113.87 511.81 1319.50 482.58 1229.28 651.18 1183.25 755.19 1348.31 731.14
00001794 00000023 1012.36 253.77 459.53 655.45 1110.12 514.30 1317.29 484.22 1225.67 653.69 1181.47 755.00 1345.83 730.36
00001795 00000024 1009.96 251.63 458.87 658.40 1108.09 514.43 1315.90 485.59 1224.03 653.35 1177.85 757.54 1342.24 734.00
00001796 00000025 1006.54 246.77 458.31 661.38 1104.73 514.71 1314.07 485.12 1222.32 652.78 1175.64 759.42 1339.13 735.47
00001797 00000026 1006.35 242.76 457.44 664.64 1102.35 513.85 1312.35 483.96 1219.91 652.15 1173.59 759.35 1338.58 735.11
00001798 00000027 1005.16 240.08 456.60 664.30 1100.50 514.53 1311.26 484.17 1217.79 652.50 1171.24 758.42 1338.34 733.80
00001799 00000028 1005.08 239.59 456.15 663.19 1100.53 514.77 1311.78 484.02 1218.61 651.61 1171.78 758.13 1338.81 733.19
00001800 00000029 1002.46 241.04 457.36 661.48 1097.59 516.03 1310.02 483.86 1216.08 655.27 1170.67 759.40 1337.79 733.53
00001801 00000030 1002.55 239.16 456.32 662.79 1097.76 516.12 1308.46 484.46 1215.38 656.15 1170.86 759.24 1337.11 733.75
00001802 00000031 1000.21 240.09 457.19 664.01 1095.61 518.10 1306.90 484.64 1214.93 658.15 1170.68 761.73 1336.08 734.77
00001803 00000032 1001.62 243.44 454.95 658.86 1095.38 520.90 1305.65 484.93 1214.77 656.63 1171.97 763.15 1335.17 734.29
00001804 00000033 1002.31 241.52 454.13 660.00 1095.14 521.26 1304.49 484.00 1214.99 655.53 1172.90 765.07 1333.97 735.27
00001805 00000034 1003.02 243.87 453.06 659.38 1095.31 521.01 1303.82 484.41 1213.94 656.63 1171.75 763.52 1334.38 734.24
00001806 00000035 1002.13 244.98 453.42 656.84 1095.83 521.30 1305.00 484.10 1215.75 657.74 1174.51 764.59 1336.42 734.74
00001807 00000036 1002.28 235.94 454.46 662.92 1096.79 519.87 1306.88 481.56 1218.14 655.75 1174.14 760.73 1342.02 729.74
00001808 00000037 1003.56 238.44 454.74 660.08 1098.97 516.58 1305.85 478.52 1218.90 651.30 1175.25 755.44 1343.12 724.64
00001809 00000038 1002.77 226.87 458.41 673.25 1099.62 512.25 1307.77 475.89 1221.22 647.58 1172.46 752.02 1347.03 722.18
00001810 00000039 1001.39 232.50 462.38 667.52 1099.33 510.99 1306.99 471.22 1222.21 643.17 1173.83 749.34 1350.78 716.64
00001811 00000040 1001.54 220.05 462.64 676.21 1099.46 505.82 1305.72 464.95 1223.54 635.28 1170.97 741.09 1352.38 706.96
00001812 00000041 999.60 207.22 464.84 689.35 1102.00 498.48 1303.19 456.58 1225.49 625.13 1174.64 733.32 1353.69 698.31
00001813 00000042 994.30 212.48 472.27 683.49 1101.26 493.15 1303.74 450.06 1226.17 618.88 1176.95 730.20 1355.57 694.34
00001814 00000043 996.30 205.13 470.16 690.60 1102.89 485.93 1305.88 443.91 1227.18 607.56 1175.16 723.49 1355.05 688.74
00001815 00000044 996.23 201.33 470.39 687.40 1101.02 481.94 1307.30 439.63 1225.97 600.32 1175.30 722.41 1350.71 687.65
00001816 00000045 997.61 204.07 466.81 668.44 1099.89 481.94 1308.27 438.68 1223.94 596.05 1177.98 720.21 1346.51 685.01
00001817 00000046 1002.88 208.41 464.26 644.48 1105.92 482.27 1317.31 440.63 1225.56 600.49 1184.43 721.98 1341.68 687.88
00001818 00000047 1005.18 216.82 461.78 636.63 1108.63 484.09 1317.94 442.67 1227.41 600.61 1185.57 721.88 1341.44 687.89
00001819 00000048 1006.32 213.77 461.68 639.24 1110.59 486.60 1319.97 446.43 1229.18 604.58 1187.90 726.68 1339.49 693.71
00001820 00000049 1003.21 212.58 461.57 656.31 1107.66 487.35 1313.38 448.90 1234.07 609.56 1185.18 725.53 1347.34 694.85
00001821 00000050 1003.60 219.53 465.51 664.64 1109.47 493.09 1312.97 452.49 1235.24 617.06 1185.78 732.26 1352.97 699.36
00001822 00000051 1006.77 225.57 464.06 666.11 1110.70 497.45 1315.50 454.17 1236.13 622.29 1188.36 738.87 1357.98 703.74
00001823 00000052 1006.39 222.70 463.86 674.01 1112.86 499.31 1317.62 457.35 1239.10 623.85 1189.98 742.24 1358.46 708.08
00001824 00000053 1008.71 224.05 462.91 676.20 1115.84 503.06 1319.72 461.14 1242.97 628.42 1195.28 747.50 1361.53 712.70
00001825 00000054 1011.15 223.04 462.05 676.70 1117.80 506.44 1322.47 463.58 1245.57 630.97 1195.40 749.67 1363.37 714.36
00001826 00000055 1012.80 221.24 462.54 676.78 1120.19 502.21 1325.86 462.15 1247.85 629.99 1196.47 746.97 1363.57 713.89
00001827 00000056 1011.16 217.81 465.77 674.39 1120.06 499.20 1326.74 459.51 1249.41 626.66 1199.70 742.83 1364.00 709.70
00001828 00000057 1014.93 210.86 463.42 678.38 1120.74 496.10 1328.95 455.43 1250.89 619.45 1198.60 739.25 1365.48 705.61
00001829 00000058 1012.90 206.76 468.31 681.91 1121.19 487.53 1331.75 448.97 1251.57 614.28 1197.25 734.85 1365.20 703.24
00001830 00000059 1017.93 203.18 465.47 682.03 1125.44 483.85 1332.87 446.21 1252.45 609.12 1199.95 730.20 1366.50 699.09
00001831 00000060 1020.54 205.52 465.83 677.49 1129.92 482.77 1337.12 446.72 1256.82 608.83 1200.95 727.45 1368.58 698.11
00001832 00000061 1023.36 207.62 465.79 671.95 1134.66 486.80 1339.76 450.89 1262.40 611.22 1203.00 725.85 1370.95 696.76
00001833 00000062 1026.29 218.49 465.27 651.68 1138.87 488.06 1344.59 451.07 1267.04 611.06 1207.15 721.72 1375.53 691.40
00001834 00000063 1031.60 212.83 463.11 665.59 1144.21 485.39 1350.19 450.74 1270.75 609.52 1211.01 724.19 1379.25 695.12
00001835 00000064 1033.72 208.21 463.93 679.02 1148.73 481.13 1355.39 449.82 1273.16 607.30 1212.13 726.77 1379.98 700.09
00001836 00000065 1036.96 209.85 461.32 681.82 1152.11 478.46 1359.60 447.28 1276.13 605.60 1217.00 730.34 1383.23 702.68
00001837 00000066 1039.45 213.18 459.76 676.94 1151.67 477.12 1362.87 443.10 1276.51 602.16 1218.09 731.03 1384.79 701.37
00001838 00000067 1039.33 204.33 456.47 679.83 1152.15 471.35 1362.74 436.76 1278.24 595.09 1220.41 727.39 1381.19 697.63
00001839 00000068 1040.71 200.56 453.10 667.93 1154.14 466.70 1364.77 433.58 1281.12 588.63 1223.90 720.07 1380.65 691.13
00001840 00000069 1044.17 203.63 450.49 652.40 1155.89 464.36 1368.83 431.60 1283.19 586.11 1225.13 713.33 1384.74 684.08
00001841 00000070 1046.88 203.00 449.14 648.14 1158.12 464.61 1372.30 433.27 1284.92 584.34 1224.48 710.58 1386.36 682.71
00001842 00000071 1048.07 205.76 450.41 642.74 1159.77 464.45 1374.88 433.50 1286.53 583.78 1226.55 710.63 1387.26 682.94
00001843 00000072 1050.59 206.39 449.38 641.49 1161.27 463.62 1376.57 434.10 1286.83 584.52 1225.87 711.06 1386.70 684.23
00001844 00000073 1051.22 202.78 450.08 648.72 1162.84 463.35 1378.30 435.25 1287.69 586.74 1226.25 712.57 1387.58 686.71
00001845 00000074 1052.51 199.82 450.64 651.86 1164.53 461.43 1379.93 435.41 1288.02 583.82 1226.36 711.57 1387.57 686.89
00001846 00000075 1054.83 193.78 451.85 658.77 1169.78 458.13 1385.33 435.25 1293.17 580.15 1226.42 708.22 1389.41 685.91
00001847 00000076 1059.88 196.36 447.61 654.32 1174.64 452.78 1389.33 432.63 1297.05 572.57 1226.74 702.01 1390.79 681.90
00001848 00000077 1061.79 193.22 450.62 647.65 1178.82 443.68 1394.79 425.86 1299.49 562.57 1227.80 691.17 1392.03 672.90
00001849 00000078 1069.47 181.17 447.25 652.83 1186.22 432.84 1399.15 419.50 1307.37 550.17 1227.72 670.33 1399.53 659.89
00001850 00000079 1075.65 162.49 445.76 664.97 1195.67 423.06 1400.91 412.03 1312.50 535.92 1232.82 659.81 1399.89 651.48
00001851 00000080 1080.44 156.65 445.22 666.26 1199.30 418.46 1407.14 408.34 1316.27 530.31 1233.42 652.74 1405.20 644.91
00001852 00000081 1083.42 153.61 443.89 667.18 1202.42 415.43 1409.59 403.86 1322.83 526.10 1238.78 651.00 1409.95 642.08
00001853 00000082 1084.03 157.27 444.51 663.03 1204.62 413.48 1410.50 401.61 1326.14 522.98 1242.38 649.01 1412.35 639.81
00001854 00000083 1085.30 159.85 445.45 659.39 1207.46 413.32 1413.35 401.95 1329.24 520.75 1245.49 648.84 1414.68 639.96
00001855 00000084 1089.22 163.89 443.97 654.75 1211.04 414.78 1414.79 402.95 1332.14 523.19 1251.00 649.60 1418.09 640.18
00001856 00000085 1091.58 171.57 443.54 647.73 1214.39 417.62 1416.35 404.32 1336.04 527.15 1259.22 653.06 1423.47 642.10
00001857 00000086 1093.01 178.16 445.07 644.20 1216.88 421.28 1417.32 407.21 1338.82 530.67 1263.93 656.03 1427.21 644.26
00001858 00000087 1099.52 189.68 436.95 638.63 1220.21 420.43 1418.79 408.91 1340.76 532.37 1264.40 657.77 1419.96 646.86
00001859 00000088 1100.10 192.24 437.71 636.05 1219.10 422.91 1419.74 412.36 1339.02 539.85 1263.36 658.07 1420.11 647.90
00001860 00000089 1102.55 194.05 435.62 636.44 1219.06 425.78 1420.26 416.36 1337.76 546.70 1260.68 658.37 1420.43 649.21
00001861 00000090 1101.54 190.00 438.81 643.51 1218.65 428.40 1420.56 419.83 1337.39 550.68 1258.79 660.64 1421.76 652.10
00001862 00000091 1102.19 187.15 440.16 650.02 1216.96 432.15 1422.36 424.06 1336.07 556.35 1254.65 665.04 1422.86 656.86
00001863 00000092 1098.89 189.41 445.60 651.98 1213.77 436.19 1420.89 428.56 1332.71 560.30 1251.28 669.85 1423.05 662.02
00001864 00000093 1098.28 190.49 447.32 653.97 1212.05 438.34 1421.16 432.92 1329.18 564.34 1247.50 674.23 1419.02 668.44
00001865 00000094 1100.10 197.95 445.56 648.36 1211.90 439.15 1420.84 434.60 1327.41 567.63 1244.87 677.46 1413.46 672.81
00001866 00000095 1103.33 206.11 441.77 640.26 1212.48 440.83 1425.13 438.12 1326.09 568.98 1242.73 683.60 1411.73 680.77
00001867 00000096 1104.40 208.55 443.52 642.52 1215.67 446.30 1427.83 442.38 1329.90 573.26 1245.75 687.45 1415.31 683.54
00001868 00000097 1106.59 201.98 445.64 658.91 1220.05 448.53 1430.99 443.09 1332.61 578.63 1252.69 696.21 1418.75 691.16
00001869 00000098 1108.83 208.40 447.23 658.86 1222.59 451.40 1435.63 446.07 1334.99 586.93 1256.30 704.50 1423.29 699.65
00001870 00000099 1113.49 215.31 446.22 654.79 1226.48 455.23 1439.54 448.61 1338.03 595.16 1261.95 710.58 1426.50 704.22
00001871 00000100 1114.88 211.78 447.99 659.26 1229.21 460.32 1441.93 452.34 1341.91 598.90 1267.07 715.45 1428.78 707.95
00001872 00000101 1115.41 213.86 450.20 660.49 1232.66 462.70 1445.44 455.17 1345.51 601.91 1269.09 717.92 1431.79 710.68
00001873 00000102 1116.67 212.40 451.25 664.92 1236.66 465.23 1448.29 456.82 1350.49 605.72 1273.49 721.20 1434.72 713.00
00001874 00000103 1118.28 217.76 450.96 665.09 1240.39 464.84 1450.49 455.80 1352.67 608.74 1277.37 723.09 1439.22 713.77
00001875 00000104 1119.84 217.47 451.94 666.05 1243.63 463.71 1453.77 454.44 1358.25 607.86 1283.93 723.88 1443.21 713.99
00001876 00000105 1123.10 213.52 448.91 664.26 1245.36 461.75 1456.34 452.27 1360.14 604.51 1285.61 721.36 1444.72 710.93
00001877 00000106 1123.14 205.67 450.44 665.57 1244.62 458.47 1457.69 448.11 1360.79 601.45 1285.91 718.08 1444.89 706.90
00001878 00000107 1123.62 203.45 451.63 658.94 1244.56 455.00 1458.73 444.77 1360.75 599.58 1286.60 713.68 1446.36 702.33
00001879 00000108 1124.94 202.78 451.95 661.26 1241.76 455.08 1457.56 444.87 1357.28 601.57 1283.10 715.34 1444.50 704.26
00001880 00000109 1126.69 192.39 449.21 675.16 1242.45 455.23 1453.51 448.06 1350.86 600.64 1279.08 713.10 1440.36 704.66
00001881 00000110 1127.81 199.87 447.71 667.06 1241.16 452.25 1449.33 447.82 1343.37 597.52 1271.56 708.21 1432.69 702.08
CROP_BBOX: 631 0 1862 1080
