Video ID: 	OEr81P9Er6s
H: 	2160
W: 	3840
FPS: 	23.976023976023978

FRAME INDEX X0 Y0 W H [Landmarks (5 Points)]

00001811 00000000 1573.73 406.97 538.28 812.82 1690.10 783.68 1943.49 748.08 1821.61 918.07 1739.90 1056.42 1958.19 1029.96
00001812 00000001 1571.95 404.67 539.73 815.67 1688.17 784.80 1942.05 748.40 1820.17 918.71 1738.81 1057.41 1957.42 1030.41
00001813 DELETE   1568.46 402.64 540.67 817.54 1686.08 783.93 1940.77 746.39 1818.81 917.16 1737.22 1057.26 1956.67 1029.41
00001814 00000003 1567.82 401.75 540.69 817.16 1685.29 781.54 1940.12 744.08 1817.69 913.84 1735.44 1055.17 1956.56 1027.56
00001815 00000004 1567.22 399.21 541.58 818.61 1684.58 779.56 1939.07 741.59 1815.08 910.08 1733.98 1051.73 1956.67 1023.91
00001816 00000005 1567.20 396.96 540.86 820.30 1684.48 777.82 1938.99 740.23 1814.77 908.36 1732.80 1050.59 1956.40 1023.10
00001817 DELETE   1565.71 395.49 543.26 821.97 1684.17 777.79 1939.08 739.22 1815.35 908.42 1733.25 1051.01 1957.45 1022.73
00001818 00000007 1565.32 396.06 543.99 821.79 1683.19 778.92 1938.65 739.77 1814.42 910.71 1733.53 1052.07 1957.94 1023.22
00001819 DELETE   1563.52 393.79 545.93 824.32 1682.46 779.75 1938.13 740.60 1814.54 912.33 1732.70 1053.12 1957.42 1024.25
00001820 00000009 1561.75 394.29 547.42 825.13 1680.57 780.09 1937.45 741.04 1813.67 914.03 1730.79 1054.45 1956.53 1025.59
00001821 00000010 1559.59 394.24 548.36 826.53 1678.61 780.56 1935.36 740.82 1812.15 915.13 1729.25 1055.16 1956.05 1025.70
00001822 00000011 1557.42 393.69 547.73 828.59 1676.02 779.39 1933.21 740.45 1809.16 914.32 1724.86 1053.99 1954.12 1025.22
00001823 00000012 1553.50 391.13 549.80 830.83 1672.95 777.52 1932.93 738.72 1807.44 912.28 1721.87 1053.01 1953.00 1024.42
00001824 00000013 1556.55 390.36 545.47 830.23 1673.34 773.47 1933.52 735.26 1805.92 907.48 1721.74 1050.89 1952.72 1022.85
00001825 00000014 1555.14 385.46 543.85 831.37 1672.53 768.68 1934.06 731.02 1805.59 903.31 1720.18 1047.25 1952.26 1019.76
00001826 00000015 1553.49 381.59 544.49 830.06 1671.19 766.11 1932.67 727.25 1805.21 898.58 1720.24 1044.13 1952.75 1015.77
00001827 00000016 1550.96 379.51 545.86 831.75 1670.29 763.63 1931.06 724.72 1803.64 895.30 1720.16 1042.04 1951.24 1013.60
00001828 00000017 1550.87 375.46 545.82 834.75 1670.02 760.33 1930.10 722.14 1802.52 893.82 1719.05 1040.27 1950.94 1012.27
00001829 00000018 1549.46 375.36 546.90 835.31 1669.02 760.33 1928.30 720.75 1801.57 892.99 1719.33 1040.48 1950.28 1011.37
00001830 00000019 1548.65 375.99 547.36 836.96 1667.75 760.56 1927.39 720.02 1800.41 892.77 1718.77 1042.18 1949.87 1012.32
00001831 00000020 1549.09 375.68 546.63 838.63 1667.20 761.22 1926.74 719.97 1799.91 892.67 1717.95 1043.76 1949.99 1013.47
00001832 00000021 1548.56 374.41 548.36 841.82 1667.18 759.66 1926.86 718.74 1799.17 891.45 1717.82 1043.19 1949.95 1013.08
00001833 00000022 1549.03 373.58 549.05 841.89 1666.71 758.06 1927.45 717.59 1798.37 889.34 1716.67 1042.14 1950.67 1012.45
00001834 00000023 1549.06 369.78 550.15 845.91 1667.67 756.13 1928.27 716.77 1798.11 887.69 1716.91 1040.34 1950.49 1011.51
00001835 00000024 1548.26 369.12 551.63 847.01 1667.78 755.39 1928.53 716.15 1798.55 886.52 1716.96 1039.89 1950.89 1011.10
00001836 00000025 1547.58 369.24 553.56 848.08 1667.36 754.79 1928.97 715.87 1798.39 886.13 1716.43 1040.82 1951.34 1012.30
00001837 00000026 1546.86 367.77 554.74 851.65 1667.57 755.46 1930.16 716.75 1799.26 887.73 1716.70 1042.86 1951.68 1014.56
00001838 00000027 1545.59 369.84 557.25 855.11 1668.29 758.41 1930.49 719.28 1801.47 893.22 1717.75 1046.84 1951.98 1018.08
00001839 00000028 1545.44 369.46 559.94 859.77 1669.01 760.52 1934.01 722.55 1803.64 898.48 1718.51 1050.87 1953.84 1022.92
00001840 00000029 1547.61 372.15 560.50 860.54 1670.30 763.04 1935.12 724.92 1804.65 902.09 1719.56 1054.70 1955.56 1026.70
00001841 00000030 1548.16 369.18 562.84 865.37 1671.47 762.42 1936.39 725.79 1804.97 903.51 1720.75 1055.46 1955.01 1028.54
00001842 00000031 1547.78 366.25 563.79 868.66 1672.48 761.90 1937.32 725.31 1806.08 902.75 1722.46 1055.59 1955.52 1028.71
00001843 00000032 1546.48 363.54 567.08 872.83 1673.62 761.98 1938.66 725.39 1807.76 902.19 1723.73 1056.39 1956.29 1029.50
00001844 00000033 1547.45 361.76 566.49 875.40 1674.14 760.64 1938.64 724.18 1807.67 901.68 1724.32 1056.84 1956.41 1030.00
00001845 00000034 1548.04 360.15 567.82 878.59 1674.49 759.33 1938.81 722.97 1807.01 900.23 1725.06 1057.36 1957.02 1030.64
00001846 00000035 1550.35 361.13 569.42 878.54 1674.40 759.24 1938.74 722.56 1805.23 900.68 1726.90 1058.20 1957.98 1031.22
00001847 00000036 1549.34 360.54 572.65 881.50 1673.64 760.40 1937.97 722.04 1804.27 901.61 1728.55 1059.41 1958.88 1030.98
00001848 00000037 1548.10 359.07 574.39 882.23 1672.75 760.49 1937.15 721.42 1803.71 901.75 1728.97 1060.06 1958.89 1031.04
00001849 00000038 1546.25 357.85 577.59 882.65 1671.51 760.32 1936.54 720.69 1802.87 901.99 1729.62 1060.65 1959.22 1031.09
00001850 00000039 1545.64 358.05 577.57 882.49 1669.79 760.77 1935.38 719.84 1801.95 903.07 1729.23 1061.97 1958.78 1031.34
00001851 00000040 1541.11 358.98 581.43 883.96 1668.24 765.87 1934.58 722.66 1802.12 904.91 1728.20 1064.04 1959.16 1031.80
00001852 00000041 1536.75 359.55 584.94 886.25 1664.51 773.71 1932.87 729.61 1800.56 908.80 1725.04 1065.72 1958.64 1032.99
00001853 00000042 1536.75 356.87 584.07 889.79 1664.87 772.99 1932.05 727.30 1800.65 908.89 1726.21 1066.53 1958.62 1032.47
00001854 00000043 1535.10 355.92 585.17 890.84 1664.18 771.64 1931.09 725.53 1799.96 908.13 1726.53 1066.64 1958.02 1032.14
00001855 00000044 1532.73 357.45 585.83 889.66 1661.96 769.68 1930.36 724.13 1798.46 908.06 1724.24 1068.23 1956.59 1033.98
00001856 00000045 1528.16 357.89 590.11 889.42 1658.66 769.53 1927.93 723.04 1796.12 908.93 1722.42 1069.98 1954.55 1034.90
00001857 00000046 1525.43 359.45 590.12 886.64 1655.39 769.52 1925.91 720.95 1794.45 907.71 1720.91 1070.77 1954.03 1034.11
00001858 00000047 1521.26 355.55 591.95 889.61 1652.89 768.27 1923.66 718.98 1793.43 906.30 1718.78 1069.37 1952.76 1032.12
00001859 00000048 1521.70 356.39 589.30 887.69 1651.32 766.30 1922.89 718.14 1791.54 905.45 1716.36 1068.27 1951.42 1031.83
00001860 00000049 1518.49 356.85 590.54 888.16 1649.37 766.27 1921.85 718.62 1789.93 905.57 1713.50 1067.80 1949.82 1031.78
00001861 00000050 1514.45 354.21 593.21 890.32 1646.74 764.84 1920.16 717.82 1788.34 905.57 1711.35 1067.32 1948.29 1031.56
00001862 00000051 1513.42 354.98 594.18 888.71 1645.38 763.91 1919.05 716.57 1786.89 904.42 1710.38 1067.13 1947.93 1031.14
00001863 00000052 1511.56 352.86 596.71 890.37 1643.34 763.27 1918.67 715.30 1785.69 903.58 1709.25 1067.30 1947.73 1030.82
00001864 00000053 1509.28 352.99 598.67 890.39 1642.55 763.00 1918.16 714.94 1785.50 903.27 1709.10 1067.45 1947.54 1030.82
00001865 00000054 1509.03 354.09 598.01 889.53 1642.19 762.60 1918.14 714.69 1785.57 903.71 1708.45 1067.71 1947.37 1031.10
00001866 00000055 1509.86 352.18 597.24 891.16 1642.50 761.81 1918.34 714.07 1785.56 903.71 1709.11 1067.43 1947.33 1030.92
00001867 00000056 1509.40 352.17 598.89 891.67 1642.96 760.98 1918.39 713.39 1785.78 903.23 1709.42 1066.95 1947.49 1030.45
00001868 00000057 1509.53 353.22 599.79 891.05 1642.97 760.82 1918.60 713.25 1785.70 903.22 1709.07 1066.89 1947.99 1030.39
00001869 00000058 1509.64 352.50 601.21 892.34 1643.36 760.54 1918.73 713.11 1785.58 902.97 1709.70 1066.59 1948.20 1030.16
00001870 00000059 1510.88 353.38 601.30 891.83 1644.06 760.45 1919.24 712.85 1785.73 902.89 1710.59 1066.86 1948.99 1030.31
00001871 00000060 1511.91 352.38 601.02 892.65 1644.51 760.05 1920.08 712.42 1786.00 902.26 1711.29 1066.25 1949.70 1029.69
00001872 00000061 1513.35 350.70 600.44 894.74 1646.02 759.15 1920.83 712.29 1786.49 902.08 1711.90 1065.92 1950.34 1029.98
00001873 00000062 1514.08 349.07 600.40 896.39 1646.77 758.41 1921.73 712.15 1786.96 902.11 1712.24 1065.39 1950.73 1029.91
00001874 00000063 1512.18 347.12 603.58 899.27 1647.01 757.71 1922.44 710.99 1788.13 901.18 1713.19 1065.74 1952.39 1029.78
00001875 00000064 1512.64 347.88 603.34 898.18 1647.83 757.02 1923.17 710.62 1788.87 900.99 1714.05 1065.24 1953.00 1029.47
00001876 00000065 1513.21 347.25 603.87 899.67 1648.58 757.09 1923.36 710.18 1789.09 900.16 1714.67 1065.72 1953.68 1029.66
00001877 00000066 1511.15 347.05 606.01 899.27 1648.40 756.71 1924.28 709.60 1789.61 898.69 1714.96 1065.37 1954.41 1029.14
00001878 00000067 1512.35 345.65 605.98 900.32 1649.18 756.25 1924.46 709.52 1789.87 898.50 1715.69 1064.87 1954.44 1028.94
00001879 00000068 1513.50 347.71 605.61 898.55 1649.65 755.93 1925.12 709.25 1790.12 898.11 1716.00 1064.99 1955.07 1029.10
00001880 00000069 1514.40 347.09 604.64 900.10 1650.15 756.19 1925.60 709.52 1790.47 898.71 1716.70 1065.60 1954.56 1029.75
00001881 00000070 1514.89 348.25 604.73 899.11 1650.10 756.41 1925.73 709.15 1790.81 899.13 1716.79 1065.90 1955.49 1029.52
00001882 00000071 1514.77 346.36 605.15 901.33 1650.30 756.13 1925.70 708.97 1790.59 898.76 1717.09 1065.64 1955.43 1029.40
00001883 00000072 1513.01 344.95 607.34 902.37 1649.28 756.27 1925.39 708.55 1790.71 898.13 1716.76 1065.68 1955.96 1028.99
00001884 00000073 1507.25 345.50 614.96 903.95 1646.96 765.05 1923.90 717.66 1788.85 900.25 1715.26 1066.55 1955.09 1030.48
00001885 00000074 1505.76 345.28 617.11 904.66 1645.73 764.98 1927.32 719.50 1788.35 899.65 1713.10 1065.82 1955.91 1031.34
00001886 00000075 1509.86 347.02 610.31 902.23 1648.99 761.68 1925.64 715.26 1789.03 897.76 1714.44 1065.32 1955.36 1029.90
00001887 00000076 1512.26 341.19 607.43 910.26 1650.59 758.61 1924.43 712.06 1788.95 897.16 1715.73 1064.57 1954.30 1028.92
00001888 00000077 1511.00 339.91 608.75 912.36 1649.18 756.54 1924.79 710.16 1788.34 895.91 1714.60 1063.36 1954.47 1027.72
00001889 00000078 1510.95 340.26 608.54 908.63 1649.11 753.51 1923.66 707.38 1786.15 892.04 1713.63 1059.12 1953.17 1023.80
00001890 00000079 1512.12 338.70 607.42 904.83 1648.61 749.66 1921.59 703.25 1783.56 886.93 1712.79 1054.11 1952.16 1018.66
00001891 00000080 1511.02 331.49 606.99 908.77 1647.87 744.32 1921.10 699.66 1779.81 879.01 1710.97 1049.57 1948.52 1015.72
00001892 00000081 1510.58 325.70 607.65 908.10 1645.76 738.90 1920.47 695.24 1776.92 873.84 1709.51 1044.27 1944.74 1011.23
00001893 00000082 1509.32 323.11 606.42 906.15 1643.94 734.64 1919.02 691.28 1774.56 867.21 1708.51 1039.66 1940.89 1006.89
00001894 00000083 1509.14 319.98 604.71 901.91 1641.34 729.58 1917.32 686.61 1772.64 864.77 1706.67 1034.99 1936.36 1002.33
00001895 00000084 1508.03 316.30 603.87 899.56 1638.64 726.37 1917.33 683.34 1770.77 860.18 1703.23 1031.79 1933.35 999.23
00001896 00000085 1506.64 315.51 603.49 900.38 1638.07 723.32 1914.57 681.21 1768.66 857.60 1700.41 1026.20 1930.10 994.17
00001897 00000086 1505.34 318.29 603.81 898.79 1635.28 722.15 1913.53 679.75 1766.48 853.67 1697.86 1023.37 1927.13 991.02
00001898 00000087 1504.42 317.01 604.99 900.46 1633.98 719.97 1911.82 677.81 1764.12 850.74 1696.53 1021.76 1924.25 989.55
00001899 00000088 1502.21 314.50 608.85 903.32 1632.96 719.21 1911.67 677.84 1762.51 850.51 1697.90 1023.45 1919.28 992.00
00001900 00000089 1500.66 315.77 610.38 914.28 1634.81 718.14 1913.30 677.67 1764.37 849.94 1698.65 1028.04 1922.45 997.06
00001901 00000090 1500.37 311.97 612.12 932.05 1637.83 717.72 1917.02 676.73 1769.99 850.71 1702.61 1033.70 1926.32 1002.12
00001902 00000091 1505.45 310.69 606.58 934.47 1643.68 717.91 1922.54 678.14 1776.61 850.83 1706.55 1033.81 1930.59 1003.28
00001903 00000092 1510.76 309.52 601.88 929.71 1647.43 718.44 1926.10 678.83 1780.48 850.34 1709.65 1032.39 1934.58 1002.29
00001904 00000093 1510.39 308.92 603.65 931.22 1648.56 718.87 1927.91 679.84 1782.87 850.51 1710.93 1033.56 1934.96 1003.92
00001905 00000094 1510.05 308.79 605.09 933.42 1648.72 720.10 1928.11 681.56 1783.68 852.27 1711.28 1034.45 1935.57 1005.20
00001906 00000095 1511.13 309.37 602.74 933.77 1647.78 720.23 1928.01 682.16 1781.90 852.54 1709.99 1035.17 1934.50 1006.42
00001907 00000096 1511.37 307.81 601.35 939.34 1647.37 719.82 1926.78 682.22 1780.00 853.73 1708.87 1036.73 1933.38 1008.32
00001908 00000097 1507.96 309.88 604.43 937.60 1645.58 719.96 1924.44 683.20 1777.22 855.99 1706.69 1036.94 1930.99 1009.01
00001909 00000098 1507.96 313.19 602.49 929.26 1641.84 721.23 1921.65 684.58 1771.02 857.89 1701.49 1034.58 1928.59 1006.89
00001910 00000099 1505.16 315.71 604.06 917.12 1636.98 722.57 1917.83 686.76 1764.49 861.81 1696.03 1032.78 1922.85 1005.68
00001911 00000100 1504.52 319.74 601.90 907.06 1632.59 724.52 1913.17 688.73 1758.90 863.63 1688.54 1030.06 1924.47 1002.77
00001912 00000101 1499.67 322.91 605.78 904.52 1625.99 725.29 1908.49 690.40 1751.82 862.45 1680.26 1027.66 1919.35 1001.21
00001913 00000102 1498.59 325.83 604.88 902.87 1621.01 726.68 1902.44 691.37 1746.45 864.79 1672.62 1026.20 1917.60 999.14
00001914 00000103 1496.57 325.34 603.19 904.33 1617.82 726.23 1898.69 690.87 1742.46 865.71 1668.44 1026.25 1914.69 998.89
00001915 00000104 1495.24 326.24 604.98 903.69 1615.47 726.85 1897.30 690.77 1740.46 864.86 1665.53 1025.09 1914.10 997.29
00001916 00000105 1495.44 326.31 605.24 904.38 1615.99 727.24 1897.75 691.21 1741.00 865.53 1665.89 1025.11 1915.14 997.28
00001917 00000106 1498.35 326.18 603.16 902.46 1620.36 726.53 1901.92 691.36 1745.49 864.81 1669.54 1023.57 1920.50 996.31
00001918 00000107 1500.94 324.55 606.73 903.96 1625.63 726.97 1907.17 690.10 1752.19 863.45 1678.05 1025.96 1927.49 997.60
00001919 00000108 1501.69 324.21 607.64 914.34 1634.66 725.36 1914.83 689.48 1762.79 863.44 1693.80 1032.11 1922.71 1004.71
00001920 00000109 1506.05 321.74 608.34 925.51 1645.99 729.69 1923.40 689.38 1779.82 863.28 1709.16 1042.68 1934.85 1012.16
00001921 DELETE   1520.31 322.10 604.82 922.46 1657.50 735.78 1931.71 689.34 1796.00 865.51 1725.18 1046.16 1951.16 1010.75
00001922 DELETE   1532.23 316.17 598.95 917.40 1668.98 735.10 1936.33 683.00 1812.19 864.07 1745.65 1041.69 1966.43 1000.91
00001923 DELETE   1538.36 308.89 600.38 914.50 1673.65 732.14 1942.18 676.50 1819.58 852.00 1760.96 1034.10 1973.68 991.00
00001924 00000113 1544.53 311.50 598.72 901.83 1678.43 727.47 1948.30 669.91 1826.28 843.74 1770.22 1025.62 1980.95 980.91
00001925 DELETE   1548.92 301.34 595.12 904.04 1686.79 726.21 1956.61 669.92 1839.46 831.70 1769.69 1014.10 1988.57 973.66
00001926 00000115 1541.70 305.78 607.58 894.05 1683.96 720.72 1952.87 660.82 1833.07 824.64 1781.44 1007.82 1986.05 961.54
00001927 00000116 1540.02 302.26 607.40 898.21 1677.73 717.19 1948.80 658.63 1823.09 820.67 1772.13 1002.90 1979.02 957.82
00001928 00000117 1537.77 300.83 602.67 898.82 1669.92 711.85 1943.59 658.12 1811.34 821.04 1757.46 1000.39 1965.72 959.41
00001929 00000118 1543.14 305.02 584.78 896.28 1666.77 708.41 1937.67 661.78 1798.56 818.47 1727.96 995.76 1955.82 963.35
00001930 00000119 1537.98 305.91 582.22 893.53 1659.26 706.00 1930.59 663.89 1782.89 820.80 1717.15 993.75 1942.61 964.90
00001931 00000120 1537.51 308.99 577.90 888.12 1651.44 702.94 1924.33 666.23 1766.46 819.25 1703.38 990.62 1931.70 965.77
CROP_BBOX: 1156 0 2488 1442
