Video ID: 	Li5Xi9mIvDg
H: 	1080
W: 	1920
FPS: 	29.97002997002997

FRAME INDEX X0 Y0 W H [Landmarks (5 Points)]

00020776 00000000 642.58 226.09 522.72 598.40 758.55 477.39 929.70 390.61 860.79 544.21 880.29 684.16 1015.28 609.52
00020777 DELETE   643.49 226.61 521.12 601.19 758.24 478.33 928.21 390.46 859.99 545.42 882.02 686.68 1015.09 611.42
00020778 00000002 643.96 234.81 520.92 584.65 755.16 482.47 923.55 396.33 850.35 553.65 875.71 689.37 1004.80 614.73
00020779 00000003 640.86 238.73 516.42 575.06 748.44 486.81 921.72 401.56 844.68 561.97 863.16 691.42 996.78 617.55
00020780 00000004 636.99 236.23 509.65 578.71 741.95 494.82 911.73 413.82 834.50 576.32 852.17 693.77 986.57 623.11
00020781 DELETE   634.49 243.42 511.59 572.07 738.70 504.93 903.03 417.16 825.15 579.10 851.33 700.77 978.20 624.19
00020782 00000006 632.71 250.71 508.46 565.80 736.29 505.43 900.58 420.42 822.50 588.00 852.03 703.39 976.00 629.17
00020783 00000007 633.60 247.23 505.76 573.61 742.61 507.86 904.24 423.32 832.30 587.03 860.54 704.39 979.96 631.44
00020784 00000008 637.25 241.23 514.32 583.92 747.52 512.70 910.38 421.62 839.56 589.29 870.30 706.68 995.57 628.09
00020785 00000009 641.77 241.31 522.67 589.65 755.91 518.89 918.25 422.36 851.30 587.47 880.61 707.24 1008.16 624.30
00020786 00000010 648.03 248.09 529.56 588.45 762.04 526.65 923.78 420.78 858.55 589.05 892.56 712.18 1020.33 621.63
00020787 00000011 651.06 267.76 521.76 570.53 763.43 532.01 928.87 432.37 869.06 603.08 897.99 724.56 1025.66 638.31
00020788 00000012 651.09 269.75 517.85 573.90 763.07 537.42 925.76 442.58 866.38 613.79 893.20 725.01 1024.31 642.67
00020789 00000013 651.07 274.89 516.32 568.53 763.32 539.22 923.76 447.19 866.16 619.29 892.28 727.07 1018.61 647.33
00020790 00000014 651.19 273.80 519.08 573.99 764.99 541.13 926.00 447.10 868.44 618.20 892.99 727.63 1021.91 646.19
00020791 00000015 655.29 271.49 520.41 578.92 769.86 544.33 930.94 443.57 875.67 612.27 899.85 729.66 1031.64 642.81
00020792 00000016 657.72 263.76 524.98 584.26 778.23 544.57 939.68 440.11 888.46 605.66 908.42 726.30 1039.06 636.97
00020793 00000017 669.65 250.60 530.56 595.15 784.17 533.41 956.52 436.40 896.21 607.18 916.82 718.34 1052.32 634.40
00020794 00000018 672.85 249.08 533.48 595.68 791.42 535.38 963.13 435.67 904.19 608.71 925.47 719.55 1060.91 633.77
00020795 00000019 674.48 254.63 536.58 591.26 794.32 535.65 967.65 437.50 908.26 608.39 927.71 721.07 1063.49 636.84
00020796 00000020 681.01 260.05 535.01 587.78 799.07 537.65 972.44 439.44 912.12 607.29 929.38 721.76 1066.09 637.84
00020797 00000021 686.07 259.59 528.83 589.18 803.34 540.22 973.36 439.68 915.15 608.48 932.19 723.45 1069.03 637.76
00020798 00000022 687.02 260.23 535.03 593.19 805.23 541.71 973.79 438.67 917.04 605.92 937.06 724.77 1072.11 636.90
00020799 00000023 687.89 260.88 534.48 591.52 810.42 544.59 976.59 439.38 923.83 605.63 942.59 722.98 1076.83 633.50
00020800 00000024 692.57 254.91 533.54 591.49 817.72 546.98 979.91 437.25 930.25 604.10 951.40 722.05 1082.75 628.75
00020801 00000025 696.37 250.38 535.80 598.13 822.33 546.02 985.62 434.89 934.04 605.99 955.89 722.60 1090.21 628.19
00020802 00000026 702.10 243.56 531.43 605.66 825.31 542.84 987.91 433.39 934.51 604.30 956.44 722.48 1091.82 629.03
00020803 00000027 705.53 241.34 526.19 610.04 825.95 543.78 989.05 433.39 935.53 603.80 955.93 723.84 1093.40 629.89
00020804 00000028 706.53 242.79 529.83 617.35 826.50 545.19 989.47 435.50 934.58 604.76 957.86 728.21 1093.61 635.11
00020805 00000029 707.93 240.06 530.89 622.40 827.10 543.09 991.05 436.41 934.18 606.17 956.68 728.07 1093.54 637.86
00020806 00000030 707.91 250.03 536.83 609.63 828.94 542.44 999.36 437.75 940.30 605.05 959.60 735.60 1100.06 644.74
00020807 00000031 710.42 245.19 535.79 610.73 831.55 544.18 1003.26 435.43 944.99 602.36 963.25 734.85 1104.51 640.66
00020808 00000032 719.08 243.25 529.46 610.62 836.06 539.17 1007.38 429.79 948.87 599.24 966.01 730.66 1108.55 636.67
00020809 00000033 721.69 245.85 528.68 605.69 838.52 535.06 1011.49 426.41 952.75 593.74 968.36 729.02 1109.60 635.99
00020810 00000034 724.26 243.46 525.24 608.19 840.70 533.57 1012.22 426.46 954.41 593.53 970.12 727.35 1111.79 635.41
00020811 00000035 723.19 241.86 526.36 608.26 839.32 533.27 1011.64 428.06 952.16 594.97 968.85 727.97 1109.33 637.64
00020812 00000036 723.48 239.24 525.37 612.26 837.50 532.41 1009.30 428.09 949.10 597.90 967.85 729.02 1105.70 639.39
00020813 00000037 723.07 240.80 525.60 612.89 837.48 532.43 1008.78 429.99 948.77 600.27 966.95 730.01 1105.48 641.71
00020814 00000038 724.12 233.98 525.09 624.10 838.56 534.51 1004.98 430.47 944.69 598.59 967.49 723.70 1103.93 635.83
00020815 00000039 725.61 230.65 525.37 626.61 841.40 535.66 1006.63 432.05 947.11 595.95 969.99 722.91 1104.62 635.64
00020816 00000040 726.13 225.87 527.71 628.37 842.77 535.36 1007.74 430.22 949.01 594.72 973.33 721.52 1108.24 632.93
00020817 00000041 728.98 222.06 527.96 630.17 844.16 533.62 1008.48 429.82 948.77 593.90 973.55 718.87 1109.53 631.39
00020818 00000042 729.35 223.33 526.02 627.88 843.54 532.29 1008.61 429.61 948.38 594.01 971.89 719.01 1108.44 632.46
00020819 00000043 728.72 221.08 527.58 630.43 843.87 531.84 1008.10 430.46 947.70 594.56 971.89 718.95 1107.39 633.38
00020820 00000044 731.71 224.77 519.42 624.53 847.90 532.36 1007.84 435.03 951.07 597.63 971.74 716.14 1104.98 634.18
00020821 00000045 730.73 225.63 520.36 621.99 850.18 537.28 1009.56 440.57 953.17 598.60 971.52 715.93 1103.42 635.18
00020822 00000046 733.34 225.37 519.37 622.04 851.54 539.34 1008.12 441.31 952.31 599.52 974.23 717.52 1103.07 635.89
00020823 00000047 733.16 215.77 524.88 633.03 844.43 523.37 1012.95 437.86 947.53 600.18 967.97 717.11 1105.69 642.20
00020824 00000048 734.17 216.51 527.00 632.88 845.14 518.32 1011.15 436.31 944.42 599.51 970.60 715.96 1102.30 643.86
00020825 00000049 734.08 217.72 523.50 641.37 839.01 521.75 999.67 435.55 939.32 608.80 972.91 717.48 1102.98 644.62
00020826 00000050 734.53 213.51 524.46 632.60 842.52 506.42 1007.83 432.42 936.62 597.21 968.33 712.38 1095.32 646.51
00020827 00000051 738.94 216.13 520.95 628.82 844.09 503.67 1009.61 430.21 935.85 595.09 967.78 710.83 1095.77 645.33
00020828 00000052 742.94 208.56 517.77 634.86 848.04 502.57 1011.04 429.46 936.71 592.22 968.74 708.49 1095.47 643.24
00020829 00000053 741.67 207.74 516.52 634.98 846.53 500.86 1012.37 428.59 935.34 590.56 965.92 707.55 1094.72 642.94
00020830 00000054 743.66 203.48 508.61 634.95 846.95 497.63 1011.07 427.63 933.76 590.20 964.76 706.92 1090.01 644.47
00020831 00000055 747.54 205.16 503.17 631.30 848.58 495.71 1010.59 429.03 931.77 589.67 963.92 704.99 1086.83 645.38
00020832 00000056 750.17 218.53 494.71 622.45 851.24 503.07 1003.06 432.86 931.08 588.40 961.34 704.55 1085.60 644.46
00020833 00000057 746.55 217.01 496.89 623.46 849.24 502.42 1000.33 433.21 928.57 588.90 959.72 703.77 1082.67 644.56
00020834 00000058 749.96 211.35 495.68 633.73 844.07 498.55 991.28 432.54 922.50 596.11 963.19 702.68 1079.13 646.21
00020835 00000059 749.25 206.90 493.19 636.70 842.92 497.51 987.19 432.00 919.40 594.78 960.79 701.59 1074.23 645.50
00020836 00000060 745.21 212.37 491.06 626.94 845.66 504.58 992.42 433.76 921.86 584.98 953.21 704.17 1072.97 643.65
00020837 00000061 745.11 214.93 494.50 624.45 844.33 504.27 992.25 432.17 919.67 583.71 953.35 704.53 1073.04 642.98
00020838 00000062 744.16 218.39 488.45 617.75 844.89 505.24 991.09 433.06 922.08 584.80 952.83 702.37 1073.28 640.64
00020839 00000063 740.78 219.86 492.80 612.10 844.94 506.42 992.15 433.61 925.47 586.55 953.38 700.34 1075.07 637.99
00020840 00000064 742.81 217.17 487.28 615.73 846.67 508.89 991.65 437.03 927.90 590.93 952.58 698.95 1078.99 636.76
00020841 00000065 742.00 214.98 488.80 620.02 846.23 510.06 991.09 437.79 926.83 590.50 952.37 699.47 1079.86 636.84
00020842 00000066 739.11 212.36 489.23 621.76 842.67 509.18 989.86 439.00 923.34 592.33 949.49 699.75 1077.04 638.60
00020843 00000067 738.94 208.97 494.97 629.90 842.00 510.98 990.93 440.59 920.65 592.49 949.86 702.55 1078.86 641.21
00020844 00000068 738.38 209.22 493.70 633.21 841.70 509.25 990.67 443.39 919.61 593.34 949.03 702.06 1076.28 644.67
00020845 00000069 740.15 218.22 495.65 625.12 842.31 511.21 992.32 445.79 919.71 596.08 950.10 704.63 1077.78 647.63
00020846 00000070 740.32 218.17 495.02 624.60 842.38 513.91 990.03 448.01 918.61 598.34 949.94 703.23 1077.61 645.68
00020847 00000071 741.01 222.32 486.95 612.48 838.32 517.00 984.80 449.48 913.37 601.55 946.08 704.14 1074.05 645.11
00020848 00000072 739.52 220.54 487.86 613.45 834.70 517.13 982.26 449.00 909.57 602.90 943.62 707.09 1071.27 647.59
00020849 00000073 740.22 220.61 487.02 615.07 836.61 517.13 985.32 449.54 912.34 600.79 944.59 707.26 1072.66 648.46
00020850 00000074 742.47 223.04 491.09 616.20 839.60 513.11 989.37 448.44 913.08 598.47 947.49 708.06 1072.18 651.88
00020851 00000075 743.40 223.61 490.16 615.18 840.69 514.12 991.68 449.51 914.74 599.04 948.71 708.71 1074.41 652.68
00020852 00000076 745.72 224.92 489.08 615.50 841.10 513.61 991.98 450.99 912.70 598.99 947.17 709.82 1072.17 655.51
00020853 00000077 747.41 223.99 489.29 616.05 842.96 514.82 992.12 452.71 912.06 600.18 949.14 710.15 1071.15 656.48
00020854 00000078 749.18 223.07 485.90 615.22 844.68 513.23 993.00 453.07 914.06 599.14 950.67 709.03 1071.18 656.76
00020855 00000079 751.34 221.50 486.52 615.59 848.94 512.33 995.82 453.13 919.65 598.90 954.55 707.58 1073.03 656.22
00020856 00000080 755.19 222.01 487.07 613.79 850.88 511.67 999.75 449.75 923.74 600.52 957.93 707.10 1078.89 653.20
00020857 00000081 757.31 208.22 489.21 628.87 839.47 502.62 990.00 446.49 911.77 610.85 958.63 710.52 1083.06 659.98
00020858 00000082 758.34 208.58 489.14 627.51 839.42 501.70 990.09 447.07 910.00 610.73 957.94 711.29 1080.74 662.14
00020859 00000083 758.70 209.89 489.43 628.36 839.70 500.74 989.95 447.14 909.13 610.39 957.83 711.41 1079.80 663.14
00020860 00000084 760.54 212.31 487.52 625.22 842.16 500.91 990.30 448.17 910.67 610.66 959.27 711.02 1079.17 663.54
00020861 00000085 761.84 212.36 484.13 623.69 844.58 500.47 991.28 446.57 915.98 611.45 964.37 709.14 1083.73 660.44
00020862 00000086 763.76 209.53 483.07 627.33 847.40 501.30 991.73 446.47 918.82 609.62 968.26 708.51 1086.30 659.09
00020863 00000087 765.09 213.22 480.83 623.21 847.19 503.23 993.46 448.91 918.78 610.59 967.02 710.46 1085.35 661.59
00020864 00000088 766.28 205.60 476.87 633.37 855.72 507.64 994.46 458.89 919.09 613.98 970.56 704.03 1075.79 661.73
00020865 00000089 766.31 205.53 475.83 632.26 855.51 512.62 997.18 462.36 921.62 616.20 969.77 706.75 1076.85 663.44
00020866 00000090 767.55 219.77 477.17 616.37 855.42 517.74 1000.74 463.08 923.21 617.52 970.38 710.61 1079.72 663.72
00020867 00000091 766.59 218.54 483.11 621.30 857.06 519.41 1003.28 465.28 924.86 620.52 972.04 714.17 1079.57 667.65
00020868 00000092 766.23 226.97 485.14 614.01 857.64 518.49 1001.26 465.96 924.85 617.88 974.30 715.47 1080.23 667.94
00020869 00000093 767.33 229.90 482.09 611.47 858.41 521.95 1000.30 469.79 924.28 622.49 975.38 717.07 1079.71 670.04
00020870 00000094 768.19 233.85 478.90 610.49 860.08 523.64 997.75 473.18 924.81 627.58 977.11 718.78 1078.87 673.29
00020871 00000095 767.65 231.23 478.92 610.60 858.78 528.76 997.23 473.54 925.99 630.62 979.51 722.65 1081.79 673.20
00020872 00000096 768.88 241.00 476.71 600.67 858.01 532.77 998.74 477.45 925.89 634.86 979.00 724.65 1083.01 675.19
00020873 00000097 769.18 242.98 481.95 606.90 860.73 539.80 998.60 484.33 926.87 636.79 978.36 726.69 1083.81 677.10
00020874 00000098 768.59 252.24 483.37 599.04 861.44 543.61 998.40 490.22 926.36 644.05 980.95 730.85 1084.32 683.47
00020875 00000099 765.57 255.90 490.65 603.27 849.83 547.35 992.01 494.39 922.05 656.37 976.78 739.38 1092.92 692.09
00020876 00000100 759.44 259.68 494.81 609.02 845.92 546.50 989.75 495.68 918.65 664.81 977.80 746.68 1093.38 701.07
00020877 00000101 754.54 278.95 492.65 588.07 855.19 562.61 1000.86 501.49 930.21 661.53 973.52 752.90 1083.73 699.54
00020878 00000102 751.54 272.29 493.56 588.82 851.32 560.76 999.05 498.37 928.59 660.26 970.97 752.72 1081.01 698.28
00020879 00000103 751.65 274.76 488.77 578.17 850.34 556.94 997.57 495.19 926.81 657.34 966.83 746.40 1078.78 692.31
00020880 00000104 753.86 258.73 480.08 589.49 851.35 538.60 1001.58 487.68 930.09 643.79 963.12 732.30 1074.85 687.74
00020881 00000105 754.31 253.57 480.92 593.38 850.65 531.71 1000.61 480.94 929.27 637.02 961.47 729.48 1071.62 685.29
00020882 00000106 754.98 251.44 483.41 587.18 849.57 526.28 997.31 473.09 925.96 630.35 962.76 721.62 1070.68 675.28
CROP_BBOX: 434 0 1511 1022
