Video ID: 	oRfP_D0XrBw
H: 	1080
W: 	1920
FPS: 	25.0

FRAME INDEX X0 Y0 W H [Landmarks (5 Points)]

00003109 00000000 826.59 240.94 352.28 518.38 1059.15 413.11 1139.99 428.72 1179.15 538.67 1047.34 619.18 1108.21 637.08
00003110 00000001 824.65 234.61 350.73 519.97 1053.10 412.67 1136.19 427.86 1173.61 534.40 1044.25 615.23 1107.03 632.17
00003111 00000002 825.16 230.80 350.08 520.34 1049.72 412.50 1129.16 422.40 1172.16 530.01 1038.44 610.05 1098.65 623.21
00003112 DELETE   825.72 225.67 348.29 520.20 1046.25 409.45 1127.49 418.12 1167.73 524.67 1035.62 604.03 1097.38 615.96
00003113 00000004 826.20 220.87 346.90 521.71 1043.55 405.20 1125.66 415.63 1163.53 518.94 1033.50 598.76 1097.24 612.05
00003114 00000005 824.49 219.20 347.36 521.63 1042.89 403.48 1124.43 413.81 1160.86 516.09 1031.11 595.55 1096.31 608.88
00003115 00000006 825.10 218.31 347.69 523.92 1042.78 402.12 1124.41 412.58 1161.73 513.73 1031.24 594.63 1096.55 608.13
00003116 00000007 823.57 213.79 347.59 526.67 1042.31 400.71 1121.98 411.49 1159.42 512.65 1026.66 591.48 1092.54 605.63
00003117 00000008 820.83 214.79 349.14 526.63 1041.29 403.45 1121.67 412.68 1157.15 514.13 1023.81 592.32 1091.14 605.31
00003118 00000009 817.87 215.52 349.99 524.88 1040.01 405.40 1122.96 415.94 1154.10 518.22 1021.72 593.41 1091.75 607.04
00003119 00000010 813.48 221.04 353.10 523.32 1037.73 407.84 1122.70 420.21 1152.55 523.44 1020.54 597.88 1091.60 612.62
00003120 00000011 811.91 225.85 351.96 523.52 1036.22 409.50 1118.39 421.56 1151.66 526.46 1017.47 602.20 1086.17 617.07
00003121 DELETE   802.76 224.68 355.80 535.54 1033.20 405.12 1113.84 414.00 1154.49 535.79 1013.98 614.59 1080.12 626.14
00003122 00000013 796.26 227.41 358.00 534.27 1030.72 407.24 1108.32 416.14 1149.45 535.36 1011.28 614.85 1076.12 626.52
00003123 DELETE   793.19 231.04 358.59 532.18 1027.05 409.72 1104.09 416.92 1146.64 536.59 1008.97 617.18 1073.05 627.74
00003124 00000015 788.90 230.12 361.10 529.78 1023.54 411.93 1101.88 417.72 1144.44 536.67 1008.09 616.52 1072.75 625.94
00003125 DELETE   787.73 230.85 361.59 525.74 1021.84 412.61 1103.30 416.93 1144.51 536.90 1009.02 616.28 1075.45 624.26
00003126 00000017 785.45 230.86 363.26 524.57 1020.96 412.86 1103.12 417.39 1143.82 536.93 1008.93 615.64 1076.32 623.62
00003127 00000018 790.74 230.93 359.85 525.22 1024.02 411.58 1103.50 415.43 1146.60 535.95 1008.85 615.44 1074.25 623.14
00003128 00000019 790.47 228.08 360.09 529.05 1025.13 409.79 1100.78 413.40 1144.82 533.34 1007.65 613.69 1070.85 621.18
00003129 00000020 795.78 225.35 353.90 530.42 1022.78 405.54 1102.10 411.46 1143.68 529.55 1003.16 608.99 1070.19 618.45
00003130 DELETE   795.73 217.68 352.96 530.68 1023.38 395.69 1099.22 406.68 1140.56 524.70 994.79 600.99 1060.67 614.81
00003131 DELETE   798.82 209.85 349.23 525.30 1021.81 387.05 1097.14 397.58 1135.62 516.28 990.07 589.42 1058.72 602.39
00003132 00000023 794.42 200.04 351.76 527.52 1021.69 381.27 1093.87 390.17 1133.84 507.49 987.81 579.70 1056.07 591.42
00003133 00000024 790.66 194.86 351.40 527.62 1018.88 379.78 1092.81 388.44 1131.96 503.63 990.14 577.69 1058.71 588.58
00003134 00000025 791.80 197.05 349.79 525.18 1017.57 380.07 1092.81 389.54 1130.15 504.26 988.49 577.25 1057.86 588.75
00003135 00000026 793.94 200.26 351.07 527.32 1021.43 380.97 1094.56 390.62 1132.80 507.34 988.74 579.17 1057.45 591.29
00003136 00000027 797.23 203.08 349.93 529.05 1021.76 383.78 1096.72 393.53 1133.11 511.11 988.05 583.11 1058.18 595.35
00003137 00000028 795.54 206.80 351.03 529.81 1020.49 385.90 1095.31 396.21 1132.78 512.44 989.24 586.19 1058.51 599.06
00003138 00000029 794.31 208.87 349.68 530.91 1016.78 388.81 1092.77 399.34 1131.05 515.84 983.85 589.50 1054.27 602.78
00003139 00000030 794.22 213.10 348.39 527.09 1014.19 390.31 1093.13 402.16 1129.24 516.60 982.26 589.86 1054.44 604.25
00003140 00000031 789.90 215.29 347.65 524.65 1008.29 395.43 1093.40 404.82 1126.74 520.80 976.49 591.59 1054.59 604.23
00003141 00000032 784.37 218.37 348.45 518.71 1006.57 399.62 1092.34 406.80 1122.66 522.55 973.42 589.98 1052.18 600.89
00003142 00000033 781.36 220.35 349.08 515.80 1004.74 400.66 1089.95 407.18 1120.43 522.03 970.63 589.13 1048.98 599.70
00003143 00000034 780.98 219.29 349.39 514.48 1003.54 400.85 1089.93 406.51 1119.13 522.19 968.53 588.25 1048.57 598.08
00003144 00000035 779.65 220.58 347.78 513.81 1002.28 403.25 1086.42 408.14 1117.75 522.23 967.69 588.58 1044.97 597.85
00003145 00000036 776.69 221.15 348.53 511.22 1000.65 403.20 1086.09 407.50 1115.48 522.29 966.45 588.14 1044.50 596.87
00003146 00000037 771.99 223.63 350.41 508.24 993.69 404.28 1083.51 407.28 1110.65 522.12 961.44 588.60 1043.83 596.50
00003147 00000038 768.26 222.45 348.60 508.47 990.96 403.34 1078.29 408.12 1106.86 520.48 959.52 588.10 1038.38 597.75
00003148 00000039 766.82 221.81 345.44 505.71 987.25 403.72 1071.34 407.87 1098.68 515.47 954.33 582.35 1031.19 591.78
00003149 00000040 760.95 212.99 339.88 509.59 982.32 400.39 1060.98 405.99 1096.88 515.43 953.59 581.89 1021.44 589.72
00003150 00000041 756.25 211.14 339.56 511.93 977.27 392.38 1054.02 399.83 1094.15 510.97 945.54 579.74 1013.50 589.40
00003151 00000042 754.75 209.74 336.80 514.34 975.84 386.05 1049.36 396.60 1092.73 509.44 938.17 577.16 1005.01 589.80
00003152 00000043 745.59 205.68 341.79 518.35 972.91 379.21 1047.42 393.55 1086.51 505.59 933.39 573.03 1001.05 588.67
00003153 00000044 739.23 203.16 346.42 525.17 968.41 384.93 1045.66 392.83 1085.09 500.77 927.94 570.03 997.08 582.75
00003154 DELETE   736.22 201.00 344.71 519.71 967.40 368.60 1037.53 388.48 1076.42 502.71 918.93 566.14 986.72 587.25
00003155 00000046 733.43 202.94 344.03 519.90 966.12 369.87 1031.93 389.16 1072.01 503.88 916.79 566.99 981.95 587.82
00003156 00000047 732.46 201.40 341.90 521.96 959.99 373.65 1026.01 388.40 1066.65 506.84 911.50 569.55 977.85 587.06
00003157 DELETE   724.80 202.80 345.78 521.75 955.92 374.90 1021.59 387.45 1063.92 507.22 908.25 571.53 974.26 587.32
00003158 00000049 718.63 197.36 344.49 518.81 947.98 376.48 1016.95 385.49 1056.59 502.96 905.83 568.92 972.83 581.26
00003159 00000050 713.24 192.84 343.22 519.04 941.28 380.64 1013.21 387.03 1051.30 501.30 908.24 570.54 974.13 580.07
00003160 00000051 711.07 185.49 337.77 533.11 920.04 397.06 1010.32 382.93 1054.55 500.91 903.21 580.18 981.90 575.23
00003161 DELETE   705.09 190.29 339.85 532.11 916.70 399.01 1006.77 384.63 1048.92 501.93 899.15 582.07 978.76 576.76
00003162 DELETE   702.10 192.96 340.46 532.90 914.33 398.05 1004.50 385.36 1045.39 502.64 890.74 582.23 972.28 578.61
00003163 00000054 695.39 207.34 336.13 514.16 915.77 390.45 993.45 394.95 1031.45 508.29 888.92 581.25 953.56 587.97
00003164 00000055 691.11 209.62 334.59 508.31 910.18 390.70 991.20 397.65 1026.62 510.70 887.34 582.56 952.45 590.64
00003165 00000056 690.78 203.96 342.00 519.77 901.26 404.29 995.48 394.83 1032.62 507.96 882.54 588.15 965.89 585.52
00003166 00000057 686.91 209.63 334.63 505.00 903.41 394.26 989.13 400.31 1026.15 510.68 889.93 587.58 956.62 594.63
00003167 00000058 689.05 206.06 339.74 521.00 898.68 401.79 987.17 396.57 1027.69 508.28 880.52 589.27 957.35 591.25
00003168 00000059 689.04 207.01 337.25 525.75 896.83 401.88 985.68 398.44 1024.24 509.58 871.86 588.90 952.30 592.94
00003169 00000060 687.31 207.61 335.58 522.89 895.34 401.08 984.53 398.77 1020.86 509.30 866.56 585.33 948.41 590.76
00003170 00000061 686.60 206.97 333.40 518.05 893.22 397.50 983.29 394.64 1017.87 505.96 863.92 579.91 946.40 585.28
00003171 00000062 686.11 204.20 333.17 513.90 893.33 394.26 982.30 391.36 1017.72 503.84 865.87 576.77 946.09 582.02
00003172 00000063 684.23 205.00 335.39 506.66 895.33 395.43 985.17 390.76 1021.53 505.47 862.56 575.62 946.69 577.99
00003173 00000064 683.65 203.93 335.58 505.16 895.24 394.83 984.45 389.81 1021.10 505.53 862.30 574.39 945.83 576.65
00003174 00000065 685.42 204.37 335.84 504.49 896.91 394.34 986.90 388.14 1023.71 505.24 864.51 574.02 949.01 575.52
00003175 00000066 686.65 203.28 340.73 508.43 902.60 393.40 990.91 386.58 1029.51 504.54 870.22 575.48 952.67 576.53
00003176 00000067 694.00 200.95 337.11 521.57 905.39 395.31 997.10 385.76 1033.84 504.01 874.75 576.78 961.06 576.28
00003177 00000068 696.87 200.62 339.75 523.04 910.78 396.62 1001.21 386.24 1038.71 504.31 882.04 578.59 965.52 577.13
00003178 00000069 703.12 200.43 337.09 523.81 916.63 399.65 1005.06 388.68 1043.96 506.14 887.04 579.60 970.38 577.38
00003179 00000070 708.81 202.64 336.58 521.85 921.14 400.59 1012.14 389.46 1048.73 508.64 890.11 579.67 975.59 577.23
00003180 DELETE   715.90 202.94 333.82 521.20 925.87 401.08 1015.31 392.61 1053.13 508.58 893.32 578.72 977.46 577.96
00003181 DELETE   719.94 200.47 335.19 522.16 932.11 399.54 1020.53 392.31 1058.43 506.07 900.86 578.84 982.15 578.47
00003182 00000073 723.76 207.40 336.18 507.42 951.74 382.60 1021.60 396.84 1054.08 508.88 911.03 571.67 978.49 586.87
00003183 00000074 729.58 209.81 336.44 507.33 958.53 382.86 1024.27 395.93 1059.31 510.76 914.29 571.98 978.96 586.50
00003184 00000075 737.75 208.15 336.56 513.68 948.17 399.54 1033.91 393.85 1072.37 505.72 914.71 577.48 996.25 578.41
00003185 00000076 742.30 209.22 336.86 514.07 953.02 399.98 1038.56 394.61 1075.85 506.87 917.09 577.65 999.90 578.97
00003186 00000077 747.53 210.05 335.14 515.31 957.88 402.21 1043.65 398.80 1080.15 509.47 919.86 578.79 1003.01 581.56
00003187 00000078 751.19 214.62 337.83 516.73 961.57 406.25 1047.99 403.85 1080.33 516.05 922.71 584.79 1004.78 590.62
00003188 00000079 753.42 218.09 337.51 514.57 961.55 410.59 1050.76 406.94 1081.80 519.54 924.20 587.13 1009.45 591.66
00003189 00000080 755.70 220.08 336.46 512.97 961.49 412.87 1052.21 408.60 1082.08 521.05 922.57 587.33 1010.28 591.55
00003190 00000081 756.94 219.95 335.35 511.24 961.91 414.42 1052.90 409.95 1081.98 522.28 921.77 586.71 1010.30 590.79
00003191 00000082 755.09 219.39 336.45 511.75 960.60 412.88 1052.00 408.68 1081.56 520.22 923.39 586.27 1011.54 590.40
00003192 00000083 753.52 213.82 336.04 519.68 960.45 409.17 1047.93 405.41 1081.45 516.72 924.02 586.19 1007.80 590.84
00003193 00000084 753.23 210.89 336.75 526.06 960.48 407.32 1046.50 404.01 1082.64 514.72 926.20 587.69 1008.15 592.61
00003194 00000085 752.30 210.91 336.32 528.71 958.58 409.17 1043.87 404.42 1081.84 515.50 927.37 590.30 1007.17 593.81
00003195 00000086 751.82 213.69 337.33 522.10 958.20 410.89 1043.39 404.61 1081.34 515.80 931.84 591.72 1009.16 593.52
00003196 00000087 747.66 210.80 339.79 523.08 956.20 410.51 1042.53 404.11 1079.53 514.82 937.32 592.72 1012.28 593.82
00003197 00000088 746.25 210.03 340.51 523.15 955.87 410.14 1041.52 403.91 1078.89 514.12 939.77 594.25 1012.49 595.17
00003198 00000089 745.18 219.13 335.40 512.30 964.14 396.59 1043.40 406.07 1075.90 521.72 941.44 593.73 1008.31 603.98
00003199 00000090 747.12 217.67 334.05 514.46 963.97 395.22 1043.99 404.76 1078.31 520.11 942.60 594.11 1009.93 604.41
00003200 00000091 749.01 212.62 332.98 515.03 963.10 394.63 1045.42 405.34 1081.10 515.84 945.98 592.01 1014.18 602.82
00003201 00000092 750.06 212.96 333.68 512.03 964.72 395.11 1048.01 404.49 1084.36 514.72 949.14 591.33 1017.15 600.97
00003202 00000093 751.18 213.49 332.87 511.62 965.24 393.47 1048.60 404.16 1086.26 513.76 949.52 590.69 1017.49 601.38
00003203 00000094 751.92 217.51 334.61 513.28 967.69 394.51 1049.12 405.58 1087.52 516.48 945.28 589.27 1013.68 600.89
00003204 00000095 760.13 227.99 330.65 505.99 970.74 408.10 1045.32 419.33 1080.09 516.20 941.85 584.32 1010.65 600.06
00003205 00000096 759.64 229.44 333.66 504.38 970.49 412.80 1045.30 423.13 1081.46 523.89 939.72 587.92 1009.75 602.96
00003206 00000097 759.76 234.53 334.87 497.11 969.61 415.07 1050.66 424.23 1082.36 527.22 944.26 591.54 1017.01 604.86
00003207 00000098 758.57 235.47 337.58 495.44 970.43 415.48 1052.06 422.77 1084.58 526.87 946.83 592.61 1019.81 604.34
00003208 00000099 758.92 231.34 336.98 497.97 969.96 415.21 1051.83 421.03 1083.44 524.12 944.94 589.07 1020.20 599.88
00003209 00000100 757.80 228.67 337.32 500.21 969.48 414.60 1052.90 419.79 1083.34 522.80 943.93 588.02 1021.33 598.44
00003210 00000101 759.21 228.19 339.13 501.00 971.62 413.09 1058.07 417.09 1086.38 522.75 946.92 589.42 1025.36 598.82
00003211 00000102 760.81 232.26 340.85 501.14 978.17 412.75 1057.35 417.89 1091.83 525.89 950.78 591.94 1021.39 602.49
00003212 00000103 765.66 233.19 338.67 500.29 983.81 415.31 1061.88 420.17 1096.77 529.57 955.14 594.97 1023.51 605.21
00003213 00000104 768.04 233.86 339.20 499.61 986.21 414.39 1067.85 420.74 1099.43 530.78 957.26 595.82 1028.07 606.97
00003214 00000105 772.64 218.89 340.33 519.64 983.86 423.66 1073.42 412.82 1106.97 529.85 958.05 601.40 1036.42 599.32
00003215 00000106 775.05 220.15 339.94 516.30 988.68 423.30 1073.58 412.25 1110.41 528.25 961.58 599.30 1036.45 597.15
00003216 00000107 774.60 215.51 341.63 517.83 990.68 419.51 1073.34 408.34 1111.03 523.59 963.58 594.66 1036.90 592.75
00003217 00000108 777.77 213.11 339.63 518.94 990.30 415.74 1074.43 404.59 1111.01 519.44 964.89 590.79 1040.02 589.21
00003218 00000109 781.66 210.85 337.57 521.22 991.95 414.25 1076.44 402.13 1114.78 517.98 969.00 590.00 1044.01 587.68
00003219 00000110 787.07 213.15 335.92 521.68 996.31 415.17 1082.74 404.14 1121.32 519.65 970.47 591.12 1049.50 589.94
00003220 00000111 791.83 226.41 340.10 506.19 1012.51 403.88 1093.72 412.60 1122.08 526.25 980.90 589.70 1054.82 601.01
00003221 00000112 801.47 226.92 336.89 508.49 1023.70 404.71 1096.31 414.32 1129.81 527.75 993.06 593.61 1057.84 605.45
00003222 00000113 805.10 217.29 340.43 516.17 1018.92 416.70 1102.77 408.63 1140.19 519.29 1001.16 596.19 1073.85 595.65
00003223 00000114 810.48 214.43 340.03 518.52 1022.85 414.95 1106.73 407.40 1144.51 518.12 1007.60 597.19 1078.77 596.85
00003224 00000115 816.86 212.80 337.47 523.43 1025.47 413.56 1108.42 405.80 1147.35 516.72 1008.80 596.59 1080.41 596.33
00003225 00000116 820.57 211.77 337.74 524.34 1028.69 410.53 1111.09 403.56 1151.40 515.29 1009.97 594.43 1081.86 595.15
00003226 00000117 821.89 209.30 336.97 526.95 1030.91 409.78 1111.84 404.50 1152.11 515.64 1007.22 591.87 1079.99 594.16
00003227 00000118 824.80 210.30 335.72 525.62 1033.70 409.68 1114.91 405.15 1153.96 515.77 1007.51 590.06 1081.98 593.26
00003228 00000119 827.52 208.77 334.27 525.73 1036.17 409.79 1118.35 404.93 1155.58 516.15 1006.90 587.80 1083.40 591.07
00003229 00000120 828.73 208.01 335.08 525.76 1036.96 409.54 1121.66 403.27 1157.49 516.77 1007.12 587.44 1085.74 589.77
00003230 00000121 829.81 206.01 334.04 526.53 1037.66 408.40 1121.41 402.94 1158.48 515.08 1007.76 585.97 1085.63 588.95
00003231 00000122 828.24 203.32 334.46 524.47 1038.27 405.49 1120.09 400.47 1158.32 512.05 1009.88 582.79 1084.35 586.23
00003232 00000123 827.31 204.41 334.60 519.76 1039.49 404.38 1120.57 398.17 1162.73 509.77 1008.30 581.31 1083.02 581.83
00003233 00000124 828.05 205.03 332.20 518.14 1038.30 404.21 1119.10 398.48 1160.46 510.52 1005.48 580.14 1080.19 581.03
00003234 00000125 828.46 204.98 330.99 521.62 1034.74 407.06 1117.86 401.73 1153.40 514.02 1003.70 581.91 1080.49 585.33
00003235 00000126 825.57 206.32 330.89 521.38 1032.52 407.44 1115.08 404.35 1149.46 514.00 1000.75 581.47 1077.64 586.26
00003236 00000127 819.91 208.71 332.24 516.71 1030.21 405.90 1110.34 402.18 1151.31 510.88 996.38 580.47 1071.59 582.40
00003237 00000128 814.29 208.33 334.15 516.09 1027.60 405.75 1106.49 400.19 1148.96 509.31 994.89 579.17 1069.35 580.14
00003238 00000129 810.55 209.30 331.97 517.13 1022.29 406.42 1100.97 400.34 1144.28 508.63 990.62 579.16 1066.17 579.64
00003239 00000130 806.19 213.92 332.63 514.85 1019.11 408.79 1098.25 401.69 1138.17 511.51 987.78 581.16 1061.62 582.85
00003240 00000131 803.41 216.66 332.90 514.34 1014.68 413.03 1097.34 404.79 1134.83 515.50 981.64 584.55 1059.73 585.52
00003241 00000132 798.88 210.75 336.29 520.58 1011.23 411.96 1095.34 403.86 1132.93 512.85 980.91 583.79 1059.76 584.88
00003242 00000133 796.15 209.32 333.63 519.84 1006.93 409.94 1091.71 403.35 1129.37 510.60 977.62 581.37 1056.96 583.59
00003243 00000134 794.18 210.47 331.95 518.20 1003.03 407.86 1089.03 402.93 1126.05 509.92 975.26 580.21 1055.30 583.50
00003244 00000135 793.95 208.01 328.53 520.65 1000.06 406.48 1085.89 400.98 1122.65 509.56 971.73 578.07 1052.23 581.24
00003245 00000136 793.37 206.29 327.16 521.85 998.92 405.27 1082.09 399.68 1120.92 509.02 970.83 577.40 1048.57 580.49
00003246 00000137 794.50 204.16 325.37 522.72 998.77 404.90 1080.57 398.91 1120.65 508.84 970.23 576.21 1046.87 579.12
00003247 00000138 794.38 203.96 326.62 523.28 999.74 404.56 1082.73 398.74 1121.71 508.40 970.32 576.01 1048.33 579.08
00003248 00000139 794.97 208.23 326.60 518.76 1000.77 404.60 1087.04 400.82 1121.85 509.87 969.36 575.67 1051.08 580.30
00003249 00000140 797.80 208.68 325.68 518.77 1003.62 406.48 1089.59 402.88 1123.75 510.75 968.03 574.76 1051.64 579.79
00003250 00000141 800.86 208.15 326.53 519.30 1010.67 405.76 1092.37 401.91 1128.92 511.47 969.67 574.08 1050.05 579.34
00003251 00000142 804.98 208.10 325.96 523.49 1016.33 404.54 1094.06 400.53 1133.89 511.36 972.30 574.06 1050.25 579.49
00003252 00000143 810.12 214.28 327.39 522.94 1021.40 404.62 1098.38 401.54 1139.83 510.82 978.54 577.08 1056.56 582.67
00003253 00000144 818.90 212.57 329.58 526.86 1028.11 407.09 1106.42 406.17 1145.63 516.20 981.64 579.51 1062.61 587.31
00003254 00000145 825.29 216.10 328.84 524.28 1032.48 408.20 1111.87 408.81 1150.66 519.13 982.40 581.17 1065.83 590.30
00003255 00000146 825.81 215.56 329.72 522.97 1035.71 406.19 1116.26 407.66 1151.54 518.41 983.49 578.60 1068.00 588.59
00003256 00000147 828.83 214.79 328.00 523.07 1036.37 406.05 1118.36 407.07 1152.10 518.97 982.49 577.10 1069.17 587.15
00003257 00000148 828.51 210.40 328.67 523.60 1037.77 403.10 1117.74 401.97 1151.80 514.87 983.40 572.70 1067.37 581.69
00003258 00000149 831.20 208.96 328.07 524.53 1039.68 401.12 1119.35 399.55 1155.16 511.38 985.10 570.97 1069.27 580.04
00003259 00000150 833.00 208.61 327.50 524.02 1042.93 399.90 1121.56 398.41 1156.77 508.83 985.38 567.80 1069.69 577.56
00003260 00000151 834.68 208.70 326.52 524.88 1044.27 399.88 1121.34 398.83 1157.77 509.04 985.50 568.29 1068.95 578.51
00003261 00000152 826.38 219.31 333.92 514.90 1051.75 378.67 1115.24 399.63 1158.82 512.22 983.93 564.38 1053.90 587.64
00003262 00000153 835.94 214.29 328.53 522.09 1052.11 390.44 1109.44 403.76 1152.90 509.90 985.03 555.71 1056.84 576.58
00003263 00000154 833.58 208.97 327.23 526.91 1042.83 401.58 1120.42 400.49 1156.65 511.90 984.58 570.70 1068.48 580.50
00003264 00000155 835.03 212.02 327.90 528.18 1044.67 407.79 1123.58 406.89 1160.29 517.15 985.93 576.38 1070.95 585.82
CROP_BBOX: 518 0 1344 893
