Video ID: 	1KcwVBmfSS0
H: 	1080
W: 	1920
FPS: 	25.0

FRAME INDEX X0 Y0 W H [Landmarks (5 Points)]

00002435 00000000 680.98 246.03 373.65 543.32 784.07 437.15 947.18 424.12 878.49 556.05 819.03 650.51 947.88 638.61
00002436 DELETE   683.93 237.28 369.42 543.68 791.00 433.43 951.59 419.31 890.39 544.26 826.20 645.36 953.57 632.98
00002437 DELETE   684.44 230.52 364.84 534.56 791.67 428.61 955.87 411.64 898.63 527.44 827.33 632.87 957.41 619.06
00002438 00000003 684.26 217.14 360.27 536.14 787.97 417.70 955.03 397.98 896.74 518.86 827.00 623.07 957.36 606.91
00002439 00000004 678.86 213.43 360.01 535.90 783.07 408.42 952.15 386.60 893.23 509.50 822.29 613.41 955.68 595.10
00002440 00000005 674.40 212.65 359.85 531.61 777.55 404.93 948.69 381.16 890.76 506.30 818.51 609.46 952.77 589.97
00002441 00000006 670.26 210.88 358.98 528.17 778.41 400.04 941.85 378.50 884.43 507.19 817.75 601.97 951.20 583.40
00002442 00000007 663.68 207.01 361.05 531.88 773.94 397.78 936.28 375.25 882.16 506.91 814.68 600.44 947.47 580.72
00002443 00000008 659.68 206.58 360.74 527.78 770.17 396.01 932.16 374.15 878.16 506.47 811.58 599.21 941.70 580.07
00002444 00000009 658.20 206.34 356.99 521.76 767.38 391.76 927.74 371.38 876.89 501.50 811.07 596.45 937.79 578.64
00002445 00000010 657.80 203.26 354.96 522.78 766.73 385.66 926.53 365.75 877.31 493.97 812.36 593.72 938.63 576.17
00002446 00000011 658.40 195.74 351.34 531.07 769.02 379.34 924.95 359.14 878.82 488.58 812.54 592.69 936.34 574.82
00002447 00000012 657.27 192.21 351.01 536.72 767.21 377.81 923.29 357.55 878.13 484.03 808.68 592.35 935.21 574.84
00002448 00000013 654.85 195.72 351.59 533.62 762.27 377.66 920.25 357.69 875.41 479.97 803.55 590.50 934.09 573.55
00002449 00000014 652.96 191.46 352.12 530.11 758.53 377.44 920.39 360.38 870.76 479.22 797.05 587.64 928.18 573.84
00002450 00000015 649.04 193.60 356.45 528.80 756.23 378.50 917.46 362.88 867.24 481.54 790.31 586.42 923.80 574.07
00002451 00000016 643.99 200.95 358.77 526.43 750.16 383.40 911.51 367.29 860.19 486.28 783.34 588.37 918.46 575.47
00002452 00000017 639.25 202.59 361.08 534.00 746.24 392.89 903.69 375.69 853.41 493.00 783.02 595.91 916.59 581.83
00002453 00000018 633.32 205.65 365.34 536.34 746.01 404.79 902.71 386.92 854.43 500.45 786.25 604.99 914.88 590.42
00002454 00000019 629.68 204.21 362.47 541.62 746.94 415.87 900.39 400.97 855.93 508.75 788.41 612.94 910.48 600.75
00002455 00000020 628.33 211.12 362.31 538.82 747.20 422.62 902.10 409.31 856.96 514.78 789.50 619.96 906.31 609.17
00002456 00000021 629.00 214.24 354.77 543.87 748.50 428.84 902.82 411.05 863.69 515.63 793.53 624.80 913.83 610.14
00002457 00000022 633.69 223.54 350.75 538.38 757.68 433.24 909.70 413.27 875.74 511.01 794.95 632.64 916.48 617.12
00002458 00000023 626.05 213.75 356.18 551.98 755.50 432.95 908.18 409.04 877.74 509.61 793.31 634.73 917.77 615.96
00002459 00000024 620.94 208.30 353.95 559.62 753.12 431.31 902.80 405.86 878.35 509.33 792.42 635.46 916.94 615.47
00002460 00000025 616.61 208.95 352.33 562.01 747.82 432.59 898.87 404.97 878.24 510.41 791.60 637.48 917.18 615.36
00002461 00000026 608.77 209.88 355.98 569.61 739.85 438.05 893.81 410.07 874.11 519.59 785.30 643.12 912.49 620.94
00002462 00000027 606.30 207.89 356.63 571.70 736.88 446.74 893.15 418.24 872.79 529.77 782.53 648.41 911.11 625.80
00002463 00000028 602.46 203.75 354.87 584.66 738.28 453.27 891.09 423.58 874.89 537.36 782.25 654.80 908.40 630.66
00002464 00000029 599.37 213.88 349.85 576.20 731.83 456.50 887.02 425.62 870.39 541.07 779.84 658.03 904.72 632.54
00002465 00000030 597.87 219.04 350.10 566.41 728.74 460.89 883.10 427.17 865.82 544.86 781.11 659.69 903.62 631.70
00002466 00000031 594.01 226.83 352.60 556.83 725.50 464.08 877.44 425.17 862.96 546.40 781.17 660.27 903.06 627.85
00002467 00000032 592.44 225.01 356.42 556.35 724.22 464.01 876.12 421.91 861.95 545.95 781.99 659.58 904.00 624.30
00002468 00000033 595.32 223.49 355.90 558.78 725.30 464.30 877.28 422.33 862.38 544.86 783.40 658.06 906.95 622.63
00002469 00000034 596.27 228.72 357.45 554.97 725.68 463.85 878.05 423.31 861.42 546.26 783.01 658.65 907.16 624.36
00002470 00000035 598.76 230.62 358.68 555.93 725.30 465.14 879.78 424.56 861.40 546.18 781.18 660.36 908.54 626.23
00002471 00000036 603.04 229.13 354.03 555.17 726.07 463.84 884.43 423.42 864.30 545.49 783.78 660.53 913.01 626.39
00002472 00000037 607.16 217.28 352.49 561.74 728.62 458.23 887.85 420.26 864.93 540.24 785.65 656.27 914.78 624.20
00002473 00000038 608.98 213.95 354.20 565.00 733.14 453.36 890.93 416.96 868.56 536.63 787.79 654.39 915.33 623.83
00002474 00000039 611.24 217.09 354.94 564.01 734.74 450.58 891.65 415.46 868.44 533.86 786.24 652.64 914.22 623.55
00002475 00000040 610.81 214.24 358.80 573.16 734.09 447.35 892.69 411.93 869.31 529.53 782.82 651.43 916.54 622.09
00002476 00000041 611.20 213.52 362.20 572.38 737.37 442.35 895.36 408.35 871.52 525.36 780.87 646.41 916.36 618.37
00002477 00000042 611.02 211.41 363.91 570.39 737.45 441.43 896.40 407.60 871.76 523.64 779.70 644.15 916.43 616.35
00002478 00000043 612.51 213.61 364.05 568.13 740.67 443.78 897.75 410.15 873.90 524.43 780.53 644.25 916.79 616.71
00002479 00000044 614.88 213.15 363.56 568.26 746.62 449.71 900.11 418.42 876.75 529.91 782.91 644.76 917.75 619.36
00002480 00000045 613.87 213.32 364.80 571.54 747.55 452.05 901.22 420.77 878.98 537.04 782.71 648.23 917.89 622.84
00002481 00000046 615.93 212.26 362.48 573.84 749.12 453.45 903.76 423.10 880.62 542.88 782.51 649.84 919.83 625.33
00002482 00000047 618.85 219.04 361.42 566.29 751.42 455.41 904.39 423.45 882.20 544.01 784.43 649.57 921.56 624.03
00002483 00000048 619.73 219.80 360.83 561.40 750.45 456.70 905.56 425.26 881.82 545.75 785.17 650.03 921.67 624.80
00002484 00000049 618.58 219.89 361.81 563.15 750.36 456.89 904.70 425.04 881.11 545.18 785.82 650.37 921.52 624.63
00002485 00000050 619.53 221.31 361.61 562.95 751.10 457.67 905.86 425.04 881.45 546.14 786.10 651.45 922.59 625.15
00002486 00000051 619.13 225.19 361.82 562.11 750.25 459.46 904.97 426.99 879.86 547.90 785.52 653.81 922.42 627.71
00002487 00000052 621.73 226.29 360.90 561.90 752.83 459.86 906.10 427.32 880.86 549.99 787.03 654.30 923.27 628.28
00002488 00000053 622.61 229.11 359.48 564.57 754.86 460.71 906.30 428.94 882.23 551.51 787.73 658.06 921.67 632.80
00002489 00000054 622.75 227.46 359.18 569.90 758.65 460.90 907.49 430.80 885.37 553.06 789.80 659.91 921.56 636.04
00002490 00000055 623.92 228.96 359.42 567.89 759.32 461.19 908.56 431.15 885.82 554.31 791.18 659.79 922.86 636.03
00002491 00000056 626.54 231.05 357.16 562.90 759.52 462.20 908.80 431.43 884.86 553.24 791.17 657.55 924.57 633.23
00002492 00000057 627.17 229.95 357.77 554.91 760.25 460.71 912.26 429.47 887.49 552.03 792.27 653.84 926.49 629.18
00002493 00000058 626.19 230.04 359.94 550.15 760.52 458.99 914.86 426.91 889.30 549.20 792.32 651.40 928.04 626.17
00002494 00000059 626.48 228.73 359.23 550.67 760.76 457.13 913.42 427.15 889.09 547.10 793.81 650.53 926.48 626.68
00002495 00000060 625.12 228.00 360.13 552.17 760.58 455.50 911.81 425.47 887.80 545.39 795.00 649.63 926.29 625.38
00002496 00000061 624.34 226.15 359.21 551.85 760.50 455.08 911.56 425.64 887.42 544.41 795.02 649.51 924.59 625.75
00002497 00000062 624.50 221.03 356.83 563.10 760.46 454.70 908.05 427.23 885.03 542.73 797.23 652.80 922.28 630.18
00002498 00000063 625.03 220.54 354.84 559.97 758.66 453.46 907.74 428.64 881.44 542.35 797.33 654.11 919.17 633.95
00002499 00000064 622.80 218.47 355.87 559.59 756.17 452.83 905.67 427.03 879.62 541.79 796.16 653.51 917.70 632.56
00002500 00000065 619.90 216.03 355.39 559.96 751.42 451.47 903.89 423.53 877.49 540.99 792.98 653.16 916.47 630.55
00002501 00000066 617.71 217.39 355.89 555.77 749.44 450.27 902.92 423.36 876.63 541.82 790.30 651.27 914.60 629.45
00002502 00000067 615.17 218.94 357.99 555.60 746.32 451.25 903.17 423.56 876.29 543.94 784.88 651.43 914.19 629.12
00002503 00000068 615.07 218.08 359.05 554.10 745.94 450.48 903.32 423.60 874.87 541.90 782.51 647.63 913.71 626.15
00002504 00000069 614.68 216.93 359.65 563.30 746.75 448.46 903.61 422.03 875.24 541.08 782.92 650.83 913.61 629.52
00002505 00000070 617.48 216.85 357.55 564.81 748.96 443.78 907.66 420.00 879.28 539.92 783.52 652.61 913.35 633.75
00002506 00000071 617.66 222.50 358.46 554.02 752.06 444.02 911.67 419.43 883.89 539.86 786.04 649.93 916.64 630.38
00002507 00000072 619.26 224.76 359.21 552.88 757.32 443.64 913.53 418.74 887.26 539.16 792.29 650.30 918.97 630.29
00002508 00000073 621.24 226.28 359.49 553.61 759.68 444.80 913.19 421.71 886.34 540.01 796.13 651.91 918.96 633.17
00002509 00000074 622.42 224.49 358.04 556.53 758.61 447.32 909.67 421.67 884.05 540.52 796.86 652.92 919.07 632.08
00002510 00000075 620.81 221.72 359.23 556.98 754.11 447.84 906.70 419.60 881.61 539.34 793.18 651.37 918.50 628.61
00002511 00000076 618.58 223.15 361.39 552.71 749.77 448.56 904.60 418.57 877.65 539.26 788.99 650.60 916.58 626.35
00002512 00000077 616.20 224.94 361.82 550.26 746.02 448.29 901.75 419.32 873.42 539.51 785.38 650.08 914.00 626.61
00002513 00000078 615.31 223.52 362.36 554.77 743.99 448.84 902.07 420.93 871.90 541.26 783.57 652.64 914.13 629.93
00002514 00000079 615.24 226.23 361.61 557.07 741.47 449.57 900.18 422.37 868.76 542.28 781.78 654.81 913.11 632.57
00002515 00000080 614.12 231.75 362.25 553.41 737.42 449.36 897.19 422.73 864.15 540.73 778.59 653.92 911.04 632.10
00002516 00000081 612.77 228.42 363.35 557.74 732.85 449.48 894.65 422.51 860.50 541.63 774.93 653.35 910.05 630.92
00002517 00000082 611.57 225.33 364.34 559.16 726.35 450.88 890.39 425.44 850.95 544.31 770.68 652.12 907.68 630.61
00002518 00000083 604.93 236.85 367.50 550.59 719.81 452.43 882.98 423.15 844.19 546.06 768.12 653.85 903.60 628.66
00002519 00000084 599.79 239.26 368.10 548.39 713.69 451.05 876.40 420.24 837.47 548.19 765.84 656.08 898.17 629.18
00002520 00000085 596.04 241.18 367.60 546.02 708.37 450.05 871.63 417.05 831.08 551.11 763.66 659.84 893.18 630.87
00002521 00000086 592.38 244.00 367.23 543.85 703.30 451.10 865.14 416.24 824.49 554.65 760.98 660.79 889.70 630.20
00002522 00000087 587.70 243.40 367.50 546.46 697.42 453.04 857.16 416.92 818.33 558.69 756.32 662.58 885.32 631.13
00002523 00000088 584.24 243.35 368.18 545.41 692.92 453.82 852.32 417.14 813.19 560.24 751.91 661.66 881.87 629.85
00002524 00000089 581.61 248.81 367.81 540.96 688.73 454.95 847.03 419.27 806.83 560.93 745.93 659.67 878.66 628.91
00002525 00000090 578.82 251.26 366.28 539.84 684.40 455.65 844.97 420.68 803.67 560.48 741.14 659.14 877.04 629.13
00002526 00000091 577.66 252.18 363.59 542.16 681.28 457.17 843.57 421.66 802.99 561.63 740.60 663.05 876.90 632.59
00002527 00000092 576.01 251.63 362.87 545.71 678.12 457.47 841.69 421.39 801.54 561.07 738.89 665.95 875.10 635.26
00002528 00000093 575.21 253.03 362.00 546.52 677.12 457.17 841.45 421.59 801.20 560.55 737.08 666.03 875.32 635.74
00002529 00000094 575.86 250.37 362.18 551.26 677.95 457.86 841.78 421.21 803.11 560.05 738.03 667.56 876.76 636.35
00002530 00000095 576.69 253.56 360.26 549.48 680.43 455.94 843.70 420.44 805.31 560.20 739.64 667.57 876.58 637.15
00002531 00000096 579.96 248.65 360.17 551.58 685.47 456.49 847.33 422.76 808.42 562.04 740.40 665.61 877.42 636.74
00002532 00000097 580.83 251.61 360.88 543.72 688.81 455.71 850.96 424.41 811.35 562.15 741.36 661.45 877.70 634.63
00002533 00000098 580.95 250.89 361.37 542.35 692.59 456.33 852.18 425.18 814.15 562.73 744.08 660.66 877.78 633.69
00002534 00000099 583.76 254.04 362.02 540.64 695.50 456.11 856.16 426.33 816.27 564.81 747.92 661.81 881.49 635.56
00002535 00000100 585.50 253.41 362.56 545.15 698.10 456.99 860.02 427.77 819.83 564.87 750.60 664.51 884.13 638.61
00002536 00000101 585.98 255.37 363.67 544.34 700.59 459.86 862.44 429.96 822.67 567.40 752.59 666.83 885.17 640.43
00002537 00000102 588.42 258.39 364.21 542.29 703.27 462.41 866.40 431.88 825.79 569.17 757.21 669.25 888.64 642.23
00002538 00000103 588.63 262.50 365.98 542.09 704.30 465.87 868.54 435.35 826.94 573.60 756.88 671.40 890.11 644.33
00002539 00000104 588.15 259.71 367.48 547.12 707.10 468.56 869.12 438.38 828.12 578.55 758.73 673.91 890.31 647.04
00002540 00000105 586.88 266.72 368.73 543.18 707.14 471.78 868.88 441.71 827.33 583.66 758.04 676.44 889.60 649.58
00002541 00000106 587.11 268.50 367.44 542.72 705.85 478.17 866.14 445.83 825.10 587.91 757.64 679.38 889.04 650.83
00002542 00000107 587.30 272.59 365.20 539.96 704.38 484.44 862.78 449.45 822.94 592.61 757.57 683.00 887.74 652.31
00002543 00000108 585.68 275.91 363.73 539.52 701.51 487.50 860.80 450.76 821.15 596.98 755.52 687.02 886.86 654.91
00002544 00000109 584.15 279.39 363.67 539.75 697.55 490.07 859.28 452.15 819.27 599.76 753.20 690.34 886.02 657.35
00002545 00000110 581.82 277.98 362.54 541.88 694.12 492.05 853.92 452.78 814.86 601.82 751.14 693.17 881.99 659.07
00002546 00000111 581.32 280.29 362.54 539.29 693.34 487.89 856.42 452.51 814.92 597.14 745.97 696.31 872.86 665.67
00002547 00000112 579.58 278.99 363.63 542.41 691.74 488.27 854.37 453.96 812.13 597.99 744.78 697.43 872.06 667.58
00002548 00000113 578.39 282.41 362.19 540.16 690.59 488.24 852.21 454.79 809.35 599.80 742.72 697.98 870.78 668.84
00002549 00000114 576.57 279.75 363.77 545.09 690.16 490.28 850.70 456.12 807.96 600.90 742.57 699.68 870.72 669.74
00002550 00000115 576.29 280.41 363.68 545.39 689.37 490.38 849.56 456.64 806.76 602.38 741.80 700.10 869.18 670.70
00002551 00000116 575.04 283.13 363.32 542.68 687.62 489.71 848.22 456.20 805.30 602.54 740.45 700.24 868.34 671.07
00002552 00000117 573.30 280.94 363.76 545.66 686.53 490.43 847.39 456.91 804.65 601.85 739.72 700.20 867.81 671.06
00002553 00000118 567.17 280.07 366.50 544.87 682.41 505.02 836.62 463.78 801.88 609.76 746.37 700.35 871.65 664.55
00002554 00000119 566.31 280.92 366.23 543.82 680.10 505.36 835.01 463.16 800.26 609.55 744.78 699.95 871.55 663.45
00002555 00000120 564.29 282.11 366.39 541.36 677.83 504.50 831.79 462.98 795.78 608.46 742.30 698.91 868.80 663.01
00002556 00000121 562.66 283.31 366.50 536.52 677.42 502.84 831.70 462.29 795.08 607.65 742.34 697.63 866.50 662.70
00002557 00000122 563.89 281.21 364.57 538.72 678.31 503.94 832.44 463.31 796.37 607.75 742.26 698.67 866.73 663.74
00002558 00000123 564.80 280.06 363.92 537.82 679.13 504.27 834.50 464.25 798.13 608.66 742.40 698.38 866.84 664.17
00002559 00000124 565.20 279.14 365.01 537.69 678.15 504.78 836.21 463.03 799.99 609.47 743.24 699.10 870.47 663.45
00002560 00000125 564.45 278.24 366.85 539.93 677.66 504.35 836.98 462.35 800.36 609.42 744.12 699.34 872.87 663.31
00002561 00000126 563.89 278.28 367.91 538.41 678.01 502.15 836.82 459.48 799.80 609.73 746.39 698.02 873.84 661.20
00002562 00000127 564.64 277.23 366.87 538.94 678.02 500.44 835.47 458.37 798.48 608.21 747.37 698.21 871.33 661.91
00002563 00000128 566.03 276.33 364.01 541.32 680.62 498.17 833.35 458.40 795.95 607.15 745.48 695.38 867.16 660.96
00002564 00000129 565.71 276.38 363.31 545.52 680.40 498.09 832.09 458.06 795.75 606.62 743.53 695.76 866.18 660.95
00002565 00000130 565.42 276.82 365.38 541.43 677.97 500.24 834.29 458.01 797.39 607.21 742.45 695.63 869.70 659.29
00002566 00000131 564.84 276.91 366.21 538.43 677.24 498.68 835.40 456.59 797.69 607.08 742.51 694.68 870.27 658.53
00002567 00000132 564.54 275.02 366.69 539.65 675.48 498.38 833.92 456.35 795.58 605.40 741.96 694.49 869.27 658.43
00002568 00000133 564.47 274.42 367.04 541.01 676.76 496.77 834.34 455.83 795.25 604.82 743.05 694.91 869.07 659.53
00002569 00000134 564.79 273.91 366.36 542.60 678.63 495.93 834.81 456.04 796.27 604.69 744.56 695.25 868.59 660.57
00002570 00000135 564.89 276.38 366.73 541.16 678.95 496.64 835.71 455.68 797.63 604.65 745.02 696.08 869.31 660.54
00002571 00000136 566.20 276.89 366.73 541.27 680.91 496.46 837.36 455.69 799.04 606.40 747.30 697.06 870.26 661.52
00002572 00000137 567.17 277.53 366.36 540.92 681.59 496.84 838.04 455.96 799.78 607.00 747.74 697.45 870.67 661.88
00002573 00000138 567.90 274.49 366.43 545.31 682.41 496.61 838.48 455.31 800.80 607.51 748.84 698.25 871.50 662.24
00002574 00000139 569.72 277.87 365.16 541.82 683.19 496.41 839.66 455.68 801.63 607.43 749.60 698.51 872.16 663.13
00002575 00000140 571.35 280.25 364.54 538.45 684.99 496.53 841.08 455.65 804.15 608.49 750.78 698.44 873.11 663.12
00002576 00000141 571.84 279.38 364.11 538.54 685.31 496.65 842.43 455.96 805.65 608.89 750.95 698.70 873.59 663.55
00002577 00000142 573.05 280.99 363.42 536.48 685.79 496.57 843.63 456.25 806.66 608.57 751.91 698.64 874.36 663.80
00002578 00000143 574.10 279.29 362.89 540.24 686.74 495.87 844.46 455.36 806.90 608.32 751.95 699.05 876.38 663.92
00002579 00000144 576.14 278.73 364.24 542.04 687.81 486.42 850.91 452.34 808.46 600.17 744.46 700.01 868.83 670.38
00002580 00000145 574.69 279.10 363.06 540.12 686.97 494.62 846.17 454.52 807.02 607.55 750.67 698.53 876.83 663.83
00002581 00000146 574.33 280.78 363.76 537.67 686.49 496.53 844.96 455.62 806.29 607.54 750.41 697.96 876.75 662.66
00002582 00000147 574.56 280.41 363.60 536.55 685.61 501.45 844.54 460.89 806.45 608.67 749.27 697.35 876.18 662.74
00002583 00000148 573.46 278.76 364.78 538.52 684.52 499.44 844.16 458.76 805.54 608.36 748.34 696.85 876.21 661.94
00002584 00000149 572.66 280.71 364.21 536.04 684.60 496.60 842.99 455.82 805.07 606.73 748.21 695.39 875.06 660.17
00002585 00000150 572.92 279.99 363.16 540.33 684.47 496.08 843.09 455.42 805.38 606.41 747.60 697.20 874.82 661.97
00002586 00000151 575.33 279.65 363.15 547.92 687.62 487.63 850.11 451.91 807.25 596.08 741.85 698.36 869.96 667.17
00002587 00000152 575.92 278.68 364.39 552.43 687.25 487.77 851.30 452.42 807.38 597.28 742.01 700.33 870.89 669.37
00002588 00000153 575.58 278.15 364.84 543.53 686.14 486.83 851.32 452.29 806.22 599.89 740.72 697.56 869.33 667.40
00002589 00000154 577.27 280.04 364.26 541.09 689.43 487.56 852.66 453.22 808.64 598.80 741.54 695.60 871.15 665.68
00002590 00000155 576.15 282.38 363.22 536.09 688.55 493.03 849.33 454.84 810.08 607.61 749.02 695.41 878.34 662.10
00002591 00000156 576.87 279.15 363.06 539.94 688.87 490.91 851.96 453.74 811.66 607.19 750.39 697.96 878.21 665.46
00002592 00000157 579.02 279.05 360.57 539.17 691.29 490.13 853.00 453.38 813.66 606.97 753.89 699.60 877.18 667.54
00002593 00000158 579.97 277.49 360.07 540.26 693.47 491.63 852.23 454.63 813.82 606.23 757.03 699.95 876.92 667.62
00002594 00000159 580.53 272.76 360.43 544.27 694.08 492.61 851.46 455.13 813.13 604.49 758.10 699.76 877.29 667.03
CROP_BBOX: 360 0 1256 959
