Video ID: 	0GdFxZoPLm4
H: 	1080
W: 	1920
FPS: 	25.0

FRAME INDEX X0 Y0 W H [Landmarks (5 Points)]

00001809 00000000 616.33 156.18 348.10 563.85 791.53 394.36 938.42 385.32 941.16 471.67 816.53 584.86 942.31 579.02
00001810 DELETE   627.31 145.78 345.27 572.74 805.56 374.24 950.94 373.78 954.10 452.48 833.61 576.43 952.08 576.61
00001811 DELETE   643.67 141.07 349.16 563.76 828.12 354.76 957.46 362.83 965.96 439.79 847.62 552.89 950.20 561.56
00001812 00000003 665.59 154.90 331.08 543.68 851.98 337.22 974.78 360.74 996.07 446.40 857.11 543.21 963.04 565.67
00001813 00000004 667.40 148.39 346.71 541.89 870.21 338.69 990.66 367.02 1011.77 435.44 867.79 536.48 966.15 563.67
00001814 00000005 684.29 154.57 321.42 526.82 868.51 327.55 976.58 350.59 1005.97 431.89 858.12 519.73 958.46 544.22
00001815 00000006 681.59 142.43 320.82 534.13 864.72 323.04 976.68 346.19 1004.81 425.58 856.93 512.98 960.69 537.74
00001816 00000007 677.09 137.62 328.97 535.69 863.98 316.52 980.49 343.85 1003.52 421.80 853.22 505.21 966.97 532.88
00001817 00000008 683.50 134.27 327.90 531.97 870.62 312.77 986.08 343.34 1008.77 419.69 859.10 500.85 971.37 530.64
00001818 00000009 694.27 143.33 320.57 520.23 881.25 310.11 993.97 346.85 1017.45 419.97 864.99 497.92 974.77 532.62
00001819 00000010 710.31 147.48 308.42 516.24 890.45 311.69 1000.16 349.83 1028.39 421.70 874.01 499.64 978.17 535.71
00001820 00000011 706.77 153.02 311.46 509.55 900.45 305.52 1003.38 349.48 1033.93 419.70 876.80 495.27 974.43 536.38
00001821 00000012 710.81 154.64 309.45 507.32 900.86 307.56 1006.23 348.84 1037.20 420.26 880.90 497.48 979.90 536.26
00001822 00000013 700.91 139.56 328.41 527.22 896.44 326.37 1003.51 366.48 1031.48 423.01 867.20 501.44 981.29 538.06
00001823 00000014 710.95 144.63 317.81 527.12 892.54 327.28 1005.99 367.95 1029.01 429.51 866.43 508.76 987.64 546.24
00001824 00000015 708.11 149.59 318.38 517.68 890.90 334.95 1003.81 374.14 1023.59 429.60 860.92 508.84 979.40 544.09
00001825 00000016 706.10 155.90 318.94 513.30 889.22 339.05 1001.06 377.56 1019.41 436.27 855.93 511.11 974.45 545.43
00001826 00000017 699.60 156.84 323.38 515.75 885.49 341.98 997.60 386.00 1016.44 441.19 851.56 514.44 970.71 553.23
00001827 00000018 695.79 159.75 326.66 517.33 881.57 344.23 995.47 390.62 1011.98 446.55 846.99 518.47 967.48 559.16
00001828 00000019 687.21 163.89 320.24 518.29 876.23 336.07 992.24 365.40 1009.23 456.71 849.70 526.17 961.43 555.02
00001829 00000020 684.63 160.93 326.94 523.81 869.45 348.86 984.61 391.03 998.52 452.74 835.87 525.90 957.15 563.68
00001830 00000021 677.56 162.71 320.09 518.28 869.33 336.94 987.76 363.33 1001.04 455.98 844.74 527.32 959.89 553.72
00001831 00000022 683.96 156.45 320.23 529.74 862.00 347.97 978.37 382.78 994.21 454.76 824.98 524.60 953.13 558.16
00001832 00000023 680.61 152.34 319.36 530.84 857.64 346.39 973.03 377.04 991.09 453.13 821.37 524.59 947.83 555.00
00001833 00000024 678.09 149.98 319.79 530.11 854.11 343.10 970.19 375.02 987.61 446.71 819.51 521.84 946.34 553.23
00001834 00000025 679.96 150.54 317.65 526.16 850.41 341.54 969.08 370.97 981.93 443.99 814.74 519.05 945.44 548.28
00001835 00000026 669.90 160.93 324.92 515.49 837.42 344.63 975.93 372.13 976.47 434.76 823.15 513.62 948.65 540.45
00001836 00000027 658.30 156.55 329.49 514.09 827.49 348.52 972.89 372.43 969.56 435.00 821.20 518.19 948.31 541.69
00001837 00000028 649.18 149.49 332.28 518.14 815.86 353.72 967.77 374.28 956.64 438.16 814.71 523.59 944.37 543.89
00001838 00000029 644.27 149.32 327.12 525.41 804.85 355.32 957.73 374.82 946.15 438.45 809.94 529.61 939.64 548.13
00001839 00000030 635.73 150.39 324.76 532.42 806.75 350.18 941.72 365.09 949.33 453.66 803.50 533.91 930.97 548.36
00001840 00000031 630.67 153.32 338.98 542.19 795.24 358.58 943.74 375.11 931.39 453.60 789.39 539.88 925.23 557.44
00001841 00000032 627.95 153.04 338.19 545.19 788.98 361.11 937.74 375.89 926.12 459.41 779.18 542.74 916.33 559.44
00001842 00000033 620.72 156.51 339.32 544.45 784.15 366.09 929.50 380.08 923.05 462.06 774.19 545.89 908.40 561.98
00001843 00000034 616.37 162.52 333.45 548.40 782.30 373.92 920.40 384.89 918.23 471.15 762.67 548.48 897.35 562.77
00001844 00000035 611.21 163.00 330.74 551.35 770.68 383.38 910.76 386.48 908.18 477.20 751.39 550.94 891.87 559.32
00001845 00000036 592.94 168.54 342.83 549.92 761.35 386.70 906.43 392.98 903.10 479.74 743.80 557.80 885.29 569.32
00001846 00000037 578.79 167.29 358.15 554.29 750.71 392.26 903.93 401.42 892.94 481.00 740.19 564.95 884.16 577.72
00001847 00000038 573.60 166.76 363.12 555.02 741.82 395.49 899.12 401.95 886.12 481.58 736.62 569.86 881.87 579.76
00001848 00000039 578.69 162.39 357.91 556.49 734.22 393.84 895.96 397.10 877.81 482.80 727.99 568.65 880.39 576.31
00001849 00000040 563.33 156.96 368.40 561.50 724.82 391.68 890.31 394.27 869.00 479.51 723.13 567.76 878.72 573.73
00001850 DELETE   551.03 156.25 377.49 562.42 715.40 395.06 885.93 397.86 857.03 481.31 719.09 571.35 874.06 576.62
00001851 00000042 544.98 154.81 381.68 569.19 708.47 397.63 883.61 397.75 852.70 483.80 715.40 576.05 873.26 578.09
00001852 00000043 548.77 159.04 380.46 571.61 704.76 396.52 879.38 395.50 849.51 486.84 710.80 582.93 868.04 584.04
00001853 00000044 547.29 166.92 388.55 570.07 700.54 396.44 879.89 396.88 846.48 489.32 709.08 585.85 871.54 587.19
00001854 00000045 550.24 171.15 385.65 568.15 699.00 396.52 878.60 398.55 843.68 492.02 707.87 590.80 868.09 593.29
00001855 00000046 547.25 170.33 380.00 570.63 695.24 401.08 873.25 401.85 839.20 496.72 710.54 597.59 865.72 599.40
00001856 00000047 538.79 164.61 382.78 575.09 692.60 405.18 871.03 404.60 836.42 499.01 712.01 600.14 865.02 600.77
00001857 00000048 536.46 168.03 382.70 573.57 689.26 405.65 866.33 400.30 836.11 496.96 712.65 601.47 865.28 598.28
00001858 00000049 528.45 167.87 387.66 575.55 686.24 409.06 860.77 400.34 833.37 496.65 712.76 602.76 865.02 596.44
00001859 00000050 525.61 167.20 382.17 574.69 681.55 406.27 854.74 397.48 829.22 493.51 708.03 601.50 861.07 594.85
00001860 00000051 528.38 167.34 377.99 573.74 682.70 412.85 859.15 405.23 836.88 495.64 702.66 600.30 859.48 597.03
00001861 00000052 525.16 167.30 382.00 575.73 679.81 404.06 855.75 397.47 828.96 494.74 703.31 602.77 858.04 597.93
00001862 00000053 526.25 163.71 386.73 580.12 682.83 401.90 860.64 397.96 832.00 495.13 704.91 601.10 860.63 598.55
00001863 00000054 522.50 159.03 393.32 583.79 686.79 399.16 866.02 399.69 833.45 493.89 707.06 597.10 861.68 597.97
00001864 00000055 529.60 155.65 393.39 586.00 691.61 394.29 871.21 396.38 836.93 490.56 709.57 593.68 864.93 595.64
00001865 00000056 533.21 153.33 398.37 587.85 696.82 394.45 877.08 395.40 842.93 488.86 714.08 593.20 869.62 594.47
00001866 00000057 542.45 150.17 395.05 591.58 703.71 387.33 882.67 389.32 853.61 482.47 719.87 589.98 874.62 592.31
00001867 00000058 551.34 144.25 393.67 599.21 712.33 383.09 889.13 388.74 861.11 478.42 730.36 588.66 879.81 593.56
00001868 00000059 561.22 140.31 387.86 601.31 718.34 377.90 896.62 384.80 867.50 473.98 740.34 587.73 886.92 593.51
00001869 00000060 564.75 139.31 389.98 599.30 722.36 368.52 900.92 379.50 872.94 465.71 746.05 582.79 890.10 591.74
00001870 00000061 562.66 134.24 395.84 600.51 720.17 358.13 902.57 370.02 873.29 456.89 748.72 578.69 891.64 588.14
00001871 00000062 555.59 131.05 402.11 598.83 718.29 354.56 899.02 369.27 869.49 449.52 748.48 572.19 889.78 583.29
00001872 00000063 550.48 123.98 401.54 603.89 714.77 352.44 891.92 363.10 862.87 449.83 744.35 570.14 882.14 577.88
00001873 00000064 540.42 124.25 406.67 601.62 706.50 349.65 889.53 362.10 857.29 452.87 730.64 570.46 873.90 579.97
00001874 00000065 544.99 126.60 398.04 600.24 700.96 348.58 885.08 359.33 847.01 453.08 717.88 569.23 867.26 578.10
00001875 00000066 540.94 129.83 396.35 597.42 692.13 347.00 876.66 357.17 836.84 448.44 709.75 566.54 861.60 575.27
00001876 00000067 537.96 128.82 398.76 594.71 689.76 347.15 874.59 356.44 832.31 447.01 709.07 565.74 860.61 573.82
00001877 00000068 538.96 130.46 397.63 588.17 689.43 348.40 873.34 357.43 830.50 445.48 708.19 563.42 859.59 571.48
00001878 00000069 538.87 129.23 397.15 584.33 688.87 351.20 871.72 358.16 827.45 446.70 709.02 563.10 859.02 569.63
00001879 00000070 537.81 130.93 397.38 579.02 687.91 352.90 870.46 359.26 826.02 447.44 708.71 561.74 859.07 568.10
00001880 00000071 541.93 131.29 398.49 577.41 689.69 354.09 873.10 359.85 828.06 446.92 711.50 561.72 863.05 567.24
00001881 00000072 548.12 129.65 396.09 578.47 692.95 354.80 875.79 357.93 832.32 445.25 719.00 561.92 868.61 564.89
00001882 00000073 550.26 126.40 398.99 574.10 698.23 355.40 882.89 357.38 841.28 447.42 724.59 557.23 879.34 559.36
00001883 00000074 555.95 124.02 399.20 570.95 702.88 355.61 885.79 360.52 845.48 446.50 728.34 550.63 885.49 554.97
00001884 00000075 559.70 124.36 395.45 564.27 704.04 359.85 896.19 361.75 848.53 439.78 732.36 552.14 893.53 553.00
00001885 00000076 568.67 120.06 391.65 561.42 707.77 359.37 898.68 360.96 847.44 434.48 738.43 550.04 898.02 550.47
00001886 00000077 582.20 117.06 383.77 561.45 713.98 359.42 902.65 360.57 849.51 433.91 743.88 548.69 903.28 549.21
00001887 00000078 585.95 118.82 384.55 557.53 720.34 360.14 907.88 360.62 856.30 434.16 749.40 547.53 908.58 547.92
00001888 00000079 587.12 119.16 387.12 558.03 722.30 361.22 908.99 360.95 857.99 436.08 750.72 547.60 909.87 547.44
00001889 00000080 581.56 123.08 394.03 558.79 720.99 368.69 912.17 367.81 856.95 442.96 748.78 552.25 910.36 551.04
00001890 00000081 589.66 127.64 388.19 557.27 725.97 376.37 911.71 373.10 865.96 450.52 748.35 553.48 914.30 551.38
00001891 00000082 598.55 132.04 382.20 553.31 729.20 377.67 918.67 368.20 870.64 456.64 751.55 559.17 920.60 552.71
00001892 00000083 599.65 141.52 391.53 555.20 739.54 371.30 931.02 367.94 876.68 450.63 766.04 559.95 929.86 557.97
00001893 00000084 603.01 143.11 393.19 557.71 749.66 370.57 925.76 369.89 886.62 455.97 771.26 567.80 923.81 568.53
00001894 00000085 607.95 143.80 391.45 557.82 755.09 373.97 931.67 377.85 891.38 458.74 772.32 568.31 925.92 573.13
00001895 00000086 611.31 144.69 392.57 561.02 760.20 380.67 936.97 385.98 894.74 458.86 776.93 567.27 930.02 573.86
00001896 00000087 618.04 143.60 389.53 562.22 762.15 373.98 942.59 379.17 896.64 455.40 776.52 564.35 933.73 570.65
00001897 00000088 618.95 142.80 389.98 563.27 765.09 367.75 943.08 374.54 899.33 455.03 776.65 562.38 932.60 569.65
00001898 00000089 613.87 144.87 392.56 559.63 763.82 365.44 942.17 373.62 899.74 454.47 776.98 561.61 931.80 569.44
00001899 00000090 612.82 144.90 392.47 557.93 763.84 365.54 941.55 375.31 899.10 454.22 777.04 561.35 930.88 570.60
00001900 00000091 610.30 146.59 393.48 555.71 764.19 367.69 940.53 376.24 900.13 456.57 777.98 562.48 931.14 570.85
00001901 00000092 611.52 146.22 391.47 553.20 764.42 366.54 939.63 377.02 899.26 455.00 778.36 561.40 929.50 571.25
00001902 00000093 614.26 142.95 388.62 554.51 765.75 366.04 942.07 376.60 901.07 454.97 779.79 560.56 931.24 570.46
00001903 00000094 614.85 144.69 386.70 558.40 767.00 371.08 939.87 381.10 900.33 457.90 781.15 563.53 928.51 572.96
00001904 00000095 616.57 146.94 378.38 556.77 767.32 377.22 935.65 387.94 900.05 461.52 779.05 565.77 926.29 576.30
00001905 00000096 614.72 148.69 375.42 556.88 764.70 381.62 932.51 391.41 899.81 466.40 775.33 569.06 924.78 579.27
00001906 00000097 608.86 152.90 378.84 556.81 760.25 388.58 929.83 393.86 896.58 471.04 772.86 573.70 925.06 580.19
00001907 00000098 607.30 153.13 375.92 553.10 750.30 394.43 928.61 390.08 893.50 479.53 767.47 576.34 926.71 575.35
00001908 00000099 605.74 155.69 376.36 554.21 747.73 397.88 927.03 390.33 893.15 481.92 769.83 581.56 928.24 577.59
00001909 00000100 600.33 156.59 382.48 560.51 749.76 400.19 926.69 392.53 897.64 483.49 773.62 586.23 927.67 582.15
00001910 00000101 602.76 156.85 381.51 562.87 751.07 407.68 930.07 398.12 898.61 490.43 775.16 592.28 930.69 586.69
00001911 00000102 602.78 158.22 384.92 563.24 754.83 411.27 935.11 401.18 903.61 494.26 780.99 596.64 936.07 590.36
00001912 00000103 600.28 164.96 382.71 565.13 757.68 411.80 931.69 402.67 899.64 497.94 785.82 603.24 931.34 597.01
00001913 00000104 598.55 166.67 384.27 564.25 759.24 412.20 932.65 405.86 900.48 498.19 786.52 602.41 930.67 598.18
00001914 00000105 598.32 166.55 384.05 563.53 758.66 411.80 932.17 404.68 900.47 498.08 786.16 602.18 930.68 597.25
00001915 00000106 604.10 162.00 380.22 563.08 756.74 412.95 935.56 404.54 905.94 497.90 781.89 600.68 934.79 595.76
00001916 00000107 603.88 160.78 377.49 563.27 755.54 411.16 933.60 403.27 904.76 495.22 780.69 599.63 933.01 595.11
00001917 00000108 597.96 158.75 381.74 563.56 755.01 406.73 933.71 402.32 905.06 493.23 779.33 596.95 930.50 595.31
00001918 00000109 599.93 154.55 378.93 563.24 756.82 403.27 935.23 396.42 907.76 492.59 779.54 593.90 930.68 590.75
00001919 00000110 596.65 153.56 381.88 563.59 761.57 400.35 936.35 394.38 912.56 488.14 784.72 590.18 933.31 587.55
00001920 00000111 595.83 150.57 383.26 562.20 764.97 398.58 938.11 390.58 914.01 484.17 789.73 587.37 935.02 583.04
00001921 00000112 603.83 149.09 378.83 561.74 773.52 397.91 942.33 384.85 923.31 484.06 797.70 586.87 940.84 578.60
00001922 00000113 598.32 146.83 389.26 569.59 773.67 400.95 940.12 395.02 921.04 479.27 808.50 581.60 942.94 578.00
00001923 00000114 613.66 153.51 382.56 568.57 784.15 405.15 952.17 400.18 934.18 480.42 817.36 587.62 953.73 584.22
00001924 00000115 623.25 163.11 376.36 564.80 794.46 412.21 953.78 403.75 942.68 483.63 827.69 593.47 957.49 587.70
00001925 00000116 629.52 168.27 373.88 564.82 800.09 417.77 960.80 405.57 949.89 493.66 824.48 599.87 957.85 591.76
00001926 00000117 632.43 175.21 374.19 561.12 804.45 424.12 970.66 408.77 957.73 500.90 822.25 602.70 964.61 592.53
00001927 00000118 641.72 176.41 370.52 556.57 810.87 426.11 977.95 409.82 964.87 501.89 826.97 602.03 971.89 591.64
00001928 00000119 642.92 179.76 376.00 546.68 816.68 426.84 982.55 408.68 970.85 502.06 841.54 603.40 978.73 591.23
00001929 00000120 651.41 178.30 374.29 547.86 826.67 420.94 989.69 404.47 979.46 504.77 857.00 608.52 983.27 597.28
00001930 00000121 666.99 171.72 366.52 557.21 838.47 413.36 995.68 402.59 987.27 503.58 866.00 608.10 987.58 601.34
00001931 00000122 668.12 170.55 365.42 557.89 844.65 410.40 999.83 401.94 993.40 499.85 869.96 603.80 991.41 598.90
00001932 00000123 670.96 170.22 363.30 552.41 845.37 406.94 1003.53 400.93 994.90 496.08 870.11 600.36 994.88 597.64
00001933 00000124 673.70 166.91 361.84 553.01 844.83 402.19 1007.07 398.64 996.42 495.60 868.08 597.69 996.08 597.01
00001934 00000125 672.87 162.96 363.58 554.37 843.77 400.01 1009.29 399.74 996.16 491.23 867.28 594.88 999.00 596.59
00001935 00000126 678.51 162.57 358.82 556.25 847.66 399.26 1009.78 397.68 998.00 492.31 863.85 591.99 997.79 593.47
00001936 00000127 679.10 164.89 357.79 560.12 852.99 397.13 1008.59 396.78 1003.23 493.10 861.85 590.87 992.22 593.78
00001937 00000128 687.42 167.76 349.10 565.89 860.91 397.25 1008.29 400.45 1006.57 495.91 861.71 590.83 986.58 596.89
00001938 00000129 682.96 170.54 350.64 563.24 858.99 399.08 1003.05 401.83 1003.44 495.16 857.23 589.06 981.17 595.02
00001939 00000130 677.46 172.95 350.99 557.73 854.35 400.49 998.47 402.25 997.95 492.76 852.89 585.17 978.15 590.45
00001940 00000131 664.87 173.74 354.88 551.14 844.90 404.15 992.56 407.28 991.31 490.60 854.39 587.11 975.55 592.53
00001941 00000132 665.53 174.46 350.56 548.80 838.21 409.66 988.65 409.33 986.81 492.88 857.46 592.64 976.81 594.86
00001942 00000133 657.97 179.92 352.83 543.61 831.80 413.57 983.16 410.98 981.21 494.48 854.79 595.11 973.55 595.36
00001943 00000134 656.93 182.84 351.12 540.42 830.22 416.55 982.19 414.69 978.15 496.92 853.64 596.76 970.88 597.37
00001944 00000135 653.02 184.65 355.20 540.02 828.68 417.65 982.14 413.81 976.74 500.26 850.79 598.95 969.07 598.05
00001945 00000136 656.13 186.70 352.83 538.27 828.62 418.62 981.89 414.56 976.23 502.26 847.61 598.79 966.98 598.14
00001946 00000137 658.27 187.32 352.00 539.29 829.30 418.35 981.76 415.84 974.85 503.15 845.77 599.67 965.15 600.32
00001947 00000138 658.45 188.67 349.58 539.95 829.85 418.61 978.25 416.00 973.02 504.64 848.07 601.19 963.86 601.36
00001948 00000139 655.58 190.95 351.41 538.51 828.79 419.33 978.36 416.05 973.31 505.48 846.07 602.59 962.37 602.34
00001949 00000140 654.92 192.77 349.82 536.14 828.52 418.77 977.96 417.88 973.24 504.14 844.66 600.65 961.41 602.43
00001950 00000141 660.42 195.93 344.41 533.21 828.44 420.56 977.24 419.21 973.11 505.96 843.87 601.41 961.03 603.18
00001951 00000142 659.43 196.95 344.82 532.22 828.72 421.68 977.18 420.71 973.35 506.84 844.62 602.40 961.49 604.49
00001952 00000143 651.25 197.50 351.15 534.37 822.24 423.67 976.09 423.31 969.44 506.92 838.23 604.08 958.85 606.67
00001953 00000144 647.33 199.30 351.29 534.92 813.92 427.76 971.28 426.35 961.84 509.14 831.43 605.85 955.72 607.46
00001954 00000145 640.55 200.06 351.86 533.66 808.89 429.17 964.04 426.42 953.89 512.36 828.75 607.16 950.23 607.15
00001955 00000146 625.79 202.99 362.03 530.92 807.00 427.17 960.71 425.82 951.60 513.37 827.22 606.29 945.66 607.57
00001956 00000147 635.01 204.68 354.13 529.49 803.55 430.01 958.42 427.56 945.93 514.81 823.45 608.00 944.47 608.17
00001957 00000148 636.48 204.14 351.57 531.19 802.60 430.53 957.76 428.52 944.48 515.53 821.95 608.74 942.89 609.31
00001958 00000149 632.96 203.28 353.68 532.18 801.10 429.97 956.56 428.00 943.42 515.41 821.10 608.77 942.09 609.35
00001959 00000150 631.23 205.41 353.34 529.93 798.72 429.47 954.44 428.00 941.99 515.30 819.49 608.68 939.72 609.66
00001960 00000151 631.30 207.39 351.96 527.33 796.47 428.41 952.42 426.73 940.60 513.95 818.59 607.95 939.72 608.57
00001961 00000152 632.28 206.79 351.92 527.96 796.98 429.32 952.19 426.93 940.19 514.49 818.35 608.30 939.51 608.39
00001962 00000153 633.22 205.93 349.94 528.96 796.97 428.73 951.16 424.81 939.75 513.09 817.30 606.71 939.44 605.86
00001963 00000154 633.65 205.23 350.25 529.27 797.40 428.44 951.70 424.93 939.94 512.89 817.45 606.53 939.60 606.04
00001964 00000155 636.60 202.74 347.87 531.78 799.93 429.80 953.04 427.88 939.99 510.16 815.50 603.88 940.67 604.71
00001965 00000156 631.29 195.40 352.31 538.88 796.09 433.47 954.84 434.45 935.34 508.28 808.37 603.05 942.10 605.58
00001966 00000157 631.43 191.28 352.27 542.30 788.50 426.11 951.96 429.54 926.42 507.55 798.06 600.19 937.38 604.76
00001967 00000158 623.53 187.11 360.00 544.12 777.69 419.24 945.68 423.11 913.36 506.25 788.95 596.32 931.84 600.99
00001968 00000159 612.86 184.15 367.92 544.36 766.87 414.22 934.46 412.97 901.20 503.08 783.63 595.56 925.47 595.82
00001969 00000160 612.50 184.38 367.35 543.03 758.62 414.77 928.84 409.23 892.48 504.29 774.31 598.43 922.52 595.38
00001970 00000161 605.36 190.69 373.39 537.91 746.43 423.50 925.09 415.39 885.84 509.85 759.84 597.98 917.18 594.33
00001971 00000162 601.74 192.34 371.62 538.11 736.26 429.75 916.16 419.82 872.80 516.59 752.93 605.01 911.44 599.23
00001972 00000163 598.13 193.15 370.23 538.59 727.58 436.79 906.17 429.30 855.18 521.69 751.44 616.03 898.78 611.12
00001973 00000164 591.17 202.16 367.74 535.11 724.63 443.57 901.32 435.37 851.60 530.45 749.91 623.59 893.08 617.58
00001974 00000165 585.36 203.60 369.53 542.29 722.12 450.37 898.42 439.42 852.75 535.88 749.84 631.05 892.20 622.53
00001975 00000166 582.45 209.03 368.88 550.70 718.33 455.80 893.94 442.89 850.55 541.91 744.56 639.98 886.56 630.06
00001976 00000167 584.82 212.22 363.25 558.43 715.97 458.98 889.75 448.48 847.82 542.74 738.65 642.82 884.13 634.62
00001977 00000168 577.95 211.22 364.82 554.17 713.29 462.08 887.45 450.74 846.05 546.09 736.12 641.93 881.82 632.74
00001978 00000169 564.78 207.86 373.90 559.82 707.59 458.47 884.47 449.64 841.71 546.54 728.46 640.21 877.10 632.91
00001979 00000170 562.14 209.25 370.61 561.64 703.72 459.23 878.48 451.01 837.60 546.04 721.66 639.28 870.98 632.68
