Video ID: 	oZ3RMVSR5N8
H: 	1080
W: 	1920
FPS: 	25.0

FRAME INDEX X0 Y0 W H [Landmarks (5 Points)]

00011418 00000000 456.56 194.15 376.41 510.73 543.69 420.44 688.49 389.64 624.26 489.87 589.59 579.93 720.31 554.64
00011419 00000001 447.23 203.11 377.82 502.62 534.30 422.72 676.67 391.52 613.07 493.01 583.58 580.98 711.25 555.23
00011420 00000002 441.87 206.02 375.25 498.46 528.91 423.61 674.00 393.01 607.99 494.08 577.80 584.73 704.58 559.64
00011421 00000003 436.26 202.41 376.06 497.09 524.24 424.24 670.09 391.26 604.42 490.75 575.74 585.37 701.43 558.22
00011422 00000004 430.58 199.11 380.16 497.38 521.94 423.27 667.25 387.09 602.54 486.24 578.20 586.91 699.64 557.38
00011423 00000005 428.85 193.69 381.82 503.16 522.14 417.94 663.22 381.34 600.87 481.05 580.57 582.27 696.71 552.54
00011424 00000006 429.75 192.55 383.22 504.99 524.59 416.72 661.68 375.78 603.50 477.97 585.82 579.86 700.00 546.46
00011425 00000007 429.37 192.49 386.13 505.06 527.57 417.19 664.56 371.85 609.60 476.38 592.27 577.76 707.93 540.38
00011426 00000008 430.31 193.99 387.50 506.50 528.24 418.74 666.47 371.71 611.76 477.58 594.78 580.27 712.97 541.11
00011427 00000009 430.64 194.41 387.10 506.78 528.68 420.46 666.49 374.07 612.76 480.26 595.67 582.17 713.29 543.45
00011428 00000010 428.75 198.14 385.66 502.13 527.68 422.28 665.24 378.94 610.58 480.34 592.37 583.39 707.91 547.39
00011429 00000011 423.40 201.95 386.83 503.18 520.34 423.15 661.25 381.87 603.85 484.90 584.75 588.38 703.40 553.94
00011430 00000012 412.84 207.97 389.01 508.71 510.28 428.72 652.12 393.96 592.70 495.31 573.41 596.83 691.06 567.69
00011431 00000013 402.26 210.18 389.62 522.51 499.57 434.26 640.44 401.37 579.81 510.69 566.80 613.15 676.68 585.88
00011432 DELETE   393.70 215.13 386.50 525.53 487.09 442.71 630.23 412.72 565.51 519.25 550.24 618.28 661.60 593.71
00011433 00000015 381.84 237.30 386.14 504.91 469.35 463.41 609.94 426.98 552.81 542.28 537.74 635.38 644.41 605.10
00011434 DELETE   371.99 249.96 385.02 510.08 462.67 476.30 601.81 440.02 544.71 562.49 530.69 649.33 639.06 619.06
00011435 00000017 358.75 261.08 389.02 505.41 451.56 487.15 592.94 454.26 532.06 578.80 518.71 655.73 632.90 628.47
00011436 DELETE   345.12 264.30 387.30 495.38 433.97 490.27 585.08 460.74 519.34 586.76 503.99 652.83 625.77 626.03
00011437 00000019 328.21 264.96 391.55 496.46 420.09 490.17 570.91 456.34 505.83 583.41 488.35 650.22 612.57 620.19
00011438 00000020 321.26 265.74 390.17 497.32 411.23 489.73 560.62 453.00 495.27 576.41 477.78 646.69 605.21 614.87
00011439 00000021 319.13 259.53 386.68 498.45 409.01 482.86 555.29 446.79 490.68 566.90 474.52 639.25 597.64 608.37
00011440 00000022 316.89 254.07 390.73 503.72 410.41 477.24 556.43 441.57 493.69 563.52 478.54 636.18 600.08 605.53
00011441 00000023 321.88 254.39 390.26 500.28 414.82 473.85 561.79 439.67 498.16 564.06 482.54 635.11 604.52 605.42
00011442 00000024 328.67 250.26 390.40 498.95 423.35 472.52 569.48 441.38 506.04 561.52 487.61 632.03 608.74 604.47
00011443 00000025 337.44 248.60 385.88 495.89 432.63 470.55 577.43 439.55 516.28 561.18 498.53 631.93 616.33 604.37
00011444 00000026 345.97 247.74 384.57 495.15 442.09 472.78 588.19 440.87 526.68 560.96 507.26 632.04 624.93 603.95
00011445 00000027 354.58 246.12 380.87 496.21 447.75 473.20 595.18 441.17 531.91 559.32 510.26 631.67 629.52 603.81
00011446 00000028 370.72 245.44 379.01 500.60 457.74 467.00 601.44 435.28 540.73 553.17 511.98 633.82 630.56 607.67
00011447 00000029 377.37 244.67 377.86 500.18 464.28 467.18 606.86 435.38 548.38 551.61 517.20 630.94 637.39 604.55
00011448 00000030 385.91 240.76 378.41 501.14 471.80 461.23 616.97 431.52 558.02 549.39 524.79 624.61 646.77 600.50
00011449 00000031 403.44 226.28 382.97 512.63 487.79 451.72 640.52 429.90 574.30 551.13 543.19 620.54 670.20 599.91
00011450 00000032 418.12 231.81 377.44 504.25 509.69 452.90 659.39 432.01 590.17 546.51 563.85 619.91 684.78 601.78
00011451 DELETE   439.01 234.93 371.25 503.01 530.16 455.67 676.69 435.50 610.10 546.82 578.72 621.22 696.53 604.46
00011452 00000034 461.80 234.69 369.99 507.97 556.44 450.49 700.99 432.95 635.99 541.24 595.04 615.30 716.95 601.07
00011453 DELETE   481.76 227.83 374.95 508.91 577.93 443.15 731.58 433.14 657.04 542.01 619.34 612.99 744.93 604.30
00011454 DELETE   508.15 231.54 364.72 506.12 600.99 450.48 753.30 440.07 681.15 546.62 638.69 617.24 760.61 608.82
00011455 00000037 531.74 230.91 361.52 509.44 618.66 442.47 768.56 434.51 700.87 540.57 647.18 616.51 769.90 610.33
00011456 DELETE   547.93 236.03 358.90 505.24 636.51 448.25 785.77 445.03 719.80 540.04 664.04 614.87 792.62 612.98
00011457 DELETE   559.75 227.15 361.55 511.54 659.75 444.25 806.16 443.60 737.15 533.25 682.79 606.31 808.75 605.04
00011458 DELETE   570.88 226.32 365.11 505.37 674.35 435.97 829.13 441.37 747.47 531.52 693.49 602.14 817.81 607.87
00011459 00000041 578.30 224.29 363.53 504.30 681.79 433.40 836.59 438.14 757.20 532.51 699.88 600.92 823.12 606.54
00011460 00000042 585.95 219.03 362.47 504.88 691.21 428.44 846.18 435.15 768.36 526.08 706.13 597.84 828.56 605.25
00011461 00000043 589.10 218.77 362.00 503.69 696.83 425.88 852.52 433.58 774.81 526.05 707.85 597.07 830.69 605.49
00011462 00000044 588.28 216.17 360.75 504.24 697.67 423.20 853.83 431.09 777.05 523.47 708.68 596.01 830.80 604.81
00011463 00000045 587.76 213.31 358.77 506.44 697.47 422.20 853.63 429.64 777.83 523.41 708.78 596.44 830.50 604.95
00011464 00000046 582.79 211.08 358.95 510.01 692.72 422.74 849.66 430.81 773.41 523.90 705.05 597.69 826.90 606.60
00011465 00000047 577.66 213.36 358.31 509.06 688.14 423.81 846.19 432.49 768.91 524.68 701.52 598.90 823.97 607.89
00011466 00000048 573.22 215.97 359.60 507.95 685.06 423.59 843.21 432.84 765.08 526.19 697.68 599.19 821.06 608.43
00011467 00000049 569.23 217.67 360.63 506.43 681.94 422.57 841.48 432.71 762.95 524.73 694.69 598.77 820.38 608.49
00011468 00000050 568.38 218.57 360.58 506.11 679.87 424.71 840.35 434.35 761.26 524.97 693.39 600.30 820.33 609.51
00011469 00000051 569.29 219.38 360.16 505.14 680.36 425.37 840.37 434.64 761.03 524.56 693.79 600.48 819.72 609.41
00011470 00000052 569.93 219.74 360.67 507.51 681.85 426.60 840.45 436.65 762.04 526.26 695.07 601.71 819.24 611.28
00011471 00000053 572.05 218.11 360.85 509.88 683.78 425.99 841.91 435.14 764.63 526.24 698.84 602.18 822.09 611.05
00011472 00000054 573.00 217.73 360.81 514.21 685.89 425.98 842.64 436.50 767.30 527.18 701.74 603.99 822.96 613.86
00011473 00000055 574.51 217.61 360.45 516.24 687.43 426.36 844.91 437.02 769.45 526.69 702.03 605.08 823.54 615.24
00011474 00000056 574.22 218.12 360.10 513.75 687.45 426.03 846.07 436.14 770.45 525.12 702.58 604.47 824.95 614.18
00011475 00000057 574.69 217.78 359.50 512.25 687.63 426.30 846.55 435.30 771.03 524.57 703.65 604.10 825.86 612.89
00011476 00000058 575.68 215.36 358.27 513.24 687.96 425.12 846.79 433.77 771.34 523.51 704.15 603.21 826.06 611.79
00011477 00000059 575.30 216.20 358.28 512.35 688.19 424.87 846.19 433.71 771.19 523.56 703.48 602.42 825.18 611.17
00011478 00000060 576.24 214.84 357.36 513.53 688.56 424.14 846.99 433.20 771.98 523.06 703.46 602.53 825.26 611.58
00011479 00000061 576.38 214.92 356.82 513.03 688.59 424.12 847.04 433.08 772.20 523.24 703.06 602.03 825.33 610.99
00011480 00000062 575.86 216.36 357.70 509.30 688.71 425.43 847.36 433.37 771.99 523.51 703.05 600.55 826.34 608.59
00011481 00000063 575.94 216.21 358.20 508.65 688.94 426.03 847.19 434.19 772.06 524.29 702.96 599.39 826.89 607.62
00011482 00000064 575.29 218.63 359.52 507.34 688.85 427.78 847.10 435.34 772.37 526.37 703.71 600.53 827.40 608.14
00011483 00000065 575.91 221.33 358.43 502.48 689.39 430.61 847.27 436.97 773.37 528.12 705.66 600.69 829.44 607.20
00011484 00000066 576.25 221.87 357.99 500.00 688.65 430.83 846.57 435.89 772.65 527.83 706.04 600.20 829.83 605.65
00011485 00000067 576.38 219.60 358.17 499.19 687.84 427.73 847.14 431.89 772.49 524.49 706.38 598.77 830.57 603.57
00011486 00000068 576.28 214.41 357.51 499.88 691.59 425.39 847.44 432.91 775.28 517.85 707.36 592.30 830.39 599.65
00011487 00000069 576.11 204.75 356.83 503.20 691.49 420.98 843.43 429.81 772.66 506.85 705.26 585.23 827.07 593.70
00011488 00000070 572.69 199.10 360.31 512.61 689.96 409.89 839.92 420.93 767.91 494.95 700.87 577.26 821.60 587.77
00011489 00000071 570.01 194.29 360.17 517.10 685.28 395.13 838.51 409.91 766.23 486.07 694.48 569.69 822.86 583.54
00011490 00000072 565.59 190.80 359.80 510.88 677.28 388.60 833.23 400.60 762.93 474.66 689.02 562.14 823.26 573.31
00011491 00000073 561.10 187.81 360.02 506.37 669.28 385.03 825.74 394.90 756.03 468.03 683.07 556.27 820.20 565.28
00011492 00000074 559.03 188.06 356.88 499.45 654.88 391.67 816.70 389.44 745.59 466.76 677.03 560.83 815.96 560.51
00011493 00000075 552.90 186.34 359.21 500.39 650.63 394.48 810.99 391.65 740.55 470.49 672.07 561.08 812.14 560.30
00011494 00000076 547.28 191.33 360.98 499.99 643.73 400.68 803.79 398.33 730.26 479.71 664.92 567.54 803.85 566.70
00011495 00000077 539.43 196.07 364.67 503.32 635.52 409.22 792.42 407.12 717.22 493.97 655.64 574.00 792.93 573.54
00011496 00000078 531.48 208.86 364.64 499.70 628.03 423.20 780.96 415.32 707.23 508.14 650.91 585.45 782.56 580.22
00011497 00000079 525.58 221.35 361.43 494.20 618.46 435.00 772.14 425.88 698.05 523.30 644.33 598.22 772.72 591.90
00011498 00000080 519.78 232.60 358.48 498.42 613.11 445.14 765.57 436.71 692.18 537.11 640.03 609.08 766.49 603.12
00011499 00000081 511.03 239.36 362.08 500.59 606.97 457.66 758.38 448.74 688.67 549.17 640.10 620.21 763.27 612.91
00011500 00000082 507.79 246.49 362.22 500.66 602.07 463.94 758.31 456.07 684.78 558.03 634.12 626.16 763.46 619.34
00011501 00000083 508.70 258.33 360.61 495.49 601.47 471.25 757.69 461.68 685.12 567.14 633.54 632.28 764.99 623.78
00011502 00000084 518.08 258.27 356.69 494.90 606.51 468.68 757.68 460.51 686.36 567.53 631.45 636.28 761.92 630.71
00011503 00000085 520.18 255.19 356.93 498.11 608.12 468.04 759.46 460.64 688.27 566.42 633.26 635.23 764.63 630.35
00011504 00000086 521.99 252.28 358.06 499.75 610.26 465.44 762.20 458.23 691.28 562.83 634.63 632.91 766.96 628.26
00011505 00000087 523.00 245.21 359.13 504.06 612.46 459.27 765.39 453.97 694.91 556.68 634.93 629.04 765.52 625.93
00011506 00000088 525.59 241.55 357.53 503.70 615.40 455.37 767.00 448.87 699.21 551.95 638.51 626.22 767.73 621.99
00011507 00000089 517.52 234.71 361.02 506.14 613.11 455.64 762.79 446.74 695.06 550.27 645.64 619.04 768.39 611.89
00011508 00000090 517.41 230.58 360.42 509.30 611.32 449.54 760.45 441.69 690.06 545.16 643.58 617.11 763.32 611.29
00011509 00000091 512.83 228.04 362.42 507.34 603.43 443.41 755.79 437.27 679.63 539.23 636.62 614.30 755.12 610.33
00011510 00000092 507.61 223.17 363.21 506.28 592.03 434.14 744.35 427.32 664.02 528.41 626.16 606.92 745.73 602.50
00011511 00000093 501.74 209.49 364.76 513.81 584.37 426.93 734.18 420.67 651.52 518.42 617.34 596.34 740.68 591.90
00011512 00000094 494.69 204.16 367.66 508.93 578.44 418.18 727.05 409.90 645.78 502.81 610.48 585.51 736.65 579.22
00011513 00000095 492.44 191.21 366.71 510.15 570.15 413.18 719.29 397.00 633.28 494.12 602.42 582.61 730.54 569.13
00011514 00000096 486.53 187.75 370.16 511.99 566.62 408.94 715.53 389.96 631.11 486.83 599.83 578.54 727.93 562.97
00011515 00000097 477.42 196.57 374.55 509.77 557.46 409.92 709.28 386.05 632.02 483.53 599.07 576.12 732.48 556.40
00011516 00000098 475.66 195.66 375.40 522.64 556.45 415.69 707.93 390.32 630.82 491.18 599.40 584.67 733.79 563.82
00011517 00000099 472.98 199.14 374.17 521.86 553.93 424.48 703.86 396.54 626.82 499.86 598.81 593.50 729.04 570.83
00011518 00000100 470.13 206.58 371.57 512.34 551.80 429.26 698.38 399.92 624.99 507.44 597.78 597.33 723.40 574.00
00011519 00000101 467.52 206.68 372.60 506.58 547.28 431.86 694.18 403.21 620.17 512.37 594.64 600.18 716.95 577.76
00011520 00000102 464.22 204.37 373.12 503.61 543.83 429.90 690.02 400.79 615.65 508.25 591.43 597.33 712.17 574.37
00011521 00000103 462.53 198.21 374.11 506.31 540.84 426.07 686.84 395.33 610.60 500.46 588.26 593.06 710.26 568.71
00011522 00000104 461.64 193.00 374.83 509.47 541.53 416.70 683.33 388.57 610.39 487.97 588.36 583.16 707.71 560.89
00011523 00000105 462.25 192.70 375.69 509.80 541.76 416.00 685.40 386.44 612.00 486.57 589.20 581.81 712.28 558.13
00011524 00000106 463.22 199.18 376.10 508.75 542.77 424.23 690.10 392.32 614.22 495.28 590.25 590.54 716.51 564.92
00011525 00000107 463.83 209.08 376.83 505.02 545.45 433.54 695.27 399.46 621.38 506.53 595.56 599.53 722.50 572.00
00011526 00000108 466.84 221.88 373.20 500.77 548.08 442.97 699.79 411.43 626.45 519.33 599.72 608.25 726.68 582.68
00011527 00000109 467.30 231.44 373.54 499.99 550.03 452.60 701.57 423.72 627.95 528.17 600.61 615.01 728.81 591.18
00011528 00000110 472.37 225.34 371.83 504.05 555.09 450.79 712.75 429.48 635.30 528.05 605.59 613.54 740.25 595.13
00011529 00000111 474.01 227.28 372.64 507.55 565.64 457.89 721.27 439.47 648.21 535.47 613.77 614.68 748.70 598.06
CROP_BBOX: 188 0 1084 921
