Video ID: 	fVm_k7Lpm6U
H: 	1080
W: 	1920
FPS: 	25.0

FRAME INDEX X0 Y0 W H [Landmarks (5 Points)]

00021188 00000000 801.93 294.59 430.17 569.15 922.83 551.05 1098.54 502.40 1044.36 660.14 998.74 726.74 1151.82 686.59
00021189 DELETE   803.50 297.91 430.78 563.97 923.66 550.51 1099.52 502.35 1043.79 660.58 996.78 724.28 1151.67 684.36
00021190 DELETE   806.00 295.59 429.22 565.38 924.98 551.54 1099.80 502.56 1045.01 659.47 999.19 724.65 1152.95 683.93
00021191 00000003 806.55 304.51 438.39 557.51 931.02 561.23 1099.12 505.82 1050.67 664.33 1002.38 736.25 1153.63 691.19
00021192 00000004 806.56 304.53 438.40 557.55 931.01 561.23 1099.12 505.84 1050.64 664.35 1002.29 736.23 1153.63 691.20
00021193 00000005 808.22 306.74 438.95 555.85 934.27 557.63 1102.75 504.01 1053.50 663.21 1007.50 739.23 1152.39 695.32
00021194 00000006 813.79 289.94 433.56 567.83 935.74 549.76 1112.80 503.11 1055.36 663.92 1007.96 729.10 1157.67 689.89
00021195 DELETE   817.17 280.67 430.31 575.43 939.83 554.98 1117.42 509.99 1057.90 662.39 1007.22 727.89 1158.05 690.04
00021196 DELETE   818.77 274.10 431.63 584.87 943.90 559.97 1122.49 518.03 1060.13 663.73 1007.35 729.76 1160.91 694.16
00021197 DELETE   821.45 287.35 433.74 588.97 946.10 560.14 1115.84 514.54 1062.32 671.61 1005.57 729.87 1168.32 692.06
00021198 00000010 828.06 283.76 433.06 590.78 946.89 555.16 1118.06 507.63 1063.35 670.17 1005.31 729.64 1170.71 689.72
00021199 00000011 833.12 286.64 429.66 583.93 947.55 547.26 1121.92 501.27 1064.34 668.50 1003.51 727.18 1170.16 688.20
00021200 00000012 831.83 287.49 428.73 579.34 947.16 541.79 1122.15 499.33 1062.93 666.43 1001.45 724.11 1166.90 687.95
00021201 00000013 828.85 285.95 426.24 581.97 942.89 540.92 1117.17 500.45 1058.17 667.36 998.48 725.15 1160.38 690.89
00021202 00000014 821.01 271.14 427.64 593.10 936.15 542.46 1114.70 499.91 1053.12 664.16 998.63 725.48 1156.88 690.16
00021203 00000015 820.52 293.40 425.83 577.28 934.29 546.97 1110.13 507.59 1049.31 669.57 991.40 730.32 1153.63 697.20
00021204 00000016 816.71 293.23 425.35 578.59 930.71 547.89 1105.61 509.79 1044.84 670.47 987.88 731.87 1147.67 700.04
00021205 00000017 807.91 286.88 425.06 578.67 924.31 543.47 1103.47 502.18 1041.34 663.31 985.33 722.83 1145.12 689.00
00021206 00000018 807.57 287.50 422.89 574.89 923.97 540.46 1102.42 499.65 1040.90 660.98 986.00 720.85 1143.16 687.63
00021207 00000019 807.78 281.82 421.67 578.24 924.92 539.18 1103.46 498.80 1042.27 660.11 987.18 720.86 1143.22 688.00
00021208 00000020 809.35 276.86 421.08 582.80 927.17 539.74 1106.45 498.29 1046.63 659.75 989.65 721.54 1146.68 687.53
00021209 00000021 810.49 281.90 420.34 576.17 928.82 539.56 1109.97 495.66 1051.18 655.84 991.96 722.55 1149.63 686.63
00021210 00000022 813.19 276.99 421.62 582.13 934.12 538.72 1114.21 494.55 1057.35 655.61 997.04 723.14 1154.29 686.72
00021211 00000023 816.78 286.24 420.00 572.07 941.32 535.81 1119.71 492.41 1065.00 656.44 999.70 720.95 1155.44 685.15
00021212 00000024 826.13 290.10 421.75 575.36 947.08 537.74 1123.06 498.11 1066.55 662.71 995.52 724.79 1158.54 691.69
00021213 00000025 830.36 289.11 423.62 576.61 950.99 537.88 1127.96 497.23 1069.94 663.66 996.72 721.65 1164.09 687.34
00021214 00000026 834.81 294.62 424.20 571.15 955.60 536.27 1135.21 495.20 1076.24 664.12 1000.78 721.50 1168.36 686.76
00021215 00000027 836.60 290.47 424.43 575.23 958.58 536.92 1139.55 493.73 1081.25 663.87 1004.32 721.35 1173.18 684.74
00021216 00000028 841.51 284.31 422.22 578.52 960.21 539.40 1142.69 494.77 1084.16 666.55 1005.79 720.99 1177.54 683.21
00021217 00000029 841.44 283.98 422.30 578.82 960.18 539.41 1142.66 494.78 1084.13 666.54 1005.79 720.99 1177.52 683.21
00021218 00000030 843.52 285.17 423.62 575.35 963.99 537.78 1147.71 493.21 1089.51 666.03 1008.97 719.80 1180.50 682.17
00021219 00000031 848.22 287.06 421.74 572.70 968.03 536.28 1153.12 493.44 1093.63 666.05 1010.74 717.97 1183.51 682.21
00021220 00000032 851.59 287.36 420.46 572.66 971.07 537.64 1155.58 494.12 1097.06 664.46 1014.12 717.90 1186.58 681.67
00021221 00000033 856.02 289.60 420.00 570.18 974.19 535.95 1158.50 493.88 1098.91 662.86 1015.49 715.55 1187.77 680.50
00021222 00000034 858.01 289.40 422.30 570.03 976.62 535.17 1160.28 492.96 1100.62 662.55 1019.34 716.02 1189.80 680.53
00021223 00000035 868.67 279.20 413.82 578.99 984.67 535.66 1170.49 496.46 1106.38 659.02 1034.28 716.39 1201.09 685.34
00021224 00000036 855.85 291.22 425.06 573.50 980.55 536.76 1163.05 492.39 1107.70 659.80 1031.24 726.87 1191.44 689.75
00021225 00000037 857.27 291.45 423.83 576.44 981.93 538.50 1165.65 493.96 1110.35 661.05 1034.75 731.91 1193.37 694.76
00021226 00000038 858.71 295.37 424.81 580.36 987.58 539.46 1167.21 498.30 1113.40 661.07 1037.65 734.42 1192.57 699.90
00021227 00000039 860.98 300.71 424.93 576.31 987.97 540.28 1169.73 497.73 1114.58 662.34 1037.61 735.18 1195.96 699.52
00021228 00000040 861.08 303.54 425.41 571.70 988.71 540.32 1170.27 496.62 1115.74 660.85 1041.23 734.94 1198.27 697.96
00021229 00000041 862.20 301.37 422.74 569.93 987.57 539.86 1170.54 494.97 1115.60 659.63 1042.80 735.23 1198.82 697.32
00021230 00000042 860.37 291.17 426.24 584.18 985.78 532.99 1166.18 492.88 1110.89 654.01 1037.01 730.61 1193.18 696.46
00021231 00000043 860.74 279.81 426.69 589.02 988.71 528.06 1169.35 492.86 1112.75 648.87 1033.69 721.59 1193.27 691.47
00021232 00000044 872.00 276.97 421.81 582.22 998.24 519.10 1178.44 490.67 1115.48 642.09 1041.81 706.34 1206.07 683.99
00021233 00000045 872.60 275.55 425.42 579.68 999.94 515.71 1180.64 487.57 1117.00 639.35 1043.41 703.89 1208.26 681.67
00021234 00000046 872.89 280.79 426.25 572.95 999.64 515.67 1181.04 489.73 1114.71 640.37 1041.47 703.80 1205.53 683.61
00021235 00000047 868.90 283.71 429.85 572.68 995.63 512.57 1179.68 489.60 1109.95 643.02 1036.55 705.30 1200.00 687.91
00021236 00000048 868.80 279.13 429.66 577.29 993.47 510.12 1178.73 488.37 1106.32 640.92 1032.02 703.83 1197.58 687.44
00021237 00000049 870.50 262.96 430.22 587.60 995.51 506.54 1179.67 484.20 1107.15 635.26 1031.96 702.23 1196.78 685.21
00021238 00000050 867.89 252.95 435.04 592.57 998.55 497.96 1182.03 474.47 1111.06 622.35 1034.46 695.53 1196.54 677.19
00021239 00000051 867.75 241.94 435.32 591.67 998.37 489.69 1184.09 466.39 1112.81 613.48 1034.50 688.58 1195.55 669.95
00021240 00000052 868.76 239.85 432.98 590.31 994.27 484.10 1186.20 460.59 1110.81 609.90 1028.06 685.64 1195.73 666.85
00021241 00000053 868.79 239.92 432.94 590.27 994.26 484.16 1186.22 460.60 1110.83 609.93 1028.02 685.70 1195.78 666.87
00021242 00000054 866.53 240.49 432.19 591.78 991.83 483.40 1183.50 461.21 1107.10 610.25 1023.88 685.32 1190.79 667.81
00021243 00000055 861.69 244.95 434.66 593.58 988.58 488.71 1181.69 466.30 1104.34 617.90 1020.72 691.03 1189.04 673.56
00021244 00000056 861.70 251.02 432.21 594.38 988.42 495.17 1180.80 473.28 1104.09 627.17 1021.89 698.25 1188.94 681.74
00021245 00000057 860.40 260.08 430.56 590.12 989.95 497.02 1178.24 477.02 1104.97 630.17 1026.91 700.68 1187.81 685.84
00021246 00000058 860.92 258.32 428.57 594.29 989.79 498.65 1176.92 477.98 1104.74 632.15 1026.23 701.46 1188.05 685.95
00021247 00000059 860.39 255.09 427.94 595.38 988.40 497.61 1175.61 477.48 1102.44 630.41 1024.18 699.74 1185.84 684.45
00021248 00000060 859.38 254.92 427.00 593.71 988.24 495.69 1174.91 475.87 1102.14 628.71 1022.53 696.52 1184.39 681.53
00021249 00000061 852.43 258.15 429.37 588.50 981.10 494.12 1168.81 468.05 1102.09 624.86 1018.30 696.95 1177.04 673.30
00021250 00000062 853.31 251.47 425.99 597.12 982.89 498.75 1166.61 468.36 1100.25 626.81 1018.43 699.28 1182.26 674.07
00021251 00000063 857.46 248.37 428.04 598.10 985.72 495.19 1173.54 471.94 1101.17 624.71 1016.33 692.78 1185.16 674.96
00021252 00000064 859.09 255.71 426.24 594.38 986.71 499.03 1172.81 478.01 1099.69 629.56 1016.79 695.32 1184.50 679.24
00021253 00000065 856.92 257.26 429.88 599.75 986.61 506.89 1174.69 486.55 1101.30 637.28 1017.47 700.90 1186.65 685.34
00021254 00000066 850.69 295.86 431.83 572.16 983.11 517.67 1166.98 495.16 1099.92 653.81 1009.47 706.84 1179.99 687.48
00021255 00000067 848.10 295.46 431.57 575.01 981.63 518.74 1163.65 496.75 1097.54 653.67 1007.55 708.48 1176.67 689.63
00021256 00000068 845.35 288.99 431.22 578.45 977.37 518.06 1162.60 495.16 1095.10 653.32 1005.06 708.46 1176.16 688.61
00021257 00000069 843.98 288.00 429.19 574.08 974.58 513.91 1161.56 490.99 1092.89 648.05 1002.31 703.99 1172.73 684.35
00021258 00000070 841.32 276.90 429.99 581.57 973.33 509.09 1160.61 486.47 1091.66 642.90 1001.14 699.12 1170.12 679.39
00021259 00000071 841.01 267.16 431.74 585.93 971.92 506.72 1159.74 480.85 1090.85 641.30 997.71 695.86 1173.87 675.63
00021260 00000072 838.82 265.74 434.24 580.85 970.16 500.50 1158.46 475.37 1089.68 638.55 997.37 690.87 1172.08 671.22
00021261 00000073 838.54 265.46 434.61 576.31 968.87 497.78 1155.56 472.68 1086.48 634.14 997.81 686.76 1170.75 667.12
00021262 00000074 835.18 261.38 435.39 573.48 966.55 495.84 1152.21 469.78 1084.39 629.20 997.93 682.97 1169.40 662.64
00021263 00000075 835.45 254.13 432.87 571.49 965.02 491.78 1149.28 465.09 1081.49 622.28 997.54 674.87 1170.82 654.04
00021264 00000076 836.26 253.93 431.10 567.80 964.33 489.51 1147.93 462.34 1080.70 617.66 997.57 672.49 1170.11 651.10
00021265 00000077 838.32 251.68 428.45 567.17 964.27 486.27 1147.42 458.69 1081.32 613.34 999.90 671.74 1169.54 649.80
00021266 00000078 838.25 251.74 428.56 567.11 964.32 486.26 1147.44 458.67 1081.35 613.34 999.96 671.73 1169.56 649.80
00021267 00000079 838.55 250.13 428.66 568.30 964.58 485.51 1147.20 457.21 1081.91 610.86 1002.84 673.07 1169.11 650.24
00021268 00000080 838.54 251.07 428.43 566.56 964.56 486.08 1146.85 457.73 1081.79 610.82 1004.21 673.85 1168.23 650.97
00021269 00000081 838.71 247.14 427.09 570.28 966.64 487.59 1147.51 458.84 1083.94 608.35 1005.38 674.40 1167.41 651.22
00021270 00000082 839.81 245.45 425.52 571.84 968.29 486.83 1148.39 459.34 1084.91 605.71 1005.64 673.76 1166.95 651.62
00021271 00000083 839.79 240.89 426.22 576.88 967.08 485.43 1148.59 459.02 1084.15 601.06 1004.67 673.46 1166.59 652.46
00021272 00000084 838.69 240.84 427.57 577.80 966.14 485.02 1148.06 457.52 1084.02 600.07 1004.59 673.69 1167.36 651.83
00021273 00000085 837.55 241.51 428.78 577.63 965.37 484.39 1147.39 457.07 1083.36 598.63 1005.59 675.15 1166.03 653.32
00021274 00000086 834.98 238.79 430.23 581.41 963.15 483.65 1145.63 456.94 1081.78 596.52 1004.07 676.35 1163.38 654.92
00021275 00000087 833.27 241.08 430.45 579.24 961.32 483.39 1144.14 456.99 1080.18 595.70 1004.09 677.34 1162.45 656.07
00021276 00000088 830.14 236.47 431.84 585.72 958.96 479.89 1142.12 454.64 1077.61 591.89 1002.46 676.42 1159.94 655.86
00021277 00000089 829.69 236.06 433.02 587.48 957.61 480.55 1139.79 455.64 1074.79 590.38 1004.19 679.01 1158.39 658.50
00021278 00000090 830.68 241.92 430.05 581.62 955.58 484.81 1141.75 460.50 1073.42 598.88 1000.17 682.76 1158.32 662.94
00021279 00000091 829.00 244.77 431.63 579.99 956.44 489.16 1143.36 463.61 1076.32 604.23 1002.57 686.24 1160.74 665.40
00021280 00000092 828.49 248.27 430.95 574.80 957.44 490.37 1144.78 464.36 1078.17 607.71 1004.25 686.93 1161.99 665.59
00021281 00000093 827.52 250.88 429.84 572.05 957.89 493.59 1142.50 469.20 1075.91 610.83 1001.02 686.19 1157.15 666.47
00021282 00000094 824.78 247.30 432.19 576.93 952.82 500.24 1141.02 476.32 1069.50 610.76 991.38 686.16 1154.69 667.39
00021283 00000095 821.75 247.46 432.14 577.06 951.44 499.84 1140.18 480.64 1064.41 614.49 985.68 686.57 1146.71 671.63
00021284 00000096 821.86 252.11 431.57 575.77 949.36 498.59 1137.14 481.70 1058.22 617.66 981.37 688.68 1139.87 675.70
00021285 00000097 825.13 251.10 429.23 579.37 949.67 498.31 1136.54 483.03 1056.68 621.48 980.48 690.17 1139.23 678.40
00021286 00000098 824.76 260.28 429.80 568.34 951.09 497.44 1133.86 482.71 1055.96 622.59 981.87 688.64 1136.78 677.41
00021287 00000099 825.61 257.54 428.43 571.50 951.52 497.90 1132.39 483.06 1055.95 621.98 982.50 687.83 1137.13 676.32
00021288 00000100 825.38 259.85 429.02 569.30 950.94 497.85 1132.44 482.03 1056.09 622.75 982.20 687.75 1138.58 675.46
00021289 00000101 825.04 256.05 428.48 576.58 950.80 496.52 1129.58 481.78 1054.71 622.03 982.26 687.66 1136.72 676.22
00021290 00000102 824.10 257.23 429.42 575.42 950.72 496.82 1129.70 481.84 1054.95 621.73 982.09 687.71 1136.84 676.13
00021291 00000103 823.73 260.21 429.61 576.30 951.50 495.71 1127.72 482.52 1053.27 621.03 982.45 688.59 1134.36 678.52
00021292 00000104 823.71 256.61 428.82 581.42 952.19 494.77 1126.75 481.01 1053.65 619.71 984.52 689.73 1134.15 679.08
00021293 00000105 825.01 254.16 427.72 582.96 952.87 494.35 1126.91 479.62 1054.51 617.77 985.28 688.69 1135.89 677.10
00021294 00000106 825.52 252.96 428.34 583.48 953.33 492.84 1128.27 477.77 1055.75 614.90 986.47 688.55 1137.20 676.63
00021295 00000107 824.74 249.95 430.32 584.05 954.74 490.32 1131.06 475.92 1057.79 611.51 988.09 686.65 1138.77 675.20
00021296 00000108 825.33 248.19 429.19 583.93 953.36 489.27 1131.74 474.66 1058.00 609.60 986.63 685.10 1140.11 673.49
00021297 00000109 825.74 245.88 429.01 584.28 952.76 488.98 1130.57 473.53 1057.34 609.16 986.74 683.81 1140.27 671.44
00021298 00000110 823.99 243.39 430.10 582.74 951.00 487.65 1128.60 471.35 1056.34 606.40 987.34 681.92 1139.65 668.82
00021299 00000111 824.92 241.14 428.83 582.63 951.65 486.09 1126.61 470.06 1055.24 603.43 989.46 680.65 1137.26 667.63
00021300 00000112 826.08 242.33 427.68 579.57 950.66 483.49 1125.70 468.18 1053.65 601.65 989.38 678.62 1135.39 666.20
00021301 00000113 829.58 234.29 424.96 585.15 952.51 479.37 1126.37 465.26 1054.20 596.67 992.04 676.78 1133.35 665.21
00021302 00000114 831.15 232.74 425.90 586.16 953.19 474.53 1127.11 460.60 1054.95 590.12 994.05 674.34 1132.91 662.69
00021303 00000115 834.84 226.36 427.04 587.67 954.11 467.14 1131.85 452.48 1058.97 581.29 999.42 672.33 1135.86 659.55
00021304 00000116 837.71 225.48 426.94 587.56 957.04 468.88 1135.76 452.52 1062.69 584.40 1001.87 672.95 1142.10 658.65
00021305 00000117 841.22 224.94 429.44 586.95 961.27 472.01 1142.14 455.28 1068.03 584.23 1005.54 674.28 1150.48 659.39
00021306 00000118 844.27 224.91 431.81 586.87 967.36 473.66 1148.23 457.08 1074.33 585.41 1012.05 674.83 1157.75 659.88
00021307 00000119 851.98 221.74 432.31 592.06 978.33 475.78 1155.04 459.09 1082.48 588.90 1018.60 673.48 1164.14 658.63
00021308 00000120 859.81 223.07 432.66 591.58 987.63 475.13 1163.53 460.90 1089.15 589.35 1023.94 674.89 1167.74 661.95
00021309 00000121 875.39 221.13 429.45 600.68 994.99 476.08 1183.62 463.19 1094.85 596.92 1032.29 673.12 1180.43 664.39
00021310 00000122 889.05 224.26 423.70 596.89 1006.44 471.95 1187.52 465.77 1108.01 593.19 1043.79 678.68 1182.01 673.80
00021311 00000123 893.44 230.92 427.36 594.96 1015.30 472.88 1195.70 465.67 1118.35 594.24 1055.72 683.95 1191.21 678.08
00021312 00000124 899.57 229.58 431.87 602.04 1025.00 478.47 1208.48 467.54 1132.03 596.43 1064.08 689.39 1208.13 679.97
00021313 00000125 904.78 233.11 437.70 601.81 1033.68 480.96 1222.93 471.03 1144.77 597.99 1071.69 690.80 1223.55 681.81
00021314 00000126 904.98 233.18 437.52 601.71 1033.65 480.97 1222.95 471.10 1144.73 598.04 1071.64 690.80 1223.54 681.85
00021315 00000127 903.89 233.57 444.08 617.42 1044.49 486.19 1231.95 477.78 1154.06 607.78 1072.22 696.61 1229.52 689.20
00021316 00000128 911.88 247.45 440.54 612.18 1051.49 495.62 1238.02 484.54 1158.84 624.07 1076.19 704.46 1236.36 695.26
00021317 00000129 916.66 253.53 438.11 608.92 1054.91 505.29 1239.03 492.18 1161.39 631.06 1078.59 709.98 1237.43 699.27
00021318 00000130 929.57 252.16 435.26 609.30 1059.25 506.72 1257.27 500.13 1168.83 631.09 1079.17 712.64 1244.57 709.01
00021319 00000131 936.48 255.58 435.86 601.36 1066.80 510.19 1265.72 501.25 1178.26 635.25 1086.51 712.65 1256.57 706.92
00021320 00000132 938.80 263.31 441.17 595.11 1075.28 509.13 1274.46 500.89 1188.40 635.29 1096.49 711.59 1263.08 706.75
00021321 00000133 940.69 267.75 443.40 593.41 1082.10 508.76 1276.92 500.25 1195.63 639.07 1106.94 712.21 1267.78 707.37
00021322 00000134 943.10 269.65 444.26 596.83 1085.34 509.41 1279.44 501.69 1198.31 642.86 1111.43 716.18 1269.29 712.27
00021323 00000135 947.69 275.61 442.56 593.81 1090.04 514.18 1282.16 506.82 1201.56 646.97 1118.37 721.06 1270.62 717.48
00021324 DELETE   958.19 292.26 435.64 591.05 1103.27 518.57 1286.63 514.15 1214.62 653.58 1132.48 734.35 1268.73 730.01
00021325 DELETE   967.17 295.64 441.60 593.31 1115.67 525.86 1299.17 518.19 1226.09 659.34 1153.06 746.34 1284.03 738.66
00021326 DELETE   975.15 288.40 445.55 615.16 1133.36 539.72 1314.97 530.17 1246.79 672.26 1168.54 763.73 1300.86 754.09
00021327 00000139 996.42 312.98 449.32 604.48 1159.19 557.97 1346.69 555.82 1269.01 694.56 1178.74 776.61 1318.05 776.51
00021328 00000140 998.76 316.00 451.62 603.62 1159.31 559.52 1349.83 556.64 1270.90 696.51 1179.33 778.25 1323.70 777.51
00021329 00000141 996.14 313.58 451.20 601.32 1155.96 560.77 1347.95 557.55 1267.98 695.43 1176.99 776.68 1321.61 775.59
00021330 00000142 993.57 315.24 447.68 593.76 1149.90 562.71 1345.36 558.89 1263.83 694.95 1170.11 774.11 1317.77 772.53
CROP_BBOX: 594 0 1657 1080
