Video ID: 	wRwId2RfmfA
H: 	2160
W: 	3840
FPS: 	24.0

FRAME INDEX X0 Y0 W H [Landmarks (5 Points)]

00013478 00000000 2286.38 206.34 454.20 565.14 2384.77 416.52 2580.66 447.22 2446.85 525.10 2364.47 607.88 2541.38 632.35
00013479 00000001 2293.08 226.26 441.37 567.66 2389.05 439.52 2585.91 468.39 2459.50 557.11 2373.11 629.91 2554.37 653.31
00013480 00000002 2285.03 240.15 452.62 586.98 2390.85 457.59 2584.34 485.98 2463.30 586.47 2370.49 655.42 2552.18 678.39
00013481 DELETE   2284.56 258.27 448.82 585.75 2386.87 476.88 2581.19 503.63 2462.06 612.23 2369.82 675.22 2556.05 696.07
00013482 DELETE   2286.20 271.64 444.34 583.98 2387.05 496.31 2585.25 524.50 2465.44 629.93 2370.13 689.08 2560.58 711.30
00013483 00000005 2287.47 281.22 439.76 581.03 2386.18 504.85 2584.56 531.11 2465.77 640.41 2370.51 696.26 2562.09 717.03
00013484 00000006 2286.45 284.36 437.60 580.47 2384.12 514.02 2584.62 537.43 2465.97 640.64 2370.48 698.97 2563.28 717.76
00013485 00000007 2284.85 279.77 442.27 584.45 2384.68 512.15 2585.81 534.04 2467.33 636.26 2372.79 697.62 2565.52 715.07
00013486 00000008 2283.31 266.69 447.07 587.60 2383.62 503.34 2587.15 522.84 2468.81 622.93 2373.76 688.15 2567.08 703.44
00013487 00000009 2283.14 256.18 450.45 585.47 2386.01 483.94 2587.07 506.95 2468.15 605.88 2368.98 674.09 2563.26 692.56
00013488 00000010 2285.41 244.32 447.95 577.81 2389.12 464.43 2590.97 488.12 2470.54 583.78 2372.40 655.94 2563.98 676.36
00013489 00000011 2291.90 226.95 444.18 572.63 2393.20 446.53 2596.65 471.94 2470.77 557.99 2375.33 635.89 2566.82 657.28
00013490 00000012 2295.15 209.34 451.29 567.02 2398.37 425.94 2597.31 452.74 2466.92 529.06 2382.00 615.71 2562.65 637.40
00013491 00000013 2293.78 189.10 463.53 572.93 2405.10 403.73 2605.12 436.18 2470.36 507.68 2381.26 597.24 2563.77 624.05
00013492 00000014 2305.27 181.54 457.49 566.36 2407.46 390.78 2610.63 422.40 2467.56 485.66 2378.01 579.09 2566.21 609.62
00013493 00000015 2302.04 171.52 461.79 566.36 2407.01 382.05 2614.09 413.70 2469.03 472.51 2376.50 568.70 2567.99 599.35
00013494 00000016 2297.75 167.80 456.86 561.85 2410.34 380.86 2615.58 408.53 2478.09 467.77 2386.34 567.64 2566.71 591.08
00013495 00000017 2294.34 166.06 458.17 564.38 2407.21 381.05 2613.55 408.23 2475.57 466.42 2383.91 568.03 2563.94 591.14
00013496 00000018 2295.62 168.94 461.35 572.65 2398.26 382.74 2605.85 414.09 2461.45 474.44 2369.46 570.76 2562.25 600.59
00013497 00000019 2290.88 180.12 460.28 571.63 2393.17 392.53 2595.64 421.25 2459.17 491.98 2367.41 582.98 2558.04 609.87
00013498 00000020 2285.08 194.74 456.32 568.24 2384.40 408.54 2586.42 432.81 2455.09 512.03 2365.18 599.00 2556.34 621.07
00013499 00000021 2281.77 212.03 448.06 572.46 2377.16 430.05 2580.93 452.78 2450.38 536.29 2366.74 622.97 2548.06 641.47
00013500 DELETE   2276.88 222.64 446.04 584.60 2371.28 446.71 2573.97 465.99 2448.43 560.84 2362.27 643.25 2547.61 659.59
00013501 00000023 2266.97 234.77 453.91 592.91 2364.18 458.17 2570.34 472.75 2446.04 576.91 2352.50 659.56 2550.31 673.92
00013502 DELETE   2261.72 239.84 456.70 590.07 2363.30 465.85 2568.17 481.37 2446.02 587.20 2353.92 667.64 2548.84 681.18
00013503 00000025 2261.43 245.33 453.09 591.12 2360.57 472.94 2566.01 486.45 2445.01 595.47 2352.43 672.56 2551.31 684.12
00013504 00000026 2260.88 245.55 453.62 593.34 2361.20 474.01 2566.74 486.95 2446.30 596.19 2354.67 672.83 2553.11 683.63
00013505 00000027 2262.90 243.84 454.47 590.80 2362.02 469.34 2568.31 483.98 2445.75 593.56 2354.69 669.49 2552.83 681.95
00013506 00000028 2264.31 239.83 456.88 591.87 2367.73 462.58 2574.93 480.43 2450.33 585.62 2358.14 663.03 2553.28 678.28
00013507 00000029 2269.17 230.51 455.36 595.32 2369.64 452.90 2577.11 471.93 2453.02 575.48 2357.02 654.11 2554.52 671.73
00013508 00000030 2276.66 220.27 452.13 583.36 2377.97 442.30 2583.49 465.16 2457.71 557.96 2366.46 637.93 2554.24 656.92
00013509 00000031 2279.74 209.88 456.65 573.63 2383.06 423.86 2586.49 451.19 2456.40 534.72 2370.01 618.49 2551.08 640.44
00013510 00000032 2279.14 190.91 467.65 573.63 2384.97 404.57 2591.58 432.74 2456.91 512.59 2364.41 598.72 2554.99 623.84
00013511 00000033 2280.60 172.74 474.50 576.80 2389.81 386.71 2597.09 419.39 2457.31 492.34 2365.14 582.47 2552.79 611.98
00013512 00000034 2284.03 162.37 469.05 582.10 2391.36 382.83 2602.41 411.32 2461.20 473.35 2366.39 574.21 2560.17 601.62
00013513 00000035 2287.79 155.85 467.52 579.64 2393.13 378.24 2603.56 405.72 2460.77 467.13 2371.04 569.35 2559.58 595.69
00013514 00000036 2290.09 155.82 467.13 578.88 2393.68 378.51 2603.60 405.35 2460.14 467.02 2372.47 569.52 2559.95 595.33
00013515 00000037 2287.21 158.83 464.95 582.26 2390.26 381.17 2600.06 407.19 2459.11 470.51 2369.11 572.92 2558.95 598.05
00013516 00000038 2284.68 169.49 470.91 578.89 2388.61 385.38 2597.39 416.28 2455.51 487.48 2364.47 581.93 2555.45 610.16
00013517 00000039 2279.31 184.81 468.27 577.57 2381.83 402.20 2588.41 429.02 2452.88 508.92 2363.44 598.80 2552.48 622.50
00013518 00000040 2280.20 204.94 455.01 578.55 2377.47 424.19 2580.02 449.37 2448.20 534.79 2367.77 621.73 2544.00 641.92
00013519 00000041 2267.60 217.21 461.03 597.88 2367.34 442.78 2572.84 464.28 2444.73 561.63 2350.53 646.57 2547.66 666.15
00013520 00000042 2262.52 235.01 457.98 597.89 2361.04 459.39 2566.85 476.51 2439.76 581.98 2347.92 662.94 2543.00 679.12
00013521 00000043 2255.74 242.17 460.99 595.67 2352.14 471.26 2556.40 486.03 2432.77 596.06 2342.99 674.92 2540.72 687.71
00013522 00000044 2254.09 247.29 461.30 604.41 2348.96 484.08 2552.10 496.71 2430.28 608.45 2343.71 684.95 2539.66 695.67
00013523 00000045 2255.06 249.93 460.46 607.76 2350.39 486.97 2551.03 501.59 2429.03 614.17 2346.38 686.73 2539.30 698.51
00013524 00000046 2252.63 249.40 463.45 609.49 2350.02 488.21 2553.12 501.47 2431.81 613.93 2346.95 689.46 2540.29 700.42
00013525 00000047 2253.64 247.18 465.26 603.09 2351.47 482.73 2556.00 496.14 2433.83 606.76 2346.88 682.82 2542.25 694.25
00013526 00000048 2255.43 241.92 464.54 595.74 2356.34 469.50 2561.14 488.06 2436.33 594.65 2343.11 669.88 2542.72 685.79
00013527 00000049 2261.19 234.27 463.27 597.87 2361.71 464.65 2570.59 482.30 2442.09 579.73 2348.37 663.12 2542.10 680.47
00013528 00000050 2266.75 217.22 463.63 594.50 2365.55 445.14 2576.06 468.78 2444.03 562.23 2349.92 646.65 2545.05 667.85
00013529 00000051 2275.93 209.42 461.69 577.13 2375.76 428.70 2582.31 454.11 2449.61 537.18 2363.90 622.32 2547.52 643.00
00013530 00000052 2281.12 190.82 471.98 576.28 2381.63 406.71 2591.69 437.03 2452.39 516.65 2360.18 603.13 2553.78 629.78
00013531 00000053 2283.93 173.98 474.95 578.91 2388.80 388.21 2597.47 421.67 2455.65 497.15 2363.84 587.16 2553.24 617.14
00013532 00000054 2287.29 160.98 471.22 585.89 2390.58 383.80 2603.72 413.57 2460.54 478.81 2366.38 578.19 2560.88 606.71
00013533 00000055 2288.49 158.86 467.31 574.43 2399.06 378.47 2610.46 406.65 2464.76 470.11 2373.24 566.74 2559.97 591.23
00013534 00000056 2291.53 151.21 470.33 587.88 2394.54 377.12 2607.91 406.81 2462.07 470.07 2370.95 568.91 2564.69 597.66
00013535 00000057 2289.42 153.58 468.23 588.93 2392.66 379.19 2604.83 408.18 2461.29 471.23 2369.70 571.80 2562.88 599.72
00013536 00000058 2286.26 160.98 468.61 589.57 2389.70 383.84 2600.76 415.64 2459.17 483.06 2365.09 579.23 2559.03 609.18
00013537 00000059 2282.20 173.48 471.56 584.43 2385.45 392.02 2594.05 422.39 2454.65 499.65 2363.51 590.59 2554.26 617.80
00013538 00000060 2277.65 188.31 468.96 578.95 2378.81 404.95 2587.96 433.12 2451.49 516.58 2357.16 603.83 2554.67 628.79
00013539 00000061 2275.16 203.93 458.43 583.34 2373.26 421.96 2579.82 449.36 2447.39 535.86 2361.06 621.04 2544.36 643.42
00013540 00000062 2268.65 211.47 460.91 592.72 2367.06 433.59 2573.69 458.50 2444.14 554.57 2349.03 638.68 2545.90 660.49
00013541 00000063 2268.02 220.84 453.41 595.07 2359.81 446.82 2564.62 469.93 2436.05 571.06 2348.43 647.97 2535.25 667.67
00013542 00000064 2257.66 225.81 461.18 604.22 2355.95 452.00 2563.35 469.92 2435.81 576.17 2341.77 660.21 2538.11 676.62
00013543 00000065 2254.59 228.93 460.81 605.37 2351.56 455.71 2559.78 472.34 2430.89 580.28 2338.20 661.87 2536.87 676.83
00013544 00000066 2253.78 229.00 460.26 604.42 2351.34 456.88 2558.87 472.99 2431.99 581.40 2338.82 663.44 2535.15 678.12
00013545 00000067 2251.04 226.03 464.31 605.67 2351.05 452.78 2559.52 469.70 2431.88 578.45 2339.88 661.45 2533.69 676.57
00013546 00000068 2250.48 220.31 467.89 606.87 2352.47 445.35 2561.42 464.85 2432.89 573.47 2339.83 656.69 2534.00 673.64
00013547 00000069 2254.99 213.62 467.36 601.80 2356.26 437.69 2564.15 458.63 2435.56 562.70 2342.35 648.53 2536.57 666.63
00013548 00000070 2258.43 205.75 468.09 595.15 2362.70 428.86 2567.76 451.58 2440.19 549.75 2348.14 636.09 2539.21 655.65
00013549 00000071 2259.68 200.73 473.55 586.71 2365.13 415.96 2571.79 443.09 2440.17 536.78 2349.43 623.85 2537.72 647.16
00013550 00000072 2262.35 192.33 474.75 581.84 2368.97 403.92 2575.88 435.19 2440.92 523.88 2349.31 610.13 2537.97 636.86
00013551 00000073 2264.47 185.77 473.73 578.51 2371.03 397.35 2580.36 429.50 2441.98 514.73 2348.37 601.09 2540.95 628.76
00013552 00000074 2265.33 182.72 473.76 580.00 2373.93 393.45 2583.42 427.71 2443.94 512.20 2350.49 597.69 2540.98 626.87
00013553 00000075 2266.77 181.26 472.62 579.81 2375.39 392.21 2584.39 427.14 2445.23 511.61 2351.36 595.90 2541.56 625.64
00013554 00000076 2267.73 181.88 471.88 580.25 2375.48 392.36 2583.61 427.06 2444.91 511.66 2351.87 596.85 2540.90 626.37
00013555 00000077 2268.09 186.17 472.08 580.44 2373.55 398.44 2581.20 431.53 2443.08 517.23 2350.53 602.01 2542.29 630.30
00013556 00000078 2269.44 194.01 468.80 584.61 2373.05 407.52 2578.97 439.81 2443.26 527.87 2354.06 612.33 2540.22 639.57
00013557 00000079 2267.58 200.89 466.16 595.76 2369.87 420.52 2577.17 449.21 2443.91 542.94 2354.01 628.83 2542.77 653.04
00013558 00000080 2262.29 210.54 464.32 605.69 2366.21 434.79 2571.58 462.79 2441.79 563.58 2346.05 643.17 2541.40 667.33
00013559 00000081 2255.44 222.10 467.22 606.74 2360.40 450.47 2568.03 472.54 2439.89 577.28 2345.20 658.49 2537.09 678.22
00013560 00000082 2252.52 232.49 461.47 609.37 2352.20 469.19 2560.75 485.50 2435.04 592.35 2338.57 669.75 2537.95 684.76
00013561 00000083 2245.07 235.06 464.70 609.02 2345.54 480.94 2550.17 494.02 2428.29 601.45 2338.58 679.40 2537.21 691.00
00013562 00000084 2243.32 237.66 463.90 610.87 2342.63 483.12 2547.42 496.79 2424.37 605.65 2336.28 682.43 2535.43 694.25
00013563 00000085 2242.31 238.86 465.81 609.14 2343.54 480.76 2548.11 495.19 2425.44 605.93 2337.20 681.83 2535.54 694.05
00013564 00000086 2242.82 235.92 466.17 608.57 2344.67 476.34 2549.49 492.70 2426.19 604.22 2336.08 679.70 2535.24 693.58
00013565 00000087 2245.60 236.93 468.62 610.09 2349.42 471.12 2558.64 489.62 2431.73 601.48 2335.61 672.75 2537.74 688.87
00013566 00000088 2247.22 230.49 470.09 610.18 2355.27 459.55 2565.23 480.82 2436.92 587.45 2336.65 665.27 2537.63 684.49
00013567 00000089 2251.51 221.38 472.94 608.28 2358.92 446.48 2569.59 470.64 2438.78 575.51 2343.56 657.25 2534.81 678.40
00013568 00000090 2255.65 209.88 475.00 607.72 2364.98 433.61 2574.50 463.91 2442.57 563.00 2343.53 643.49 2539.53 669.66
00013569 00000091 2260.36 198.54 476.93 604.05 2367.51 422.53 2579.01 451.02 2444.01 544.54 2349.08 630.48 2545.69 655.04
00013570 00000092 2263.24 192.92 480.33 589.54 2370.54 408.43 2584.48 439.34 2445.81 529.26 2351.84 616.91 2547.02 643.50
00013571 DELETE   2268.71 184.81 477.63 586.07 2373.91 400.09 2586.89 431.62 2445.82 517.35 2350.63 604.71 2548.42 632.15
00013572 DELETE   2270.36 178.83 478.53 584.96 2378.39 392.00 2590.40 425.80 2449.22 509.81 2353.73 596.82 2548.74 626.16
00013573 DELETE   2270.30 174.42 478.07 588.03 2378.12 389.87 2591.00 423.24 2448.66 506.45 2354.77 595.81 2547.85 624.78
00013574 00000096 2270.45 175.48 477.64 586.75 2378.39 389.45 2591.06 423.65 2449.02 506.70 2353.87 594.93 2548.57 624.65
00013575 00000097 2267.48 178.20 477.09 586.84 2374.07 394.69 2586.49 428.02 2446.09 512.54 2351.02 600.11 2543.58 628.84
00013576 00000098 2266.16 185.99 476.54 587.80 2370.25 400.46 2583.15 432.33 2442.76 518.81 2347.23 607.26 2544.56 634.87
00013577 00000099 2262.29 195.34 474.48 594.83 2367.81 412.56 2578.95 443.56 2442.10 532.87 2347.08 621.98 2540.60 648.71
00013578 00000100 2260.12 205.27 471.31 606.24 2364.66 427.87 2572.86 455.65 2440.42 552.12 2345.31 638.80 2539.60 662.73
00013579 DELETE   2255.48 213.19 472.21 613.77 2360.34 437.99 2570.45 464.93 2438.44 567.33 2341.15 652.48 2536.30 675.73
00013580 00000102 2248.12 222.65 473.03 615.99 2353.65 451.00 2565.30 470.76 2435.24 577.70 2337.99 663.91 2536.40 681.83
00013581 00000103 2246.69 232.27 468.38 613.91 2347.46 462.33 2559.86 479.27 2429.90 592.01 2333.47 672.23 2534.96 688.01
00013582 DELETE   2242.26 233.57 469.38 605.03 2343.72 466.29 2553.68 483.51 2426.07 595.07 2333.28 675.15 2534.71 689.79
00013583 DELETE   2241.93 237.37 470.90 605.51 2342.62 469.55 2552.86 486.89 2425.64 598.62 2333.54 679.24 2534.83 693.93
00013584 DELETE   2242.43 237.18 470.15 605.65 2342.82 471.75 2552.70 487.77 2426.47 598.95 2334.18 680.89 2535.19 694.68
00013585 00000107 2243.54 236.27 470.72 603.05 2345.01 467.51 2555.26 484.72 2428.05 595.46 2334.80 677.31 2536.21 692.11
00013586 00000108 2246.26 233.24 470.35 610.84 2350.60 462.31 2563.52 478.99 2434.15 587.43 2335.97 671.83 2538.19 687.66
00013587 DELETE   2249.56 223.68 473.19 611.42 2357.28 449.39 2570.65 470.97 2439.59 573.99 2340.58 661.75 2538.71 681.29
00013588 DELETE   2253.02 209.18 476.34 608.38 2360.99 434.30 2574.05 460.99 2439.82 556.30 2340.87 646.31 2537.61 669.59
00013589 00000111 2258.53 197.70 477.68 592.73 2367.38 415.20 2577.79 446.15 2441.85 532.73 2348.46 622.07 2536.13 648.68
00013590 DELETE   2262.26 182.83 478.91 584.38 2368.13 399.81 2582.32 431.75 2441.00 514.33 2345.78 603.60 2539.67 631.38
00013591 DELETE   2264.39 175.92 481.67 584.60 2374.42 388.77 2586.60 423.91 2443.87 501.57 2351.23 592.01 2538.64 622.09
00013592 00000114 2266.55 167.31 483.86 589.59 2377.27 382.50 2592.32 419.98 2445.82 494.92 2351.39 585.35 2542.56 617.65
00013593 00000115 2265.41 166.72 480.03 598.42 2377.71 388.79 2592.59 423.15 2450.92 496.06 2353.18 591.94 2541.00 623.23
00013594 00000116 2266.83 169.96 483.39 591.38 2376.67 386.04 2591.29 422.10 2446.49 499.40 2351.91 590.27 2543.69 621.41
00013595 00000117 2265.82 178.82 481.33 587.11 2372.89 395.54 2584.39 428.37 2442.35 509.05 2351.03 599.58 2540.45 627.97
00013596 00000118 2262.37 190.27 480.63 591.11 2367.66 409.30 2579.60 437.46 2441.53 522.12 2350.29 616.47 2539.70 641.25
00013597 00000119 2260.17 205.43 473.32 606.22 2365.29 428.41 2574.58 454.39 2440.26 546.58 2347.71 640.73 2538.57 663.46
00013598 00000120 2251.75 218.80 476.27 616.96 2356.99 448.77 2571.39 470.41 2436.65 569.34 2340.76 662.23 2537.06 681.96
00013599 00000121 2245.11 234.34 473.43 607.86 2343.21 468.69 2556.74 482.97 2426.60 593.66 2336.79 680.35 2535.35 693.18
00013600 00000122 2238.23 248.73 473.06 621.25 2337.41 492.09 2549.26 501.79 2424.94 613.45 2338.73 703.57 2532.57 712.06
00013601 00000123 2235.19 256.00 473.67 627.82 2331.52 508.87 2545.97 520.22 2421.18 637.76 2335.79 721.08 2523.14 730.11
00013602 00000124 2229.30 265.61 476.96 630.15 2329.42 521.59 2544.32 531.24 2419.85 653.63 2338.18 734.27 2518.33 741.94
00013603 00000125 2231.15 268.81 475.28 632.37 2329.13 523.71 2544.03 533.50 2418.26 656.31 2338.16 737.95 2517.23 745.72
00013604 00000126 2232.43 266.72 474.06 632.17 2329.14 522.35 2544.43 532.22 2418.06 655.31 2338.91 735.97 2517.97 743.65
00013605 00000127 2232.46 253.66 476.82 635.37 2328.99 515.72 2546.44 526.32 2420.03 644.81 2337.82 728.70 2518.59 737.28
00013606 00000128 2233.08 247.68 479.77 630.01 2331.61 501.69 2547.96 513.54 2421.38 628.49 2336.70 713.78 2522.76 723.44
00013607 00000129 2238.33 246.85 479.65 624.34 2340.31 488.89 2551.88 500.49 2427.06 611.67 2343.39 699.88 2532.74 709.81
00013608 00000130 2242.09 238.79 485.88 613.93 2346.36 473.08 2560.52 490.54 2430.46 596.73 2343.09 683.01 2534.48 698.18
CROP_BBOX: 1189 0 3051 1684
