Video ID: 	4rq2IF9GpkM
H: 	1080
W: 	1920
FPS: 	29.97002997002997

FRAME INDEX X0 Y0 W H [Landmarks (5 Points)]

00000489 00000000 998.47 105.62 408.69 566.07 1070.05 324.20 1246.88 329.84 1112.17 408.95 1068.23 519.59 1224.52 523.94
00000490 00000001 995.48 104.82 409.60 567.89 1068.26 320.08 1245.00 326.17 1111.99 409.06 1067.18 518.88 1222.68 523.59
00000491 00000002 994.33 102.77 408.96 574.56 1067.05 316.79 1242.61 322.42 1111.24 409.19 1067.97 518.42 1225.36 522.47
00000492 00000003 995.29 102.25 407.88 573.83 1067.47 314.49 1240.99 320.92 1109.84 408.77 1067.62 517.09 1222.63 521.89
00000493 00000004 995.68 101.01 406.96 571.86 1066.28 312.07 1239.98 318.85 1108.27 406.51 1065.72 515.83 1219.51 521.12
00000494 00000005 995.43 100.27 409.08 568.62 1065.63 310.02 1238.80 317.51 1106.96 403.39 1064.55 512.93 1215.39 519.17
00000495 00000006 995.38 99.11 410.36 562.56 1061.61 308.70 1235.15 314.47 1102.97 399.84 1061.40 512.58 1206.24 518.09
00000496 00000007 996.28 98.31 409.36 557.66 1059.59 307.41 1233.65 312.33 1101.33 398.15 1061.04 509.81 1205.45 514.71
00000497 00000008 996.63 97.79 408.85 556.71 1059.19 307.42 1233.32 312.46 1100.60 398.41 1060.55 509.96 1204.65 515.02
00000498 DELETE   997.00 99.35 407.62 560.60 1061.23 309.59 1233.04 314.14 1100.64 400.62 1060.30 515.16 1198.40 520.15
00000499 00000010 996.18 101.39 407.87 565.12 1063.01 309.08 1234.07 315.71 1101.38 401.56 1060.89 513.96 1206.42 519.96
00000500 00000011 997.44 102.79 406.15 563.50 1063.88 310.27 1234.09 316.43 1101.40 402.50 1061.92 512.06 1211.65 517.19
00000501 00000012 996.04 104.57 405.27 558.19 1062.70 312.71 1233.78 319.31 1100.71 403.65 1060.34 512.51 1209.35 518.22
00000502 00000013 994.37 107.08 405.70 553.79 1061.55 314.92 1234.67 321.99 1101.01 405.27 1059.35 512.74 1208.30 518.87
00000503 00000014 994.56 107.75 405.15 555.50 1061.66 314.44 1235.55 321.57 1101.33 407.58 1059.21 514.81 1208.37 520.92
00000504 00000015 995.01 107.40 405.63 558.64 1063.68 310.20 1237.67 319.19 1103.56 407.89 1060.40 513.86 1209.45 521.44
00000505 00000016 994.94 108.44 405.68 557.98 1063.54 311.73 1238.29 320.67 1103.63 408.36 1061.11 515.54 1209.84 522.92
00000506 00000017 994.96 108.47 406.27 558.11 1063.49 313.19 1238.15 322.54 1103.55 409.74 1060.08 516.98 1203.82 525.06
00000507 00000018 995.17 109.01 405.79 556.08 1064.01 311.88 1239.76 323.10 1105.14 412.08 1059.29 518.52 1198.72 528.35
00000508 00000019 994.13 110.01 406.42 556.30 1064.04 312.91 1240.41 323.20 1106.66 414.39 1061.39 521.84 1195.81 531.18
00000509 00000020 992.61 108.81 408.79 563.52 1064.59 314.40 1241.48 323.83 1108.34 416.04 1063.45 526.17 1195.21 535.01
00000510 00000021 992.05 109.96 410.32 563.71 1065.04 314.62 1242.40 323.70 1109.20 416.09 1064.13 527.43 1194.90 536.07
00000511 00000022 994.06 108.34 409.01 562.34 1067.05 313.29 1243.42 322.94 1110.82 414.47 1066.00 524.54 1196.20 533.72
00000512 00000023 997.35 107.17 407.44 559.72 1068.76 312.15 1243.82 322.60 1111.19 412.62 1065.77 521.28 1197.02 531.07
00000513 00000024 998.29 106.52 407.73 559.39 1069.88 310.67 1246.20 322.97 1111.91 411.06 1063.88 518.30 1198.91 529.49
00000514 00000025 998.47 105.56 408.05 558.88 1069.86 309.43 1246.72 322.04 1112.09 410.05 1063.11 516.30 1199.66 527.71
00000515 00000026 998.96 104.49 407.58 560.16 1070.04 309.04 1246.56 321.10 1111.96 409.22 1063.86 516.38 1199.47 527.48
00000516 00000027 1000.43 102.33 405.60 562.08 1070.50 308.68 1249.45 319.40 1114.82 406.84 1063.58 516.24 1202.08 526.41
00000517 00000028 1001.46 100.95 404.03 559.26 1070.92 307.04 1249.50 317.65 1115.57 403.91 1064.14 513.73 1201.28 523.97
00000518 00000029 1001.83 100.92 405.57 556.40 1074.14 304.59 1250.45 313.99 1120.25 400.30 1069.33 508.32 1204.60 517.78
00000519 00000030 1002.74 100.56 405.26 553.89 1074.56 303.93 1252.00 312.11 1121.30 396.01 1069.96 506.33 1205.93 515.00
00000520 00000031 1003.13 99.12 405.59 555.56 1075.26 303.45 1252.29 310.84 1121.21 392.39 1069.44 505.53 1205.94 513.64
00000521 00000032 1000.50 99.30 408.04 554.25 1074.57 303.38 1252.37 308.94 1123.14 388.37 1069.21 504.96 1204.53 511.74
00000522 00000033 1001.03 99.11 408.65 553.36 1074.71 300.97 1253.03 308.26 1122.60 385.74 1068.00 501.84 1206.15 510.02
00000523 00000034 1003.04 97.85 408.09 555.46 1075.78 300.22 1256.16 308.43 1123.14 384.83 1068.21 500.96 1211.43 509.67
00000524 00000035 1003.57 98.71 408.73 559.47 1077.14 300.32 1258.28 309.00 1123.77 384.82 1068.09 500.96 1214.61 510.02
00000525 00000036 1005.16 98.29 410.51 562.15 1079.32 300.61 1261.47 309.65 1124.57 384.97 1069.64 501.26 1219.49 510.41
00000526 00000037 1005.58 99.07 409.93 561.26 1080.59 300.02 1264.08 309.16 1127.91 384.08 1071.79 500.50 1223.02 509.75
00000527 00000038 1006.11 100.16 410.19 560.61 1081.34 300.57 1265.15 308.82 1129.38 384.70 1073.39 500.99 1225.33 509.56
00000528 00000039 1006.71 101.43 410.48 558.68 1082.90 300.47 1267.33 307.90 1132.27 384.63 1075.63 501.62 1228.29 509.41
00000529 00000040 1008.00 100.98 407.38 558.94 1084.70 301.66 1269.36 308.71 1135.75 384.53 1078.95 502.56 1231.82 509.92
00000530 00000041 1009.69 100.70 405.21 557.36 1086.49 302.56 1270.67 309.29 1137.86 385.51 1080.78 502.54 1234.62 509.45
00000531 00000042 1009.73 99.95 405.06 556.54 1086.61 302.71 1271.45 309.14 1141.01 387.78 1083.40 503.90 1235.29 510.57
00000532 00000043 1012.14 100.63 402.59 555.13 1088.15 303.38 1270.81 311.79 1142.35 392.01 1084.72 504.22 1231.83 512.72
00000533 00000044 1010.76 101.87 403.61 557.97 1086.76 307.21 1269.75 315.31 1141.76 397.85 1085.24 510.80 1229.38 519.14
00000534 00000045 1011.07 103.67 404.17 560.95 1086.16 312.79 1269.49 318.64 1142.11 405.35 1087.17 515.90 1233.75 522.15
00000535 00000046 1007.32 105.05 407.02 563.12 1085.45 317.74 1271.83 326.36 1143.09 412.26 1084.12 517.59 1238.68 525.27
00000536 00000047 1006.89 108.20 407.11 560.42 1085.00 320.82 1272.64 329.45 1142.71 414.42 1082.63 517.85 1241.20 525.35
00000537 00000048 1005.71 109.51 409.43 558.63 1084.02 318.07 1273.35 327.66 1141.84 411.67 1080.37 517.62 1237.04 526.04
00000538 00000049 1005.24 106.01 406.58 556.82 1083.15 313.58 1270.66 322.81 1140.14 402.52 1079.77 513.47 1231.75 522.24
00000539 00000050 1005.52 105.04 406.58 551.92 1082.24 308.67 1268.18 317.36 1138.26 395.98 1077.16 507.09 1229.22 515.56
00000540 00000051 1006.71 103.34 400.89 549.33 1081.88 306.75 1267.21 315.13 1138.56 393.33 1077.20 504.76 1229.57 513.10
00000541 00000052 1006.90 103.48 401.15 551.23 1080.89 306.91 1262.90 314.04 1137.08 394.64 1078.65 502.93 1225.70 510.23
00000542 00000053 1005.48 104.23 406.24 557.68 1079.43 310.21 1261.64 314.23 1136.30 401.30 1082.32 510.88 1228.40 515.34
00000543 00000054 1004.43 105.86 408.19 565.25 1080.32 318.23 1262.31 317.60 1138.03 408.97 1089.59 526.14 1228.65 526.98
00000544 00000055 1008.65 110.96 404.75 565.63 1084.07 325.26 1263.06 324.94 1138.71 417.44 1092.06 532.85 1231.08 533.93
00000545 00000056 1012.22 123.16 400.12 556.23 1080.67 334.02 1260.41 332.53 1133.94 428.58 1092.82 528.68 1240.72 527.27
00000546 00000057 1013.78 125.50 400.14 554.38 1082.22 335.75 1262.01 335.45 1134.75 430.24 1092.52 528.18 1243.19 527.70
00000547 00000058 1015.35 126.10 400.85 553.83 1083.98 335.93 1264.82 334.50 1136.44 430.03 1094.12 530.75 1243.14 529.49
00000548 00000059 1017.79 125.88 398.71 550.90 1084.47 335.36 1265.69 335.17 1134.20 429.63 1089.85 527.29 1243.65 527.18
00000549 00000060 1019.70 125.37 397.44 548.01 1084.50 334.16 1264.79 331.78 1132.70 427.33 1089.69 525.60 1243.90 523.88
00000550 00000061 1020.42 125.64 396.31 545.11 1083.06 333.77 1261.92 328.11 1130.72 424.83 1090.61 525.33 1243.07 521.01
00000551 DELETE   1020.27 116.56 403.32 552.28 1085.02 327.74 1264.25 326.93 1135.15 417.57 1091.04 523.24 1245.34 523.34
00000552 00000063 1020.88 113.31 402.78 555.68 1084.03 326.01 1262.61 321.33 1134.26 415.09 1092.84 525.29 1244.18 522.44
00000553 00000064 1018.98 113.62 404.37 556.41 1084.37 325.99 1260.22 317.79 1134.26 413.10 1096.69 529.45 1236.48 524.38
00000554 00000065 1017.82 116.48 404.37 552.16 1083.46 332.94 1255.66 323.55 1129.90 413.64 1095.58 531.11 1231.86 525.18
00000555 DELETE   1016.57 119.16 404.21 547.17 1084.76 342.03 1251.48 332.44 1132.14 412.42 1097.60 525.86 1233.53 519.71
00000556 DELETE   1015.21 119.07 407.05 547.31 1082.90 340.18 1250.49 329.19 1129.53 410.13 1095.29 525.67 1230.71 518.23
00000557 DELETE   1018.20 116.54 403.40 548.81 1081.65 334.11 1250.89 321.88 1126.88 408.30 1093.54 525.42 1230.61 517.06
00000558 00000069 1018.78 114.62 402.98 552.08 1082.44 329.83 1249.96 318.81 1125.82 408.44 1095.31 526.94 1227.71 519.80
00000559 00000070 1020.19 112.92 402.48 558.38 1083.52 328.62 1251.20 319.06 1125.54 410.67 1096.82 529.77 1227.29 524.01
00000560 00000071 1021.32 113.41 401.38 562.46 1084.27 331.56 1251.64 324.08 1126.43 417.08 1096.81 533.67 1230.18 529.10
00000561 00000072 1021.52 114.02 402.74 564.96 1080.74 335.68 1252.07 329.13 1122.80 421.70 1094.22 533.10 1240.95 528.05
00000562 00000073 1021.46 116.21 403.79 562.16 1079.88 337.41 1251.54 332.60 1120.66 426.08 1093.59 531.56 1243.02 527.52
00000563 00000074 1022.61 123.31 401.66 567.04 1080.28 348.10 1254.44 338.05 1122.20 434.87 1093.74 541.38 1243.82 532.90
00000564 00000075 1028.08 125.73 398.16 566.74 1083.54 344.13 1255.39 337.93 1120.57 435.87 1095.32 545.79 1232.61 541.30
00000565 00000076 1027.78 126.83 400.62 565.29 1083.69 345.29 1257.96 341.19 1122.22 438.26 1093.35 545.13 1236.35 542.18
00000566 00000077 1028.11 125.39 398.71 561.30 1085.19 344.34 1255.28 342.57 1123.14 439.99 1094.08 544.77 1228.85 544.21
00000567 00000078 1028.05 124.97 398.04 559.83 1084.47 344.23 1254.73 345.69 1122.42 444.40 1091.58 543.97 1227.48 546.31
00000568 00000079 1027.57 123.77 398.09 567.45 1091.16 337.98 1266.55 347.88 1122.88 439.68 1094.62 542.35 1224.38 550.82
00000569 00000080 1030.88 123.43 397.77 566.60 1092.80 336.28 1269.92 351.27 1125.04 444.53 1093.06 539.83 1227.70 552.29
00000570 00000081 1036.41 121.18 394.46 564.11 1095.47 337.99 1265.37 351.81 1135.58 450.56 1100.02 536.61 1235.02 547.50
00000571 00000082 1037.23 121.77 394.50 569.50 1101.01 338.68 1271.33 354.63 1141.87 452.16 1103.00 538.06 1239.40 550.97
00000572 00000083 1042.65 126.46 396.37 569.30 1108.35 339.57 1278.54 358.38 1148.48 455.27 1107.15 539.91 1244.56 555.08
00000573 00000084 1045.41 131.06 400.61 566.19 1114.16 337.39 1285.95 359.12 1153.95 455.86 1108.51 538.77 1248.43 556.38
00000574 00000085 1048.20 128.83 405.44 565.64 1118.67 336.74 1290.98 357.77 1158.40 455.39 1112.55 537.96 1251.94 554.95
00000575 00000086 1050.25 128.96 409.82 565.27 1121.64 335.47 1296.23 357.02 1161.21 456.17 1115.55 537.69 1258.02 554.82
00000576 00000087 1052.32 128.72 409.57 566.25 1124.07 335.82 1298.93 358.51 1162.03 457.16 1116.47 536.65 1262.53 554.41
00000577 00000088 1055.93 129.13 409.69 566.68 1126.99 338.35 1299.82 361.27 1161.51 458.90 1119.30 539.04 1264.30 556.88
00000578 00000089 1057.26 127.81 409.09 567.73 1128.38 338.74 1300.53 360.91 1163.02 458.97 1120.48 539.98 1264.75 557.33
00000579 00000090 1058.72 125.27 411.54 569.57 1130.40 337.64 1302.04 360.35 1163.83 458.62 1121.29 539.72 1265.69 557.30
00000580 00000091 1059.48 127.08 416.84 571.11 1133.61 339.01 1305.37 361.76 1166.02 458.39 1124.12 540.30 1269.77 557.77
00000581 00000092 1062.49 126.30 417.63 580.07 1137.87 340.78 1308.97 364.13 1169.70 458.94 1126.77 541.52 1275.83 559.38
00000582 00000093 1075.77 127.99 412.12 579.17 1140.95 339.77 1314.99 366.15 1173.47 453.81 1130.29 538.74 1281.92 560.23
00000583 00000094 1076.87 125.79 410.98 582.27 1142.03 338.69 1317.21 365.32 1175.56 453.85 1131.02 538.79 1284.24 560.50
00000584 00000095 1079.06 123.22 412.95 585.03 1142.31 336.80 1319.99 363.30 1175.35 453.35 1132.16 538.68 1286.11 560.23
00000585 00000096 1079.76 120.01 414.83 584.03 1142.22 335.21 1321.36 363.44 1174.63 453.70 1131.79 537.42 1285.22 560.48
00000586 00000097 1080.18 116.92 414.18 581.77 1142.83 334.29 1322.53 362.73 1175.93 451.99 1133.21 536.30 1285.06 559.69
00000587 00000098 1074.01 114.62 421.21 581.82 1150.15 333.07 1326.31 358.58 1182.08 451.70 1135.67 535.89 1285.90 555.71
00000588 00000099 1074.20 112.37 421.74 580.52 1153.54 330.51 1330.35 357.68 1187.79 451.59 1138.29 533.86 1287.86 555.26
00000589 00000100 1075.39 112.95 421.21 580.49 1155.77 329.05 1334.91 356.92 1191.72 451.52 1139.61 533.62 1293.10 555.65
00000590 00000101 1077.08 112.96 422.14 578.09 1158.22 328.83 1338.96 358.47 1195.54 451.65 1142.45 532.37 1297.09 555.99
00000591 00000102 1078.53 109.61 423.67 578.92 1161.03 328.49 1342.81 358.81 1200.37 453.07 1145.86 530.12 1302.99 554.21
00000592 00000103 1081.37 109.13 421.23 577.06 1163.51 329.46 1345.21 359.69 1204.28 453.47 1149.30 528.65 1308.28 552.76
00000593 00000104 1083.85 107.64 420.32 576.21 1165.82 329.36 1347.25 359.15 1207.27 453.41 1152.41 528.91 1309.61 552.75
00000594 00000105 1090.33 98.96 418.11 593.59 1167.69 325.71 1354.01 355.58 1208.57 451.22 1156.09 532.52 1307.29 557.48
00000595 00000106 1092.94 98.58 418.19 594.19 1169.95 324.07 1356.66 354.70 1210.68 451.75 1156.58 532.95 1308.14 558.69
00000596 00000107 1094.06 98.16 418.47 594.46 1171.53 324.68 1359.11 354.99 1212.46 450.94 1158.05 534.03 1309.18 559.61
00000597 00000108 1094.89 96.52 417.82 595.36 1173.13 324.00 1360.84 354.46 1214.26 450.36 1159.73 534.75 1308.90 560.53
00000598 00000109 1094.84 96.87 418.43 593.08 1173.62 323.39 1362.93 353.95 1216.39 449.84 1160.37 533.81 1311.24 559.61
00000599 00000110 1094.68 94.58 417.69 595.38 1174.19 322.83 1363.05 353.64 1216.88 449.42 1160.72 532.43 1312.00 558.40
00000600 00000111 1094.77 95.35 416.29 593.96 1173.66 322.55 1362.55 352.91 1215.94 448.42 1160.82 532.26 1311.98 557.83
00000601 00000112 1094.59 93.44 416.71 596.93 1173.35 323.31 1360.97 352.36 1215.02 447.29 1161.86 532.87 1310.45 557.32
00000602 00000113 1095.67 93.66 415.71 595.85 1173.44 323.51 1360.14 352.11 1214.86 447.55 1162.90 533.98 1308.87 558.06
00000603 00000114 1096.39 95.71 415.15 596.43 1174.06 324.01 1359.04 352.00 1214.25 447.80 1164.53 535.98 1305.38 559.69
00000604 00000115 1097.97 98.94 411.40 586.59 1173.73 323.65 1355.15 347.79 1223.75 448.25 1168.19 532.47 1302.43 553.14
00000605 00000116 1098.53 98.90 411.97 588.45 1174.95 324.12 1355.78 348.39 1223.76 447.78 1167.53 532.37 1301.91 553.25
00000606 00000117 1097.63 98.85 412.34 590.73 1174.71 323.79 1355.42 349.74 1222.74 448.36 1165.52 531.64 1302.39 553.88
00000607 00000118 1096.60 99.21 412.08 589.02 1173.37 323.30 1355.28 350.78 1221.59 448.50 1163.05 529.16 1304.88 552.49
00000608 00000119 1092.16 96.04 419.12 599.62 1172.49 322.62 1360.02 354.26 1212.58 448.22 1156.35 529.71 1308.79 556.41
00000609 00000120 1095.32 100.25 414.56 583.76 1173.45 319.39 1358.73 351.05 1222.08 449.71 1158.31 522.43 1310.08 548.84
00000610 00000121 1096.39 102.73 414.39 581.04 1175.23 318.56 1359.51 352.15 1222.28 449.69 1158.40 520.85 1310.14 548.85
00000611 00000122 1097.04 103.94 414.63 579.00 1175.72 318.24 1360.50 353.40 1221.93 449.63 1158.07 519.69 1311.32 548.85
00000612 00000123 1097.39 102.35 416.54 579.80 1176.83 316.90 1363.26 353.14 1223.34 448.87 1158.55 517.72 1313.96 547.65
00000613 00000124 1099.99 102.31 415.30 579.05 1179.75 316.83 1365.59 353.31 1225.78 448.42 1160.99 517.23 1313.98 547.40
00000614 00000125 1100.99 100.60 415.65 580.09 1181.92 317.57 1369.28 354.14 1228.54 447.30 1161.84 517.72 1316.55 547.78
00000615 00000126 1100.00 100.69 416.95 580.78 1183.41 318.00 1372.62 354.55 1231.92 446.51 1162.92 517.79 1320.13 547.71
00000616 00000127 1099.54 98.97 419.60 581.80 1185.73 317.64 1376.57 354.34 1237.18 444.17 1165.04 517.09 1325.01 546.88
00000617 00000128 1102.91 98.62 421.43 582.69 1191.47 315.27 1381.91 354.11 1241.10 441.00 1168.06 514.94 1327.14 546.39
00000618 00000129 1106.96 97.41 418.64 584.54 1195.89 313.70 1387.35 354.78 1245.62 440.58 1170.61 514.64 1330.86 547.84
00000619 00000130 1109.56 95.74 417.95 584.64 1199.31 314.04 1389.97 353.11 1249.66 439.08 1175.16 517.30 1330.49 548.89
00000620 00000131 1109.33 95.81 416.65 587.05 1201.39 312.99 1390.74 352.94 1251.39 439.89 1176.96 516.34 1329.91 548.99
00000621 00000132 1112.77 93.22 413.31 592.47 1204.36 311.08 1391.87 351.46 1252.36 439.69 1178.47 517.09 1328.81 550.26
00000622 00000133 1114.37 95.33 413.19 589.18 1206.74 312.86 1392.37 350.08 1255.89 439.22 1184.87 522.01 1325.31 552.91
00000623 00000134 1114.14 94.96 413.11 590.21 1205.69 313.33 1395.74 351.28 1256.33 439.68 1180.87 524.60 1329.07 555.73
00000624 00000135 1114.20 94.32 413.53 589.18 1204.55 311.99 1396.42 350.61 1255.49 438.93 1179.86 523.74 1330.71 555.30
00000625 00000136 1114.13 95.16 413.57 588.08 1204.35 311.44 1397.17 350.35 1255.72 438.54 1179.51 522.51 1332.91 554.27
00000626 00000137 1113.50 95.73 414.29 593.47 1204.89 312.14 1397.63 350.66 1255.96 439.55 1179.36 522.65 1335.57 554.06
00000627 00000138 1112.49 97.27 416.11 603.52 1206.41 313.24 1396.92 351.43 1256.30 442.24 1180.66 526.10 1337.70 557.48
00000628 00000139 1110.55 94.78 416.19 608.02 1206.18 312.34 1397.61 351.29 1257.30 441.95 1179.49 525.34 1339.72 557.28
00000629 00000140 1108.74 94.07 418.05 600.26 1204.56 310.51 1397.18 351.48 1257.62 441.77 1177.98 520.56 1336.60 554.01
00000630 00000141 1109.49 94.03 415.70 593.62 1201.34 312.41 1394.56 352.88 1254.67 441.69 1176.37 517.85 1335.79 550.82
00000631 00000142 1109.97 94.79 413.21 590.85 1200.41 313.97 1393.36 351.72 1253.79 440.14 1178.07 519.92 1333.46 550.70
00000632 00000143 1108.41 95.05 415.33 588.73 1199.79 313.01 1391.48 351.95 1251.81 438.94 1175.11 518.97 1327.63 550.90
00000633 00000144 1106.77 95.37 415.36 591.60 1198.09 313.75 1390.91 353.24 1249.97 440.81 1172.00 521.00 1327.33 553.42
00000634 00000145 1104.57 96.39 415.70 592.93 1196.43 317.44 1389.82 355.61 1249.86 443.07 1172.03 524.68 1327.46 555.92
00000635 00000146 1102.62 97.10 418.04 597.81 1194.42 320.02 1388.53 357.15 1249.00 445.99 1171.34 527.40 1327.66 557.88
00000636 00000147 1101.73 96.99 417.21 598.66 1193.28 320.04 1388.22 357.64 1249.42 449.18 1171.85 528.19 1328.73 558.96
00000637 00000148 1101.31 98.04 414.37 597.19 1191.06 321.64 1384.54 359.43 1247.06 451.26 1171.58 527.26 1325.40 558.49
00000638 00000149 1100.15 96.14 413.03 596.82 1189.00 320.07 1383.21 356.87 1245.58 449.36 1170.73 527.51 1323.13 558.04
00000639 00000150 1092.47 94.11 413.74 583.37 1184.70 322.98 1373.34 356.44 1237.54 448.47 1170.92 530.31 1324.38 558.27
00000640 00000151 1091.89 95.64 413.29 582.45 1185.64 323.59 1371.10 357.11 1237.23 448.92 1170.90 533.26 1318.09 561.68
00000641 00000152 1101.85 97.86 406.76 587.62 1187.49 321.55 1374.75 355.20 1241.43 449.26 1169.14 531.16 1305.97 559.80
00000642 00000153 1101.02 98.05 405.19 588.28 1185.19 321.70 1371.66 354.64 1238.67 450.15 1167.34 531.96 1303.46 560.14
00000643 00000154 1099.78 99.24 404.14 584.65 1183.04 322.47 1368.73 355.00 1235.75 450.98 1166.36 532.74 1302.63 560.54
00000644 00000155 1092.54 95.93 409.80 579.90 1180.50 323.52 1361.80 356.67 1226.60 450.25 1165.33 533.00 1311.58 560.81
00000645 00000156 1092.62 94.89 409.71 579.64 1179.09 322.31 1360.25 355.12 1225.02 449.21 1164.60 530.43 1312.91 557.84
00000646 00000157 1092.90 94.72 408.59 579.78 1178.00 321.51 1359.12 353.61 1224.01 447.67 1163.88 529.79 1312.81 556.54
00000647 00000158 1092.58 96.96 405.05 576.65 1177.78 329.40 1355.11 361.19 1222.65 447.72 1164.03 529.55 1309.79 556.14
00000648 00000159 1091.02 102.01 403.70 574.56 1175.92 340.09 1351.91 371.83 1220.66 447.03 1162.70 527.70 1311.71 553.75
00000649 00000160 1089.21 105.97 406.06 574.76 1175.55 340.39 1352.28 374.85 1218.75 446.65 1158.70 524.55 1313.11 552.69
00000650 00000161 1087.54 105.63 405.52 577.89 1174.21 336.67 1352.29 370.89 1218.90 447.98 1156.04 526.86 1311.82 554.92
00000651 00000162 1086.10 103.10 407.63 582.64 1174.72 330.58 1352.03 363.58 1220.10 448.26 1157.58 528.80 1309.49 556.26
