Video ID: 	AyiRO0_Ta7o
H: 	1080
W: 	1920
FPS: 	23.976023976023978

FRAME INDEX X0 Y0 W H [Landmarks (5 Points)]

00025283 00000000 647.06 156.02 469.19 726.29 908.42 465.99 1074.65 450.07 1075.41 600.59 929.00 722.51 1060.14 710.71
00025284 DELETE   648.27 155.91 466.58 716.26 908.87 460.58 1072.22 442.81 1075.34 593.70 930.40 714.37 1059.74 701.17
00025285 DELETE   643.65 155.03 473.35 709.37 913.15 446.40 1078.26 435.29 1081.42 580.64 937.33 703.50 1065.20 693.80
00025286 00000003 646.21 143.51 472.72 715.58 911.39 437.34 1078.32 428.68 1080.63 564.90 941.60 694.50 1072.58 686.52
00025287 00000004 643.80 140.95 472.91 716.57 907.92 426.12 1074.49 416.26 1078.12 557.60 940.26 690.09 1069.93 681.13
00025288 DELETE   639.36 133.76 472.38 716.53 906.70 416.72 1069.17 408.02 1077.37 547.74 941.52 681.32 1066.26 673.43
00025289 00000006 636.14 130.46 469.69 714.81 901.90 409.75 1063.10 401.16 1073.34 537.83 941.01 674.09 1065.26 666.15
00025290 00000007 637.28 122.73 461.75 711.51 898.80 410.40 1051.81 399.84 1066.93 531.77 935.46 668.21 1059.10 659.86
00025291 00000008 634.14 123.18 461.65 706.99 895.09 407.59 1046.76 397.14 1063.53 528.48 936.41 667.03 1056.89 658.73
00025292 00000009 631.02 124.36 463.91 706.43 892.91 409.69 1043.68 397.07 1062.36 528.97 936.29 669.22 1054.81 659.37
00025293 00000010 630.50 128.35 465.40 709.18 893.76 413.22 1044.58 397.78 1065.62 535.52 938.34 676.65 1056.12 664.54
00025294 00000011 624.97 134.00 474.40 713.55 891.21 418.69 1052.11 404.49 1064.18 542.20 936.07 681.34 1057.75 668.32
00025295 00000012 626.21 138.51 475.79 714.96 892.29 426.48 1051.43 409.62 1065.63 549.79 934.59 688.37 1056.03 673.63
00025296 00000013 626.84 144.17 477.42 714.79 893.67 432.53 1051.78 417.12 1065.16 556.43 936.86 693.38 1058.08 679.46
00025297 00000014 635.48 151.16 469.11 712.72 892.00 448.51 1049.42 425.95 1062.53 569.64 935.79 706.58 1055.41 689.10
00025298 00000015 634.04 152.40 469.11 709.17 893.59 447.38 1052.04 426.19 1071.94 565.85 936.90 702.09 1055.89 685.12
00025299 00000016 635.46 152.52 468.82 710.86 895.28 448.27 1053.38 426.71 1073.24 567.96 937.09 703.31 1055.86 686.11
00025300 00000017 636.06 150.46 468.90 711.62 895.52 446.08 1054.02 424.92 1074.35 565.78 937.15 701.50 1057.52 684.61
00025301 00000018 636.44 148.38 470.51 712.14 896.00 446.63 1052.75 424.66 1066.29 569.25 937.14 704.30 1057.72 687.25
00025302 00000019 630.87 138.74 477.90 721.72 897.18 432.84 1058.13 415.39 1069.52 558.12 941.21 695.73 1064.17 680.16
00025303 00000020 628.58 134.04 478.58 721.57 894.66 426.01 1056.96 407.68 1069.74 550.36 938.68 690.14 1062.51 674.11
00025304 00000021 627.42 130.53 477.41 716.92 892.83 419.10 1056.74 401.34 1067.76 543.47 938.31 683.80 1062.61 668.04
00025305 00000022 625.49 125.19 478.03 720.03 891.75 412.75 1054.60 397.46 1065.99 537.58 937.58 679.45 1060.40 665.64
00025306 00000023 627.92 122.55 469.20 720.58 891.15 412.54 1045.16 394.07 1067.09 536.47 937.74 681.65 1056.38 667.07
00025307 00000024 626.60 121.65 471.50 719.98 890.00 411.75 1045.85 393.52 1065.64 536.20 936.91 681.15 1056.91 666.75
00025308 00000025 623.63 121.95 479.30 724.47 890.05 410.63 1053.02 395.39 1063.54 536.53 937.14 680.21 1059.88 666.44
00025309 00000026 622.88 122.26 480.20 729.71 890.75 412.75 1053.32 396.42 1066.14 540.05 935.42 685.57 1058.23 671.12
00025310 00000027 627.45 123.87 472.49 728.03 890.25 422.27 1047.16 400.96 1067.19 549.80 931.40 692.92 1051.66 676.47
00025311 00000028 624.88 127.59 476.87 731.02 890.26 420.32 1053.63 403.05 1065.51 547.89 930.90 691.50 1054.28 676.44
00025312 00000029 625.08 128.03 476.09 740.52 892.80 422.80 1052.85 407.21 1065.86 551.47 932.08 696.56 1052.12 683.09
00025313 00000030 624.85 127.90 477.17 749.18 894.42 422.91 1052.81 408.88 1067.08 552.59 931.27 698.91 1051.38 686.91
00025314 00000031 626.07 127.24 475.45 746.20 894.12 422.77 1052.84 408.42 1066.64 551.83 931.14 697.36 1051.84 685.04
00025315 00000032 623.67 123.65 477.28 750.83 895.07 418.48 1052.77 405.90 1067.39 548.24 929.16 692.77 1050.28 681.62
00025316 00000033 623.02 118.41 475.62 752.52 894.89 411.49 1052.87 403.00 1065.14 541.96 926.70 686.08 1049.09 678.10
00025317 00000034 624.11 115.35 471.98 749.16 889.97 402.59 1050.11 399.54 1058.02 532.57 922.21 678.41 1046.58 674.76
00025318 00000035 624.10 108.63 470.78 747.24 886.59 396.35 1046.01 394.20 1052.52 524.78 918.71 670.24 1043.77 667.64
00025319 00000036 621.98 102.79 468.97 745.25 884.23 392.18 1040.33 388.19 1049.88 519.11 919.73 664.99 1039.92 661.25
00025320 00000037 618.85 104.48 465.04 741.74 884.65 386.34 1032.43 385.30 1053.66 514.14 917.63 661.68 1034.63 660.83
00025321 00000038 617.41 100.77 464.51 732.82 881.63 384.59 1032.47 383.82 1049.59 510.26 915.78 654.85 1035.02 653.73
00025322 00000039 616.60 100.46 463.17 730.34 879.87 385.23 1031.04 384.38 1048.03 510.95 913.65 653.80 1033.44 652.54
00025323 00000040 617.22 102.05 460.94 729.11 879.04 386.99 1029.93 385.33 1047.06 514.40 913.11 656.83 1032.34 655.00
00025324 00000041 617.18 104.68 461.49 729.62 880.50 390.22 1029.54 386.31 1048.30 518.84 915.35 662.07 1032.44 658.83
00025325 00000042 617.60 108.91 463.28 730.64 881.30 395.27 1029.89 391.22 1047.56 524.03 916.09 667.41 1032.09 664.30
00025326 00000043 618.49 111.69 463.90 731.32 881.67 400.92 1030.12 395.38 1048.68 529.55 915.98 672.10 1031.54 667.86
00025327 00000044 621.20 116.34 463.20 725.51 882.31 403.51 1033.21 397.78 1049.52 532.72 918.03 674.96 1034.15 670.54
00025328 00000045 621.44 116.90 464.59 726.37 883.75 405.04 1034.01 397.24 1051.83 534.84 919.66 676.99 1035.09 670.93
00025329 00000046 621.48 118.27 465.66 725.18 883.86 405.96 1034.40 397.41 1051.94 534.61 921.53 677.47 1036.41 670.80
00025330 00000047 621.91 118.95 467.31 725.04 885.06 404.94 1035.66 396.27 1053.52 533.49 922.43 677.06 1037.82 670.39
00025331 00000048 623.13 118.16 466.52 727.59 886.21 403.36 1036.70 395.03 1055.55 532.20 922.82 676.13 1039.29 669.69
00025332 00000049 622.43 116.09 466.14 728.97 886.26 401.29 1036.34 393.38 1055.80 530.30 923.24 674.72 1039.50 668.59
00025333 00000050 619.64 115.30 465.64 732.48 886.36 398.49 1031.22 391.24 1056.20 526.80 922.94 673.15 1036.25 667.66
00025334 00000051 619.14 113.66 464.33 732.08 883.49 396.50 1029.04 390.66 1053.04 522.99 920.66 670.00 1034.97 665.61
00025335 00000052 617.45 112.05 463.59 727.20 882.09 394.71 1025.82 389.91 1050.79 519.53 920.18 665.80 1032.34 662.05
00025336 00000053 616.66 110.69 461.59 725.34 879.70 393.36 1023.81 388.45 1048.27 516.44 919.45 663.33 1032.01 659.23
00025337 00000054 612.70 108.72 462.61 724.36 876.09 393.69 1020.84 388.62 1043.92 513.99 916.72 660.70 1030.30 656.20
00025338 00000055 611.21 105.45 460.40 724.86 872.47 392.52 1019.07 387.78 1039.82 514.06 912.21 658.44 1028.10 653.99
00025339 00000056 607.15 103.90 461.98 726.66 869.04 391.78 1017.53 387.08 1036.12 514.08 905.84 656.54 1025.65 652.07
00025340 00000057 605.96 103.04 461.68 728.02 867.96 391.34 1016.61 386.37 1034.22 513.09 904.20 655.73 1024.61 651.02
00025341 00000058 604.22 102.00 463.09 728.56 867.68 392.38 1015.91 386.19 1033.55 515.01 902.35 655.80 1023.16 650.14
00025342 00000059 603.05 101.78 463.75 729.49 867.02 392.51 1014.93 385.98 1033.45 515.05 901.43 656.08 1022.06 650.25
00025343 00000060 602.45 100.18 464.14 729.73 867.29 392.45 1014.74 385.68 1032.47 515.47 901.35 655.55 1020.98 649.58
00025344 00000061 601.72 99.96 463.66 729.70 866.41 392.07 1013.92 385.01 1031.95 516.02 901.32 656.08 1020.02 649.83
00025345 00000062 601.59 98.86 463.45 730.71 865.81 391.57 1013.93 384.28 1031.56 515.73 900.57 655.57 1020.15 649.11
00025346 00000063 601.90 97.22 462.64 730.92 865.55 391.71 1014.38 384.81 1031.55 515.22 901.63 655.30 1020.81 649.09
00025347 00000064 601.30 95.76 463.14 732.05 866.09 391.41 1014.57 384.31 1032.36 515.50 901.68 655.16 1020.90 648.81
00025348 00000065 601.36 95.89 463.00 731.76 866.10 391.38 1014.36 384.22 1032.15 515.56 901.56 655.08 1020.63 648.67
00025349 00000066 601.55 95.55 462.49 731.67 865.87 391.12 1014.91 384.10 1031.58 515.56 901.83 655.16 1021.02 648.87
00025350 00000067 601.88 97.56 462.24 731.16 865.02 391.68 1014.40 384.88 1030.25 516.29 900.48 655.83 1020.20 649.68
00025351 00000068 601.79 98.70 462.63 730.62 864.90 391.89 1013.85 385.35 1029.72 516.41 900.77 656.47 1019.84 650.64
00025352 00000069 600.70 98.88 463.96 730.08 865.06 392.39 1013.77 386.31 1029.46 517.26 900.66 656.90 1019.08 651.50
00025353 00000070 600.51 99.82 464.31 730.43 864.32 392.20 1013.57 386.15 1029.24 517.24 899.58 657.33 1018.83 651.98
00025354 00000071 600.81 100.52 463.42 728.58 863.12 392.73 1012.59 386.55 1027.12 517.39 898.78 656.96 1017.77 651.53
00025355 00000072 598.55 100.46 464.09 728.86 861.97 392.28 1011.63 385.99 1026.72 517.74 896.98 657.51 1016.17 652.04
00025356 00000073 598.48 100.66 464.09 728.05 862.12 392.53 1011.60 386.17 1026.98 518.02 897.12 657.55 1015.99 652.08
00025357 00000074 598.77 100.70 463.74 727.84 861.92 392.46 1011.58 385.87 1026.95 517.61 897.21 657.40 1016.25 651.71
00025358 00000075 598.23 100.85 464.10 728.80 861.82 392.35 1010.83 385.77 1027.02 517.54 897.45 657.59 1015.99 651.92
00025359 00000076 597.38 99.12 464.24 730.86 861.08 391.86 1010.16 385.32 1026.86 517.29 896.97 657.40 1015.71 651.64
00025360 00000077 596.93 97.05 463.57 732.64 860.87 391.12 1010.53 384.33 1027.28 516.65 897.01 656.40 1016.56 650.32
00025361 00000078 596.30 96.13 462.90 731.85 860.17 390.20 1009.61 383.41 1027.62 515.49 896.42 654.59 1016.42 648.48
00025362 00000079 595.07 93.60 463.63 734.40 860.39 388.44 1009.78 381.85 1027.15 515.41 893.50 653.04 1014.77 647.14
00025363 00000080 593.29 93.06 470.79 730.68 857.44 386.11 1019.74 378.41 1031.17 509.16 892.39 654.76 1021.83 648.93
00025364 00000081 592.60 90.32 469.09 730.61 856.78 384.38 1017.74 376.59 1029.69 507.69 891.52 652.92 1019.79 647.11
00025365 00000082 591.91 89.66 469.42 732.11 855.70 382.31 1016.69 374.49 1029.02 505.50 892.04 651.66 1020.23 645.64
00025366 00000083 592.51 88.84 469.18 731.15 855.23 380.19 1016.32 370.86 1029.21 503.02 894.06 650.26 1021.58 642.82
00025367 00000084 592.23 86.50 469.16 728.13 854.39 379.84 1014.91 369.10 1028.67 501.12 897.07 648.08 1022.04 639.51
00025368 00000085 590.54 86.66 470.31 727.94 853.58 378.46 1014.81 367.91 1028.89 501.04 896.78 647.97 1022.59 639.47
00025369 00000086 589.65 86.83 470.85 727.30 852.05 379.18 1011.52 366.09 1027.55 500.90 897.23 647.84 1021.31 637.27
00025370 00000087 589.03 87.08 470.32 727.65 849.91 379.37 1010.29 366.67 1024.39 501.73 895.21 648.38 1020.10 638.07
00025371 00000088 587.13 88.99 470.17 728.93 848.21 379.19 1010.83 369.62 1021.97 505.66 891.68 650.56 1018.08 642.68
00025372 00000089 586.83 90.84 467.66 728.52 847.29 379.37 1008.73 371.21 1020.32 506.84 888.92 650.27 1014.83 643.54
00025373 00000090 588.80 93.02 464.59 721.23 846.52 379.15 1009.10 370.57 1019.37 505.52 888.33 647.92 1015.13 640.85
00025374 00000091 591.49 95.03 461.25 716.48 847.83 378.87 1010.28 372.02 1018.84 505.08 888.35 645.77 1014.76 639.92
00025375 00000092 595.70 98.64 456.11 706.61 847.17 378.73 1009.91 370.25 1016.96 502.45 887.77 641.96 1014.11 634.57
00025376 00000093 597.42 99.23 452.90 702.29 846.36 377.73 1009.82 371.50 1014.33 501.20 886.85 639.68 1013.42 634.18
00025377 00000094 597.20 99.48 449.44 701.01 845.18 376.58 1008.68 373.33 1011.58 500.21 883.61 637.03 1010.82 633.76
00025378 00000095 597.40 99.58 447.63 696.07 842.87 373.78 1007.65 372.93 1007.68 497.04 882.37 634.15 1008.80 632.51
00025379 00000096 596.92 102.02 445.69 685.38 838.65 372.23 1007.22 373.72 1002.14 493.39 878.66 629.64 1007.70 629.51
00025380 00000097 597.11 101.53 442.41 681.23 834.29 368.86 1006.11 372.45 995.50 490.54 874.36 626.24 1005.01 627.54
00025381 00000098 596.92 102.30 442.02 679.90 829.82 365.13 1003.26 369.60 991.57 487.13 868.30 623.95 1001.20 626.07
00025382 00000099 594.18 98.12 441.30 682.07 826.77 359.62 1001.58 368.86 987.36 484.94 862.73 620.09 995.14 625.98
00025383 00000100 588.23 99.58 441.51 678.54 823.86 354.35 994.63 368.73 981.55 481.06 855.59 612.48 985.66 622.34
00025384 00000101 586.28 100.35 437.98 669.87 820.88 352.42 979.91 366.74 971.51 478.54 851.27 606.07 972.65 617.51
00025385 00000102 581.91 93.00 437.44 674.25 820.83 346.47 975.97 366.85 965.76 474.90 843.26 599.28 961.85 615.89
00025386 00000103 579.53 90.11 435.83 668.54 820.03 343.75 974.45 371.63 961.18 471.58 834.87 590.63 954.07 613.53
00025387 00000104 571.55 86.09 449.32 671.04 814.35 337.33 984.53 377.67 959.68 472.70 819.92 583.00 953.72 614.71
00025388 00000105 568.84 83.22 450.93 674.82 814.87 329.95 983.61 373.81 959.24 470.61 817.01 579.16 952.12 613.53
00025389 00000106 573.04 79.97 438.29 674.91 818.67 331.69 972.23 366.63 956.78 464.44 823.49 579.48 943.98 608.06
00025390 00000107 571.88 73.67 439.95 682.28 820.59 326.22 972.95 364.84 957.80 461.45 824.10 575.37 945.35 606.65
00025391 00000108 570.99 71.20 440.94 682.09 821.31 322.49 974.07 364.42 957.36 459.90 822.69 572.42 943.86 606.30
00025392 00000109 571.80 67.76 439.93 686.46 820.36 319.38 973.32 361.43 956.71 458.30 820.02 570.02 942.54 603.83
00025393 00000110 569.22 67.33 441.10 688.69 818.97 317.55 971.94 360.86 955.11 456.46 819.09 568.17 942.02 602.83
00025394 00000111 567.39 67.63 442.24 688.71 819.21 316.73 970.52 360.91 953.73 456.01 817.39 566.38 939.79 601.72
00025395 00000112 567.11 67.98 441.00 687.71 818.58 317.45 969.48 362.23 952.20 456.29 817.43 566.11 938.78 601.88
00025396 00000113 567.16 70.03 438.11 685.07 818.46 319.79 968.20 364.43 952.02 456.98 817.47 566.14 937.62 601.72
00025397 00000114 566.83 72.65 438.35 683.68 815.31 321.11 966.13 363.07 950.10 456.23 815.24 567.79 937.56 601.27
00025398 00000115 564.27 74.04 439.35 681.68 812.73 320.22 962.99 363.06 948.41 455.57 812.01 567.08 933.65 601.36
00025399 00000116 559.53 76.03 438.56 679.95 810.13 318.88 959.64 363.48 947.05 455.81 808.51 566.17 929.70 601.92
00025400 00000117 556.28 77.15 439.43 679.86 807.25 318.08 957.87 363.21 945.14 454.81 806.23 565.96 928.57 602.03
00025401 00000118 554.05 77.49 438.76 679.48 802.37 317.49 954.93 363.16 941.36 453.79 800.82 565.48 924.58 601.91
00025402 00000119 558.75 79.25 433.07 670.13 799.32 321.43 958.02 355.92 948.18 443.62 805.53 569.73 929.61 598.63
00025403 00000120 557.17 77.22 431.11 668.38 795.70 322.12 956.34 357.56 945.13 442.21 802.73 568.41 928.82 597.85
00025404 00000121 555.74 77.73 430.44 668.93 793.72 321.62 955.46 357.98 943.28 442.49 801.37 568.93 927.68 598.94
00025405 00000122 554.12 79.08 430.25 666.79 791.77 320.66 954.89 357.81 942.50 441.77 801.39 569.53 927.58 600.04
00025406 00000123 555.96 77.73 424.23 661.94 790.13 320.10 955.82 357.77 941.74 442.54 801.08 569.83 927.25 600.61
00025407 00000124 556.09 79.32 421.87 650.13 789.08 320.64 954.21 359.94 939.19 443.63 799.59 566.86 923.79 598.89
00025408 00000125 554.33 79.77 421.01 643.69 788.09 320.30 952.26 358.79 937.94 440.87 800.37 563.74 923.39 594.93
00025409 00000126 552.67 79.85 422.37 640.94 785.24 319.31 951.13 359.05 934.79 439.02 796.43 561.47 921.76 593.60
00025410 00000127 554.71 75.68 422.52 639.87 789.97 319.81 954.49 360.41 933.02 439.94 796.13 555.20 922.90 587.86
00025411 00000128 554.33 73.76 422.71 641.16 790.19 319.32 954.11 358.83 933.36 438.97 796.66 554.02 923.50 585.78
00025412 00000129 554.47 72.37 422.73 641.43 792.70 319.00 954.71 356.41 935.30 439.06 799.16 553.01 924.98 583.01
00025413 00000130 555.48 71.37 422.77 640.45 793.65 318.98 955.74 356.36 936.08 438.20 800.15 551.72 925.91 581.83
00025414 00000131 555.43 70.44 423.05 644.15 793.47 318.16 955.93 355.30 936.24 437.38 799.95 551.46 927.36 581.15
00025415 00000132 554.49 74.56 422.06 651.54 788.38 317.84 948.87 351.99 934.66 434.04 798.96 556.18 924.23 583.97
00025416 00000133 553.08 76.00 424.65 661.12 788.24 317.04 945.36 352.90 931.93 433.82 796.34 558.69 919.65 588.43
00025417 00000134 553.60 75.97 424.77 657.82 785.80 318.52 946.17 352.13 929.86 436.25 796.21 560.03 919.94 587.74
00025418 00000135 553.75 75.67 421.32 649.51 782.81 318.76 945.57 351.36 927.99 436.67 795.41 559.05 919.97 585.70
00025419 00000136 552.92 68.43 422.81 646.88 785.71 317.97 950.04 352.69 925.87 436.75 792.63 552.92 920.88 581.39
00025420 00000137 552.50 67.23 421.47 646.13 782.58 316.60 949.47 351.12 923.27 437.44 790.42 553.09 919.81 581.46
00025421 00000138 549.70 65.38 422.97 652.30 779.11 316.14 946.95 349.37 920.44 436.72 788.00 553.18 919.45 580.27
00025422 00000139 546.86 65.16 421.63 653.64 777.13 316.03 941.06 348.69 917.14 437.43 786.80 554.34 914.70 580.78
00025423 00000140 545.14 73.52 422.72 655.38 773.15 317.59 934.79 347.59 915.12 436.04 787.74 560.35 909.99 584.89
00025424 00000141 544.49 74.26 423.06 662.61 772.55 316.78 933.20 347.54 912.92 435.61 784.53 561.29 907.45 586.66
00025425 00000142 544.18 73.27 423.81 661.18 772.98 316.89 934.44 349.04 914.46 434.97 784.76 560.13 908.71 586.60
00025426 00000143 545.67 62.41 422.85 659.22 779.53 313.31 941.62 350.02 917.87 432.47 784.19 550.38 911.44 580.23
00025427 00000144 546.53 63.28 423.04 652.62 784.26 311.40 947.12 353.27 924.59 428.58 787.67 545.91 915.12 579.97
00025428 00000145 549.70 62.40 422.12 648.90 789.83 311.04 951.63 356.36 931.31 424.98 791.57 541.31 918.01 578.16
00025429 00000146 555.10 64.79 419.96 644.56 797.50 308.52 957.06 355.83 937.95 424.87 793.39 538.22 918.40 576.91
00025430 00000147 559.75 68.23 415.87 640.50 809.05 303.68 965.31 357.17 946.38 424.41 796.99 535.25 919.42 578.90
00025431 DELETE   564.98 70.63 415.22 636.92 818.16 301.52 969.88 357.50 953.26 426.20 803.07 533.02 920.69 578.36
00025432 00000149 570.22 71.60 416.38 632.08 827.36 299.25 972.00 354.14 960.25 428.09 809.73 531.34 919.63 576.59
00025433 DELETE   576.78 74.93 415.63 627.32 832.28 301.49 975.10 354.41 964.66 430.96 816.01 534.44 922.49 578.77
00025434 00000151 579.84 79.58 417.62 618.40 834.74 297.33 975.52 368.76 959.32 442.83 809.55 522.91 925.56 580.72
00025435 00000152 581.48 83.19 420.42 621.50 836.99 300.80 978.71 373.41 962.19 446.49 810.48 527.11 926.43 586.27
CROP_BBOX: 251 0 1437 1078
