Video ID: 	iriuqZiQZlw
H: 	1080
W: 	1920
FPS: 	25.0

FRAME INDEX X0 Y0 W H [Landmarks (5 Points)]

00012452 00000000 1072.87 196.54 393.14 583.91 1149.79 413.18 1324.71 439.28 1208.67 552.44 1164.08 636.22 1276.65 658.98
00012453 00000001 1071.93 188.44 399.19 587.15 1160.57 415.83 1322.51 438.19 1216.03 540.34 1168.36 632.25 1285.68 651.95
00012454 00000002 1080.57 188.75 398.19 582.57 1157.91 404.63 1337.37 430.13 1219.69 541.23 1165.32 618.53 1295.80 640.95
00012455 DELETE   1078.36 183.11 406.43 585.83 1168.85 407.63 1339.97 428.72 1224.69 530.42 1167.21 611.77 1309.16 629.43
00012456 00000004 1087.36 182.96 400.21 583.86 1167.29 400.05 1346.05 423.59 1231.40 533.38 1174.86 609.91 1310.51 630.35
00012457 00000005 1089.56 188.08 401.15 585.61 1172.12 404.73 1346.47 428.14 1234.59 536.31 1182.93 615.34 1310.35 635.54
00012458 00000006 1090.48 197.00 399.24 580.35 1170.61 420.35 1346.97 432.02 1236.32 540.81 1183.13 626.56 1320.42 636.01
00012459 00000007 1090.88 195.88 399.43 581.02 1170.13 422.79 1348.09 432.81 1237.69 542.47 1184.36 627.62 1324.61 635.61
00012460 00000008 1090.81 193.79 400.39 582.75 1170.92 422.99 1349.55 432.63 1239.53 541.52 1184.55 626.08 1327.22 633.61
00012461 00000009 1093.74 194.66 399.91 580.38 1172.82 420.73 1352.90 429.70 1241.43 540.03 1186.79 623.65 1331.27 630.44
00012462 00000010 1097.12 194.57 400.01 579.15 1175.69 419.27 1356.70 428.14 1244.37 540.80 1189.61 622.33 1335.24 628.93
00012463 00000011 1098.80 194.20 399.63 580.23 1179.14 420.20 1360.56 429.04 1249.49 540.87 1192.94 623.61 1338.23 630.32
00012464 00000012 1100.63 195.50 400.96 579.28 1182.06 421.84 1363.37 431.14 1253.77 544.93 1194.98 625.25 1340.63 632.22
00012465 00000013 1101.39 196.95 402.48 578.79 1183.55 423.50 1364.98 433.85 1255.28 548.13 1196.13 626.17 1342.39 633.95
00012466 00000014 1102.30 198.73 401.84 577.43 1184.63 425.70 1365.87 436.65 1255.91 549.76 1197.01 627.99 1344.30 636.38
00012467 00000015 1103.02 199.34 401.18 575.84 1186.16 427.17 1367.84 438.97 1257.86 550.11 1197.88 628.25 1346.64 637.49
00012468 00000016 1107.34 201.41 397.96 579.96 1195.52 419.03 1369.72 445.13 1257.32 550.61 1197.70 623.03 1342.33 645.23
00012469 00000017 1109.70 201.76 395.91 578.93 1197.00 423.09 1370.77 449.80 1258.56 552.70 1197.34 624.30 1344.40 646.89
00012470 00000018 1112.24 202.85 394.83 577.83 1200.55 426.15 1374.25 454.24 1261.11 555.79 1199.38 626.53 1347.65 650.11
00012471 00000019 1112.01 204.65 395.68 578.13 1201.68 429.00 1376.76 457.04 1263.35 560.35 1200.36 629.08 1348.77 652.87
00012472 00000020 1113.25 206.69 396.21 575.80 1202.30 430.78 1378.15 459.25 1263.29 564.91 1201.81 631.78 1348.58 656.14
00012473 00000021 1114.04 207.99 395.27 575.10 1204.20 432.47 1377.99 460.71 1265.09 565.31 1205.19 634.91 1347.02 659.27
00012474 00000022 1116.11 207.35 393.99 579.27 1205.99 432.70 1376.44 460.89 1265.96 565.34 1208.23 638.90 1344.07 663.34
00012475 00000023 1118.19 204.56 394.20 583.58 1207.98 432.34 1375.69 459.43 1267.32 562.58 1212.63 641.85 1341.48 665.64
00012476 00000024 1117.33 201.60 394.36 587.81 1207.23 432.54 1373.88 458.87 1266.25 560.21 1212.92 643.60 1336.58 666.74
00012477 00000025 1116.06 198.70 394.80 589.29 1207.00 430.37 1374.16 456.40 1266.20 558.36 1213.41 643.77 1334.33 666.69
00012478 00000026 1115.33 200.56 392.86 586.93 1204.81 429.27 1371.82 455.01 1264.62 560.04 1212.81 644.05 1332.43 666.63
00012479 00000027 1114.41 207.38 391.48 584.60 1202.62 433.69 1368.95 459.94 1261.33 565.60 1208.71 645.88 1330.21 668.74
00012480 00000028 1111.90 216.02 390.52 578.01 1200.21 438.78 1366.35 465.96 1259.15 569.92 1205.91 650.59 1325.98 673.86
00012481 00000029 1105.04 225.89 394.55 572.81 1194.03 450.35 1363.38 464.62 1264.48 582.28 1208.86 667.77 1320.53 680.26
00012482 00000030 1096.22 224.87 408.15 570.26 1185.26 459.92 1362.39 467.98 1255.83 588.29 1202.76 665.50 1339.87 671.20
00012483 00000031 1094.16 227.64 407.75 570.81 1184.03 464.50 1358.58 473.60 1254.06 595.09 1200.59 666.99 1338.25 673.56
00012484 00000032 1099.05 240.22 402.41 569.29 1183.44 461.13 1362.73 476.50 1256.38 601.69 1201.34 669.63 1329.41 683.12
00012485 00000033 1098.71 251.35 400.18 560.87 1182.63 464.78 1363.71 482.30 1254.86 607.14 1198.96 670.39 1331.66 685.44
00012486 00000034 1095.72 255.32 402.71 555.77 1181.81 482.07 1354.24 492.24 1251.03 612.54 1201.49 676.04 1340.02 684.35
00012487 00000035 1095.47 265.82 398.22 551.74 1177.10 470.67 1359.10 489.06 1248.27 611.86 1195.82 675.58 1333.38 690.86
00012488 00000036 1094.39 267.94 397.21 548.81 1172.68 470.89 1354.69 489.11 1242.60 612.20 1193.62 677.44 1332.01 692.35
00012489 00000037 1092.27 266.46 400.79 546.42 1173.35 486.16 1343.68 495.50 1235.99 612.12 1193.02 677.79 1330.09 685.70
00012490 00000038 1090.26 260.38 402.08 551.59 1171.21 485.28 1339.54 491.85 1232.89 607.09 1192.20 678.64 1326.48 684.33
00012491 00000039 1091.60 262.10 396.61 552.01 1171.38 484.57 1334.51 491.64 1230.44 604.55 1189.27 678.64 1320.48 685.01
00012492 00000040 1088.44 259.95 397.45 556.73 1168.35 480.44 1330.65 488.65 1225.40 601.65 1184.15 678.35 1315.13 685.62
00012493 00000041 1084.37 260.13 397.34 557.67 1163.54 476.38 1323.56 485.20 1218.82 597.04 1178.95 679.16 1304.19 687.13
00012494 00000042 1077.39 254.54 398.89 562.82 1160.29 474.87 1320.02 486.35 1216.70 597.06 1175.15 678.37 1296.87 688.72
00012495 00000043 1071.49 253.73 397.63 563.55 1150.86 476.64 1311.22 489.48 1206.66 599.85 1168.61 682.14 1290.26 692.90
00012496 DELETE   1067.49 259.63 393.85 560.93 1147.96 480.78 1306.05 493.44 1203.15 602.97 1166.25 688.32 1282.80 699.15
00012497 00000045 1062.29 268.15 393.41 557.00 1139.57 486.53 1300.64 498.89 1196.02 610.63 1161.39 694.73 1281.00 704.55
00012498 00000046 1065.06 274.01 396.85 557.81 1133.08 497.60 1304.56 508.59 1199.36 625.65 1161.27 701.22 1286.61 709.09
00012499 00000047 1062.62 279.26 401.26 558.80 1131.39 501.00 1305.27 513.64 1199.83 632.18 1157.72 701.11 1291.90 709.95
00012500 00000048 1062.10 279.27 401.19 559.98 1131.50 500.33 1304.23 513.57 1198.93 632.85 1157.99 702.39 1289.99 711.88
00012501 00000049 1061.41 276.75 398.67 557.38 1129.42 497.98 1301.14 511.28 1193.54 629.83 1154.96 702.93 1282.48 712.85
00012502 00000050 1060.65 279.24 389.28 561.21 1119.52 494.11 1292.18 514.07 1177.60 636.12 1142.66 704.40 1270.82 720.46
00012503 00000051 1055.55 272.01 393.92 561.70 1112.84 488.15 1287.45 507.90 1168.96 633.71 1134.31 700.92 1266.27 716.71
00012504 00000052 1052.82 266.00 394.61 571.12 1111.01 485.30 1283.39 504.06 1163.61 625.97 1133.12 696.99 1262.57 712.09
00012505 00000053 1051.64 271.17 396.09 565.14 1115.00 480.62 1287.34 500.44 1167.56 618.56 1136.96 691.19 1261.25 707.37
00012506 00000054 1047.72 268.43 398.66 566.44 1123.46 478.01 1292.20 498.60 1178.67 614.11 1140.32 688.58 1267.68 705.38
00012507 00000055 1046.73 266.36 398.11 565.55 1126.37 476.96 1300.04 495.77 1188.59 612.82 1143.01 684.48 1279.35 699.59
00012508 00000056 1048.45 257.62 398.91 569.76 1128.40 476.93 1303.00 490.07 1194.13 605.43 1147.96 683.29 1289.65 693.18
00012509 00000057 1047.09 252.04 407.03 577.07 1132.27 474.65 1309.04 480.52 1206.45 604.84 1157.70 683.78 1303.29 687.27
00012510 00000058 1046.71 245.33 410.80 577.20 1137.02 474.13 1315.15 475.62 1218.44 600.63 1166.75 683.97 1308.95 684.38
00012511 00000059 1046.98 238.30 408.98 577.73 1140.49 470.77 1318.05 471.38 1225.07 598.39 1168.84 677.71 1311.02 677.70
00012512 00000060 1046.97 233.25 407.29 579.18 1142.71 466.49 1320.86 466.56 1229.39 594.47 1171.74 677.58 1308.58 677.30
00012513 00000061 1047.02 228.56 407.53 583.57 1145.20 465.18 1324.59 464.33 1235.25 591.56 1176.38 677.47 1314.46 676.07
00012514 00000062 1048.93 220.56 405.89 594.71 1148.42 464.98 1327.54 463.18 1240.49 588.25 1180.61 676.91 1323.15 674.30
00012515 00000063 1048.50 216.63 405.00 601.17 1151.63 462.90 1325.67 462.53 1243.40 587.12 1186.72 678.22 1314.50 677.16
00012516 00000064 1048.01 212.97 402.76 602.17 1149.27 462.98 1321.64 463.27 1240.73 588.22 1183.46 676.01 1312.24 675.59
00012517 00000065 1044.73 206.12 406.24 601.22 1143.27 465.10 1317.41 466.93 1230.02 588.08 1177.45 667.07 1314.02 668.89
00012518 00000066 1040.65 214.73 404.58 592.91 1138.68 464.33 1311.18 466.98 1226.57 594.08 1168.78 671.28 1300.47 673.11
00012519 00000067 1033.09 218.33 409.12 592.35 1129.33 462.74 1301.58 467.11 1211.23 590.92 1155.07 669.24 1286.24 673.18
00012520 DELETE   1028.42 219.44 408.14 594.80 1115.90 466.40 1289.67 473.85 1188.09 592.03 1143.11 668.66 1273.25 675.09
00012521 DELETE   1016.01 225.50 408.93 585.00 1098.89 471.30 1262.25 470.14 1163.70 585.32 1127.49 671.53 1259.27 669.48
00012522 00000070 1010.95 225.74 404.80 586.76 1084.21 468.10 1241.94 469.30 1139.27 581.94 1109.90 671.69 1239.73 672.03
00012523 DELETE   1003.93 227.42 393.81 582.84 1071.66 463.28 1223.85 473.52 1115.20 578.90 1089.92 668.75 1213.93 676.58
00012524 00000072 995.63 226.30 391.24 584.22 1057.47 460.51 1209.50 473.72 1085.03 578.20 1074.92 668.16 1187.86 678.24
00012525 DELETE   980.51 230.60 397.51 583.16 1042.42 451.68 1197.87 475.28 1063.81 577.95 1055.69 665.51 1169.74 683.89
00012526 00000074 974.45 230.55 391.34 580.29 1033.80 448.87 1185.61 477.92 1049.84 580.16 1046.59 662.59 1155.88 685.37
00012527 00000075 971.99 229.71 382.49 579.00 1025.64 451.52 1176.94 478.92 1042.94 581.31 1041.33 661.30 1151.80 683.05
00012528 00000076 972.40 227.41 377.38 592.52 1022.31 459.17 1169.31 482.24 1039.82 576.32 1034.94 665.17 1145.55 682.32
00012529 00000077 971.05 230.17 373.27 577.12 1020.17 467.64 1160.97 484.82 1037.50 583.26 1031.28 667.11 1147.61 681.40
00012530 00000078 969.96 231.71 374.01 578.24 1018.57 470.16 1159.86 486.68 1036.67 584.92 1030.89 668.38 1148.75 682.04
00012531 00000079 967.81 228.95 379.43 590.96 1019.38 466.01 1164.99 487.71 1034.85 581.80 1029.74 667.73 1145.39 683.67
00012532 00000080 966.29 234.89 386.31 585.76 1017.98 468.87 1167.58 488.43 1043.96 590.58 1035.07 669.79 1152.78 683.98
00012533 00000081 966.16 238.97 390.27 584.33 1018.92 472.52 1174.15 490.22 1051.89 597.31 1040.89 672.94 1164.65 685.48
00012534 00000082 965.19 240.79 394.56 582.87 1021.01 476.16 1181.16 492.01 1062.11 604.05 1045.80 678.01 1173.46 689.31
00012535 00000083 964.48 244.64 395.07 579.77 1020.79 477.36 1182.65 494.30 1063.33 605.96 1045.10 679.46 1174.04 691.55
00012536 00000084 963.26 242.89 392.27 580.33 1019.34 476.47 1180.18 493.72 1060.74 605.44 1042.68 678.52 1170.74 690.62
00012537 00000085 963.06 242.94 380.48 577.20 1015.05 473.30 1171.23 496.24 1053.64 611.02 1036.31 677.38 1163.87 695.15
00012538 00000086 956.40 248.66 385.28 568.36 1012.56 479.71 1158.52 499.24 1042.55 606.90 1033.23 677.42 1152.57 693.01
00012539 00000087 953.12 247.88 382.48 570.40 1007.43 479.12 1151.53 499.18 1035.01 607.55 1028.69 680.29 1145.78 695.90
00012540 00000088 949.27 246.82 385.05 573.11 1004.26 477.80 1148.68 498.23 1030.74 606.47 1023.84 680.89 1140.90 696.84
00012541 00000089 947.14 243.74 387.53 578.28 1004.26 477.93 1149.74 496.41 1033.19 605.44 1023.72 681.52 1142.56 695.82
00012542 00000090 950.18 240.82 388.86 578.12 1007.55 480.62 1156.46 495.41 1043.00 604.06 1029.51 679.98 1153.11 691.19
00012543 00000091 949.05 242.06 391.71 581.02 1009.03 481.52 1158.44 495.28 1046.36 604.57 1031.19 679.01 1158.12 689.33
00012544 00000092 948.12 237.93 395.68 589.56 1005.77 472.76 1158.36 491.16 1037.97 600.78 1025.85 676.67 1149.49 689.61
00012545 00000093 941.12 241.48 395.41 584.86 1000.47 473.25 1151.12 493.76 1030.55 602.06 1018.21 675.86 1141.21 690.30
00012546 00000094 939.38 245.81 380.45 578.76 988.72 466.22 1152.55 497.28 1027.14 612.85 1005.18 673.83 1142.34 698.67
00012547 00000095 934.95 244.17 380.82 580.68 983.35 465.53 1146.85 498.17 1020.26 612.49 997.53 672.62 1136.96 698.75
00012548 00000096 933.92 246.46 378.18 585.87 981.33 469.55 1146.71 504.85 1017.48 618.42 992.45 675.69 1137.14 704.17
00012549 DELETE   933.28 260.16 377.36 576.47 982.49 482.78 1147.31 516.25 1021.40 628.62 992.03 685.08 1138.85 711.97
00012550 00000098 930.25 276.61 380.93 568.29 979.79 493.53 1146.99 523.87 1020.88 638.77 990.34 695.03 1137.24 719.53
00012551 00000099 925.98 279.97 385.75 575.41 983.86 501.91 1143.41 530.37 1021.44 639.32 993.29 698.21 1136.29 717.78
00012552 00000100 919.46 281.63 388.65 572.65 980.23 502.13 1143.25 536.05 1013.12 639.33 989.54 701.00 1130.94 727.49
00012553 00000101 918.48 280.79 390.38 572.87 979.87 500.12 1142.81 532.71 1013.72 637.26 990.10 699.26 1132.43 724.63
00012554 00000102 922.67 283.07 386.24 571.70 977.13 497.85 1142.99 526.69 1017.61 641.26 991.29 697.88 1137.30 721.29
00012555 00000103 928.90 278.77 382.96 572.88 980.56 494.14 1146.98 521.24 1021.99 635.57 995.97 699.00 1138.83 720.97
00012556 00000104 932.34 275.16 378.55 575.82 983.94 490.21 1151.39 519.60 1023.93 630.75 996.31 697.56 1137.55 721.55
00012557 00000105 933.62 272.86 379.07 579.40 984.10 489.33 1152.58 519.60 1023.39 628.94 995.40 696.90 1138.42 721.70
00012558 00000106 933.65 273.04 378.46 582.55 984.07 488.98 1152.12 521.53 1020.64 627.29 992.94 696.19 1135.75 723.05
00012559 00000107 931.68 271.15 378.54 583.11 981.01 488.91 1148.98 521.45 1016.40 624.74 989.01 695.54 1130.50 722.53
00012560 00000108 931.00 268.65 377.73 585.50 979.17 488.65 1146.70 522.67 1011.76 622.37 984.30 694.74 1126.67 723.02
00012561 00000109 930.04 264.90 378.51 589.22 978.07 486.39 1145.83 520.40 1009.83 619.06 982.73 692.63 1126.15 720.93
00012562 00000110 930.56 260.74 378.40 593.20 979.29 481.49 1147.23 516.46 1010.81 615.85 982.78 689.78 1127.92 718.83
00012563 00000111 928.01 259.25 380.27 594.61 979.09 475.59 1146.00 512.01 1008.32 611.35 980.11 685.70 1125.82 715.77
00012564 00000112 925.05 249.75 381.51 601.83 977.58 473.24 1143.29 511.33 1003.84 609.11 974.74 682.15 1121.10 713.57
00012565 00000113 922.90 248.92 380.55 603.14 974.24 473.11 1140.23 512.94 998.21 609.90 968.65 681.15 1116.46 713.94
00012566 00000114 918.15 255.93 384.22 595.46 972.21 478.09 1136.38 518.38 995.12 611.39 963.08 679.75 1114.20 712.73
00012567 00000115 910.96 260.81 392.79 581.84 976.18 484.06 1133.62 523.00 1001.61 616.67 974.09 680.57 1116.68 709.88
00012568 00000116 906.09 274.58 391.52 573.78 970.20 488.89 1127.02 529.91 993.89 624.24 970.17 684.78 1109.06 716.30
00012569 00000117 894.64 282.56 395.87 572.00 961.92 489.22 1119.91 528.45 991.52 633.36 966.89 688.56 1102.30 720.97
00012570 00000118 894.37 281.37 392.45 575.84 960.39 490.91 1116.12 527.95 988.47 631.92 966.18 691.64 1097.65 722.10
00012571 00000119 903.21 274.87 381.30 581.26 959.74 490.51 1110.46 525.69 980.43 621.82 968.12 691.46 1101.30 718.13
00012572 00000120 898.34 259.34 382.71 594.04 951.35 486.34 1103.50 520.67 971.55 619.91 962.77 689.80 1090.94 716.27
00012573 00000121 892.60 249.41 379.25 587.62 944.36 472.31 1095.26 508.55 963.09 611.67 954.02 680.16 1074.66 709.08
00012574 00000122 882.27 235.65 387.98 590.24 940.69 476.62 1086.54 502.20 959.70 599.28 947.20 678.01 1066.06 698.97
00012575 00000123 878.10 230.71 387.25 594.18 938.43 472.71 1085.28 497.17 960.62 596.30 944.98 677.59 1064.91 697.32
00012576 00000124 875.09 233.26 387.72 591.60 935.91 474.18 1084.38 496.84 962.23 598.60 945.92 681.05 1063.90 699.28
00012577 00000125 879.47 244.08 378.79 588.43 928.38 469.59 1090.63 498.57 961.76 608.73 943.00 682.85 1064.91 706.59
00012578 00000126 874.25 246.97 378.86 592.53 925.25 471.56 1087.27 504.04 957.83 618.26 939.77 685.89 1066.84 712.23
00012579 00000127 870.94 259.75 374.97 582.04 920.31 476.59 1084.75 511.21 955.34 630.39 934.23 691.14 1067.90 718.99
00012580 00000128 868.38 261.11 373.72 583.04 916.36 481.52 1080.38 512.67 952.36 632.65 932.84 697.18 1066.03 722.12
00012581 00000129 864.22 268.81 375.80 577.39 913.03 484.75 1076.83 517.43 947.57 634.55 928.39 698.36 1062.79 724.30
00012582 00000130 862.38 265.46 374.36 580.16 909.91 487.03 1071.81 519.50 943.46 634.64 923.94 698.10 1058.67 724.11
00012583 00000131 862.17 265.23 375.57 581.51 910.07 485.45 1072.07 518.30 942.99 634.15 923.99 695.83 1062.80 722.14
00012584 00000132 864.94 261.86 376.39 583.07 911.81 480.26 1077.72 513.06 947.04 634.38 930.35 695.18 1068.45 721.28
00012585 00000133 868.49 262.72 377.27 575.74 916.24 475.80 1082.77 510.43 953.33 632.30 933.60 692.11 1067.77 719.67
00012586 00000134 874.89 253.04 376.80 576.84 923.05 476.34 1086.90 502.33 964.77 623.40 946.54 694.14 1067.80 714.72
00012587 00000135 872.33 251.50 393.99 583.97 930.76 480.89 1087.31 498.43 965.57 610.97 955.13 696.43 1063.92 708.92
00012588 00000136 871.74 250.28 394.57 586.25 929.71 480.90 1087.55 498.18 965.86 612.88 955.73 698.27 1065.39 710.42
00012589 00000137 872.26 251.27 391.83 588.10 927.95 480.75 1084.07 501.99 960.38 616.78 952.75 697.59 1062.40 712.75
00012590 00000138 871.14 261.31 377.32 570.74 915.89 476.26 1081.02 505.03 955.40 628.91 941.12 696.07 1064.80 718.41
00012591 00000139 866.67 268.70 380.08 564.33 911.93 476.39 1077.14 507.26 950.94 632.87 937.70 696.23 1063.07 720.26
00012592 00000140 868.93 274.65 378.50 558.90 915.38 476.23 1078.99 508.17 952.71 633.14 942.92 694.58 1065.60 719.19
00012593 00000141 873.41 271.05 391.63 560.43 926.62 480.69 1078.98 503.46 960.17 618.73 954.99 690.07 1064.41 705.62
00012594 00000142 878.06 249.73 390.44 577.61 931.48 476.80 1085.02 498.25 965.44 618.68 959.47 684.93 1074.66 699.71
00012595 00000143 881.24 250.66 387.12 564.42 935.47 471.29 1089.75 491.82 971.15 608.48 960.16 675.66 1076.81 690.26
00012596 00000144 880.30 258.48 384.00 548.68 936.40 474.00 1084.83 493.47 969.33 605.67 957.69 671.62 1078.04 687.17
00012597 00000145 881.36 260.83 382.99 545.48 937.59 472.33 1085.53 493.93 969.15 606.12 958.21 669.50 1078.73 686.84
00012598 00000146 887.40 258.33 374.98 551.42 935.42 467.29 1096.69 494.17 974.62 611.75 957.69 669.02 1088.03 690.26
00012599 00000147 889.49 260.25 376.69 549.51 939.63 467.30 1101.88 494.72 980.64 613.80 960.79 671.93 1089.35 693.71
00012600 00000148 893.48 258.85 382.82 553.92 944.60 467.44 1101.24 492.96 979.80 608.58 963.00 670.54 1084.61 689.19
00012601 00000149 892.27 263.12 377.37 545.04 941.18 466.75 1101.12 492.66 980.62 612.89 964.24 669.98 1092.13 690.29
00012602 00000150 893.49 257.96 376.27 547.63 940.87 464.50 1099.35 489.76 979.95 609.12 965.38 666.38 1090.71 686.17
00012603 00000151 891.29 254.36 379.38 547.03 943.15 453.55 1105.64 487.15 983.81 606.93 966.54 658.91 1089.36 685.26
00012604 00000152 891.99 256.08 380.55 542.33 943.85 450.45 1107.26 484.36 983.50 603.45 967.87 657.08 1091.74 683.91
00012605 00000153 892.66 253.50 383.37 544.03 944.86 447.88 1110.40 483.42 984.27 602.87 969.24 654.29 1096.99 682.20
00012606 00000154 893.02 256.48 382.26 541.37 945.20 449.37 1111.61 484.89 986.64 605.78 970.37 654.33 1100.31 682.04
00012607 00000155 892.09 256.71 381.99 542.97 944.17 451.32 1110.02 486.72 985.69 607.98 970.32 654.47 1101.91 681.73
00012608 00000156 892.68 255.93 380.39 541.71 943.97 451.52 1108.18 485.96 984.05 606.10 971.43 652.80 1101.82 679.15
00012609 00000157 891.29 254.35 382.00 537.77 943.31 445.29 1106.79 481.67 982.68 600.14 970.79 645.72 1100.54 673.88
00012610 00000158 892.47 242.02 382.58 545.44 947.57 433.67 1109.12 472.48 983.21 588.03 972.14 637.89 1101.87 668.51
00012611 00000159 892.49 229.13 389.28 557.38 952.43 426.92 1115.34 461.71 991.96 578.12 973.85 634.30 1104.39 662.19
00012612 00000160 892.78 224.96 393.21 559.06 954.35 425.50 1117.12 456.43 996.60 575.35 977.07 629.24 1113.35 654.05
00012613 00000161 891.12 221.94 397.98 559.55 954.33 423.44 1117.43 452.63 998.71 573.71 978.24 627.60 1114.28 651.13
00012614 00000162 889.91 220.71 393.96 559.43 951.77 422.55 1114.39 453.96 994.52 572.51 975.45 625.58 1107.85 651.01
00012615 00000163 887.08 217.95 389.07 562.66 945.40 423.83 1104.65 455.95 985.06 573.41 967.79 625.91 1096.96 652.21
00012616 00000164 882.59 213.39 390.82 570.47 938.46 422.10 1096.87 455.15 973.22 570.79 960.07 623.31 1089.91 650.42
