Video ID: 	OiJnzbynYtE
H: 	1080
W: 	1920
FPS: 	25.0

FRAME INDEX X0 Y0 W H [Landmarks (5 Points)]

00003031 00000000 715.20 157.76 457.61 584.56 758.92 391.76 934.86 392.38 788.09 522.01 796.26 609.38 926.06 609.81
00003032 00000001 710.69 159.88 451.92 582.13 752.64 393.99 916.63 393.29 779.94 518.42 786.77 608.65 911.49 607.98
00003033 DELETE   706.90 156.09 448.94 588.29 747.75 394.06 910.82 391.68 772.44 515.15 781.52 608.92 906.66 607.08
00003034 00000003 703.95 151.50 451.47 594.65 744.40 396.66 902.24 389.51 763.80 510.64 780.02 610.74 900.76 605.13
00003035 00000004 701.90 150.66 451.13 596.69 742.63 396.39 895.45 388.79 757.71 510.13 780.19 610.44 897.94 604.48
00003036 00000005 699.42 153.10 448.67 595.53 740.77 398.29 888.20 389.06 751.44 507.64 779.46 610.61 893.25 603.30
00003037 00000006 698.66 154.33 447.96 595.33 739.08 400.09 880.37 389.15 745.61 508.40 780.22 612.38 889.25 603.53
00003038 00000007 696.56 153.13 448.12 596.84 736.89 400.29 877.80 390.44 741.49 510.25 777.80 613.20 885.50 605.34
00003039 00000008 694.53 152.97 445.88 597.09 733.99 403.44 873.10 390.94 737.39 509.33 775.25 615.40 880.73 605.45
00003040 00000009 692.87 153.52 442.23 596.55 731.00 405.61 869.13 393.66 734.32 511.18 772.17 616.57 876.63 607.03
00003041 00000010 688.60 152.83 442.15 595.01 726.66 408.05 866.80 394.94 732.37 512.46 770.01 617.72 875.55 607.25
00003042 00000011 686.13 154.30 443.41 592.75 723.76 408.75 864.62 394.95 730.74 514.14 768.90 617.97 875.30 606.93
00003043 00000012 685.23 154.45 443.14 591.40 722.50 409.10 863.62 395.98 729.14 514.36 767.28 617.34 874.20 606.79
00003044 00000013 685.66 153.80 443.44 591.71 721.84 409.38 864.13 394.93 728.25 513.81 765.27 618.29 873.73 606.82
00003045 00000014 684.02 155.51 445.86 589.85 720.62 406.13 865.06 392.17 728.73 513.48 764.88 617.32 874.45 606.30
00003046 00000015 684.63 156.82 445.79 590.71 721.84 406.31 864.62 392.98 728.49 514.47 766.01 618.99 872.58 608.47
00003047 00000016 685.95 156.31 444.40 592.80 721.41 407.24 864.85 394.60 727.56 517.05 764.63 621.21 870.84 611.24
00003048 00000017 687.22 157.68 446.11 591.66 722.59 409.55 864.93 397.09 727.96 518.40 764.19 622.32 869.52 612.51
00003049 00000018 688.77 159.80 447.12 588.16 724.39 410.84 867.59 398.68 729.52 518.63 763.76 621.67 870.77 612.17
00003050 00000019 689.72 160.90 449.52 586.60 726.34 410.14 869.89 398.01 731.63 517.29 765.26 619.19 874.60 609.61
00003051 00000020 690.85 159.26 450.11 587.80 729.48 407.85 872.47 396.79 735.70 516.15 770.57 616.05 881.10 607.14
00003052 00000021 692.95 157.51 453.38 591.45 732.43 407.26 875.73 394.59 738.67 513.18 774.74 615.24 886.05 605.01
00003053 00000022 693.59 157.18 454.99 593.08 733.44 409.01 876.86 394.46 741.26 512.89 775.16 616.95 885.44 605.25
00003054 00000023 692.64 155.68 455.89 594.15 733.17 409.09 879.21 394.44 742.36 513.62 772.15 618.79 882.59 607.19
00003055 00000024 692.30 154.87 456.04 595.12 732.20 408.58 881.39 393.49 744.62 513.29 769.68 620.11 881.07 608.35
00003056 00000025 691.42 154.03 457.24 595.50 732.22 407.20 882.42 392.26 745.37 512.72 769.84 618.81 883.44 607.15
00003057 00000026 691.01 152.00 456.59 595.50 732.88 403.84 884.51 390.81 745.28 510.58 771.68 613.67 890.34 603.16
00003058 00000027 691.93 150.38 456.57 596.53 734.33 403.15 885.75 389.58 747.23 508.84 772.09 614.56 889.05 603.84
00003059 00000028 693.55 148.01 455.41 602.14 736.22 404.47 886.50 389.45 749.22 508.14 773.84 618.42 883.79 606.83
00003060 00000029 695.17 147.03 456.22 602.13 737.46 401.76 889.07 387.89 749.76 507.03 774.39 616.15 886.70 605.43
00003061 00000030 695.40 145.61 455.32 600.79 736.00 399.09 893.18 387.01 751.59 507.58 771.51 613.99 891.07 604.56
00003062 00000031 697.28 147.03 458.94 601.36 739.48 400.38 895.84 388.00 755.65 508.27 775.63 614.55 893.82 604.85
00003063 00000032 699.97 149.13 455.89 598.85 741.41 403.80 897.13 389.61 758.79 509.50 779.29 617.74 893.37 606.61
00003064 00000033 700.14 151.46 456.30 595.21 740.11 404.14 899.13 391.10 760.09 511.53 775.84 618.02 894.00 607.89
00003065 00000034 699.08 153.46 457.54 593.20 739.69 403.13 898.75 391.09 759.28 511.53 775.57 615.84 895.47 606.39
00003066 00000035 699.60 154.63 456.45 593.20 740.33 404.20 899.01 390.45 759.30 509.74 777.58 616.51 896.40 605.65
00003067 00000036 700.28 150.95 454.12 596.38 740.70 403.40 898.34 388.68 759.68 507.91 778.06 616.22 897.92 604.63
00003068 00000037 698.80 149.36 455.53 596.86 741.18 400.43 900.64 388.28 761.73 507.99 777.36 613.51 900.45 603.99
00003069 00000038 698.45 148.96 455.27 596.94 741.54 399.39 900.95 386.92 761.79 507.03 778.50 612.72 902.16 602.94
00003070 00000039 698.86 148.24 455.67 596.66 742.58 398.35 902.75 386.01 763.79 506.55 779.59 611.58 906.04 601.85
00003071 00000040 699.83 148.27 454.14 595.97 743.71 398.05 903.66 385.38 765.27 505.60 780.39 611.23 906.27 601.26
00003072 00000041 700.43 147.66 453.86 596.15 744.56 397.49 904.24 384.73 766.51 505.50 780.99 611.03 907.56 601.03
00003073 00000042 700.41 147.03 452.93 595.40 745.12 395.47 905.42 383.47 767.58 504.62 782.02 607.90 911.69 598.42
00003074 00000043 700.32 144.44 455.23 598.74 744.57 393.82 906.04 383.04 767.90 505.83 782.66 606.75 913.13 598.25
00003075 00000044 700.41 142.60 453.55 601.81 744.68 391.95 903.96 380.28 765.90 503.44 784.57 606.09 913.03 596.77
00003076 00000045 697.48 141.36 455.08 603.64 742.38 392.09 899.22 379.30 761.48 500.87 783.31 605.79 909.19 595.52
00003077 00000046 691.38 143.32 455.85 596.22 735.78 391.93 893.37 379.11 756.72 501.94 778.02 601.21 903.82 590.75
00003078 00000047 686.90 141.20 451.75 593.01 730.81 389.29 883.30 375.28 746.96 499.01 773.09 602.42 892.77 590.97
00003079 00000048 682.90 137.88 446.25 593.31 722.72 388.76 874.48 373.04 735.65 498.42 765.28 604.14 881.10 591.34
00003080 00000049 679.62 136.90 443.20 588.16 717.31 381.70 870.30 368.23 727.49 493.54 755.53 597.69 872.79 587.01
00003081 00000050 673.15 122.74 447.15 601.36 707.09 375.85 852.77 362.99 711.01 487.27 746.17 595.01 854.89 584.18
00003082 00000051 670.93 117.97 448.03 601.92 704.94 374.80 849.32 360.49 709.07 482.39 746.67 591.89 854.01 579.66
00003083 00000052 671.62 117.38 442.83 604.00 710.05 373.34 848.32 357.55 710.07 479.62 748.29 587.84 855.18 572.81
00003084 00000053 662.36 122.33 451.64 595.82 697.69 373.49 844.20 358.95 703.19 484.08 743.09 590.60 850.28 577.94
00003085 00000054 662.23 115.71 446.69 605.26 698.33 372.96 837.94 358.21 701.41 485.68 741.47 588.45 846.34 573.97
00003086 00000055 658.89 113.82 448.63 611.47 694.19 376.57 833.25 360.81 698.14 489.15 738.55 592.26 842.82 577.03
00003087 00000056 656.06 118.77 449.91 608.09 690.43 377.61 831.43 363.54 696.02 493.93 735.06 595.02 839.95 581.22
00003088 00000057 653.71 121.19 452.23 604.05 687.54 380.60 829.53 365.38 695.39 497.56 734.54 597.84 838.73 583.16
00003089 00000058 652.64 119.68 452.93 605.65 686.00 381.54 829.37 364.95 695.09 496.60 733.00 597.76 839.14 581.94
00003090 00000059 653.26 118.55 451.03 605.89 685.96 380.23 829.28 364.73 694.68 495.95 732.40 596.15 838.74 581.22
00003091 00000060 653.47 118.52 451.15 603.83 685.74 379.07 828.52 363.96 694.43 495.23 732.67 593.98 838.74 579.31
00003092 00000061 653.72 117.50 450.79 603.97 686.76 378.66 828.88 364.20 694.15 494.28 732.71 592.35 838.99 578.18
00003093 00000062 654.64 116.79 448.75 606.13 689.01 378.08 829.19 363.43 695.33 492.95 734.19 592.54 838.97 578.21
00003094 00000063 655.02 118.30 449.97 606.89 689.77 379.11 829.47 363.53 695.47 493.72 734.70 594.74 838.88 579.68
00003095 00000064 656.03 118.15 449.07 607.08 690.90 377.99 829.49 363.63 694.82 493.34 735.32 594.48 838.08 580.39
00003096 00000065 657.13 119.56 448.50 608.26 693.66 378.16 829.93 363.72 694.90 493.11 738.16 594.14 840.84 579.91
00003097 00000066 658.23 120.83 447.30 606.89 694.88 378.22 830.54 363.90 695.57 492.87 739.19 593.96 841.18 579.81
00003098 00000067 660.17 117.26 448.82 608.30 697.22 377.01 834.15 363.68 697.74 492.28 742.02 592.17 845.18 578.73
00003099 00000068 663.32 117.09 445.70 605.78 699.55 375.64 838.05 364.28 699.66 490.96 741.53 589.41 848.65 577.51
00003100 00000069 665.67 118.80 446.57 602.23 701.86 373.83 842.56 364.60 702.69 491.28 742.09 588.15 851.73 578.07
00003101 00000070 669.05 118.21 444.69 602.57 705.34 372.12 846.57 362.64 706.64 487.70 743.84 587.45 853.52 577.28
00003102 00000071 668.92 124.09 448.51 589.21 701.96 374.77 848.99 364.31 707.51 490.06 744.17 588.37 854.25 579.09
00003103 00000072 671.60 131.73 446.11 581.34 708.13 377.47 865.94 361.12 720.35 483.71 748.58 587.77 871.10 574.57
00003104 00000073 674.74 132.69 447.48 581.51 713.64 375.57 870.01 358.81 727.10 481.24 752.61 586.46 874.84 573.24
00003105 00000074 679.14 134.26 443.77 581.87 717.87 374.95 871.90 359.07 729.91 481.44 755.02 588.25 874.69 575.83
00003106 00000075 679.75 132.94 444.79 584.81 719.07 374.20 872.75 359.45 730.85 481.02 755.89 588.11 874.63 576.62
00003107 00000076 680.86 133.05 443.69 585.04 719.44 374.92 872.87 359.52 730.92 480.51 755.63 588.74 874.89 576.73
00003108 00000077 680.58 133.61 441.70 585.51 719.14 377.08 871.41 361.51 730.12 483.27 756.26 590.46 874.36 578.17
00003109 00000078 679.11 134.61 440.76 584.54 717.63 377.98 871.20 362.40 729.31 484.51 754.95 591.02 873.66 578.64
00003110 00000079 678.70 125.12 444.03 596.30 711.50 376.47 858.12 365.17 717.70 491.18 749.96 593.20 860.80 583.76
00003111 00000080 676.20 132.82 443.00 588.44 715.37 380.53 870.29 363.82 727.39 485.25 752.26 592.36 871.79 579.17
00003112 00000081 674.07 135.81 442.13 587.21 713.72 382.17 868.96 365.74 726.45 488.56 752.96 594.17 872.41 581.07
00003113 00000082 673.10 133.83 443.42 592.78 713.41 381.95 868.80 365.56 725.96 488.47 754.94 595.07 876.03 581.97
00003114 00000083 673.78 135.31 442.67 591.37 713.57 381.13 869.23 366.73 725.15 490.91 755.34 594.50 878.51 582.85
00003115 00000084 675.89 127.50 443.35 603.41 718.36 375.56 858.77 365.84 720.43 491.17 755.62 590.83 871.17 580.52
00003116 00000085 677.18 127.57 441.77 601.41 718.86 374.76 858.85 366.42 720.48 490.77 755.46 589.30 871.37 579.95
00003117 00000086 677.08 128.94 441.61 601.09 718.92 374.81 858.81 366.77 720.02 491.51 755.89 589.42 872.60 580.30
00003118 00000087 676.47 136.51 439.19 590.08 714.59 381.27 866.22 370.20 722.23 494.41 756.61 593.14 878.79 583.83
00003119 00000088 676.45 136.45 441.23 590.17 714.83 381.33 866.41 370.19 722.91 495.12 756.64 593.26 879.16 583.91
00003120 00000089 677.01 135.64 440.37 589.92 715.49 381.21 867.39 370.14 723.42 494.53 756.41 592.75 878.85 583.52
00003121 00000090 677.76 136.53 440.47 589.37 716.72 380.87 867.65 370.04 724.24 494.88 757.75 592.86 879.64 583.85
00003122 00000091 680.48 136.16 440.52 587.77 718.87 380.90 870.48 369.46 726.82 492.51 757.45 593.18 879.60 583.92
00003123 00000092 682.18 134.42 439.65 588.59 720.10 379.76 871.64 370.09 728.01 492.81 757.51 591.38 880.98 583.51
00003124 00000093 682.04 136.08 441.40 584.72 720.76 377.90 874.14 370.08 729.72 492.04 756.48 586.06 883.94 579.70
00003125 00000094 683.63 136.12 444.70 585.26 722.92 380.35 877.61 368.75 734.24 488.89 758.55 588.56 885.97 579.41
00003126 00000095 683.74 136.71 447.21 583.39 724.54 379.70 880.28 367.91 738.47 487.19 760.07 587.65 887.03 578.41
00003127 00000096 684.40 133.86 450.03 590.15 727.61 378.48 882.33 365.23 741.73 483.51 762.73 589.89 887.52 579.65
00003128 00000097 687.01 129.82 448.74 595.10 728.95 377.02 882.70 362.06 742.40 480.00 764.87 592.99 885.21 581.58
00003129 00000098 685.97 132.27 448.59 592.87 729.55 375.63 883.56 362.62 742.77 479.99 764.68 590.43 886.86 580.54
00003130 00000099 684.81 131.06 449.33 596.08 729.04 375.53 883.37 362.48 742.98 481.21 766.63 591.09 888.55 580.92
00003131 00000100 684.43 131.44 448.09 600.55 729.37 377.42 880.26 363.26 740.54 482.24 768.34 594.21 886.51 583.06
00003132 00000101 684.20 132.35 447.62 596.81 727.91 376.68 880.47 363.54 740.19 482.76 765.96 593.20 886.78 582.88
00003133 00000102 684.33 131.17 447.67 595.84 727.57 376.37 880.67 362.92 740.19 483.28 765.86 593.92 886.13 583.46
00003134 00000103 684.72 131.13 447.56 596.98 727.70 377.41 880.80 363.24 740.06 482.97 765.63 594.85 886.37 583.80
00003135 00000104 684.62 130.61 448.22 596.96 728.34 377.73 881.71 363.88 741.29 483.01 765.76 594.30 885.94 583.55
00003136 00000105 686.26 133.69 445.23 591.18 728.65 380.58 881.04 365.95 741.50 484.60 764.94 594.94 884.69 583.56
00003137 00000106 686.51 133.95 445.59 591.46 728.78 382.71 882.26 367.66 743.25 487.03 764.88 595.97 885.25 584.31
00003138 00000107 687.97 133.55 445.92 594.64 729.30 383.05 883.65 369.15 743.37 488.55 765.59 597.59 885.76 586.72
00003139 00000108 687.93 134.12 447.68 595.22 730.21 384.99 884.40 371.18 745.51 491.33 767.09 598.95 886.60 588.11
00003140 00000109 689.06 136.38 446.42 592.33 730.82 384.84 886.32 372.74 746.46 492.62 765.69 598.53 886.17 589.09
00003141 00000110 690.80 137.71 446.67 591.21 731.70 384.72 887.23 373.29 747.32 493.85 765.78 598.50 887.59 589.71
00003142 00000111 691.85 137.11 445.84 592.25 733.09 383.34 888.08 373.77 748.63 495.95 768.08 596.95 891.52 589.62
00003143 00000112 690.97 141.54 447.22 591.87 733.44 385.42 885.04 376.54 746.78 501.96 774.08 601.91 893.25 594.72
00003144 00000113 693.42 155.81 449.51 588.84 735.96 387.96 878.26 387.13 741.21 511.71 780.15 604.23 892.17 602.83
00003145 00000114 694.69 164.80 448.73 578.50 735.94 389.75 873.20 394.30 733.84 517.72 780.16 604.18 885.85 606.98
00003146 00000115 691.72 158.59 441.87 578.58 729.72 385.50 868.93 394.21 725.19 515.37 763.43 601.16 869.39 608.15
00003147 00000116 686.27 146.50 434.79 582.38 723.52 374.90 865.79 385.73 718.36 503.15 751.37 592.88 860.11 601.60
00003148 00000117 685.84 121.41 427.58 605.43 727.05 366.91 855.10 373.50 710.10 478.17 742.43 581.89 845.95 584.86
00003149 00000118 687.00 118.20 426.80 605.26 728.05 359.48 858.63 366.51 711.28 471.81 741.89 576.14 846.77 579.47
00003150 00000119 687.59 118.38 429.54 606.94 728.71 359.45 861.84 363.24 713.52 473.19 746.09 579.40 853.79 580.16
00003151 00000120 687.18 120.40 431.96 610.78 730.47 361.87 862.67 367.80 713.54 479.02 751.22 581.93 861.42 584.24
00003152 00000121 685.93 138.76 436.35 591.32 728.07 365.20 869.62 376.22 717.29 490.60 756.21 582.57 870.51 591.36
00003153 00000122 687.96 142.62 437.08 587.27 729.65 367.38 871.84 380.49 721.78 496.59 757.25 584.24 871.49 594.73
00003154 00000123 689.50 144.02 434.50 577.11 728.43 368.97 874.08 380.79 725.66 496.21 752.63 582.06 869.61 591.72
00003155 00000124 689.91 140.92 433.82 575.82 728.98 367.22 874.82 378.19 727.18 493.12 753.21 579.07 869.88 588.07
00003156 00000125 692.94 128.48 435.33 593.93 725.50 363.93 864.01 376.89 715.30 496.46 753.98 584.18 861.34 593.74
00003157 00000126 693.52 129.22 435.91 595.01 725.21 364.41 864.98 374.92 715.50 495.79 754.30 586.49 862.12 594.14
00003158 00000127 692.72 128.17 436.92 595.98 725.78 364.90 864.32 376.10 716.07 496.20 755.24 585.48 863.30 593.60
00003159 00000128 692.40 129.93 437.38 594.26 725.66 363.91 864.01 376.77 715.10 497.77 756.30 585.30 864.56 594.61
00003160 00000129 692.27 132.14 437.49 593.16 725.81 365.70 864.84 377.83 715.82 499.23 756.48 587.12 865.43 595.75
00003161 00000130 690.18 141.18 436.24 581.53 729.52 366.41 874.31 375.94 725.05 494.27 758.56 583.01 874.99 590.73
00003162 00000131 689.92 139.55 438.22 586.65 729.76 367.25 873.00 375.74 725.23 494.70 759.71 585.36 875.40 592.25
00003163 00000132 689.35 139.91 440.48 588.79 731.05 367.94 873.50 377.01 724.83 496.69 762.09 585.33 878.38 592.59
00003164 00000133 688.87 140.78 440.99 588.67 731.18 368.61 873.67 376.92 726.40 497.32 763.42 585.91 879.76 592.57
00003165 00000134 688.35 139.36 442.38 589.17 731.30 368.38 875.14 376.74 727.68 496.13 762.32 585.38 879.25 592.15
00003166 00000135 688.85 138.11 442.57 589.67 730.24 369.81 875.60 375.81 729.31 495.53 761.96 588.08 880.28 592.92
00003167 00000136 689.84 138.02 442.17 589.76 729.77 371.85 875.48 375.94 729.35 495.90 761.95 590.10 880.03 593.43
00003168 00000137 690.20 139.17 443.05 589.12 730.16 375.27 875.30 377.69 729.57 497.32 763.47 591.95 880.13 593.90
00003169 00000138 690.71 138.23 442.74 589.86 731.48 378.61 876.41 378.50 733.22 496.97 764.88 594.23 880.87 594.30
00003170 00000139 691.72 141.09 443.09 587.23 731.41 380.17 876.85 379.71 734.52 498.24 765.81 594.70 881.72 594.40
00003171 00000140 692.28 144.96 443.41 582.54 731.30 382.18 880.35 381.42 739.16 500.62 764.87 597.03 883.08 596.48
00003172 00000141 691.39 148.64 450.55 585.16 733.46 386.37 886.87 386.02 746.00 506.87 767.26 600.47 888.35 600.29
00003173 00000142 694.11 151.29 451.62 587.93 736.58 388.87 894.73 391.65 753.15 512.61 766.35 603.99 890.02 606.49
00003174 00000143 695.43 152.72 452.90 589.80 737.95 391.38 898.90 394.32 756.25 515.22 766.82 607.29 890.49 610.00
00003175 00000144 696.67 155.77 452.24 586.82 739.76 391.64 901.58 395.39 758.89 516.68 768.89 606.25 895.79 609.43
00003176 00000145 699.18 156.43 451.71 586.20 740.53 391.79 904.55 394.57 761.31 516.66 769.48 607.53 897.96 609.98
00003177 00000146 700.58 156.39 451.04 587.08 741.65 391.32 904.68 394.35 762.42 516.37 771.03 607.45 898.36 610.11
00003178 00000147 701.29 159.37 453.95 587.62 742.20 390.18 903.06 393.19 758.66 516.20 774.61 608.58 897.95 610.95
00003179 00000148 700.14 160.47 454.14 587.04 741.21 390.95 900.58 394.49 755.73 516.36 773.26 608.62 895.02 611.43
00003180 00000149 699.00 161.49 454.04 586.81 739.19 391.80 896.64 396.10 751.69 516.96 769.54 608.91 888.54 612.30
00003181 00000150 697.31 162.87 451.84 584.24 736.16 392.57 892.12 398.37 746.34 518.55 763.68 609.85 880.90 614.51
00003182 00000151 693.54 161.34 451.31 585.98 731.62 394.07 885.78 397.56 742.68 518.15 759.75 612.72 872.33 615.76
00003183 00000152 690.06 148.39 443.67 591.99 725.51 391.79 876.93 393.37 733.18 511.56 752.96 609.87 864.62 611.57
00003184 00000153 689.16 143.11 440.63 596.04 723.76 389.85 873.28 389.08 727.14 503.66 751.18 607.08 863.08 606.94
00003185 00000154 688.70 145.24 440.79 595.03 724.46 392.21 871.52 390.50 725.81 502.79 752.16 607.60 864.50 606.75
00003186 DELETE   694.08 147.12 436.64 598.71 729.18 401.03 868.32 398.17 723.74 501.30 756.25 608.95 861.85 607.00
00003187 DELETE   693.25 150.20 435.90 595.60 728.81 402.69 866.14 399.55 725.36 506.00 756.59 610.94 861.50 608.90
00003188 00000157 689.09 155.45 437.97 590.35 726.59 402.39 863.92 401.27 723.32 512.76 756.25 611.97 862.28 611.33
00003189 00000158 685.55 158.58 439.64 588.23 723.21 402.97 860.83 403.79 719.93 517.49 756.18 613.51 861.18 614.10
00003190 00000159 684.73 160.10 440.00 586.87 722.81 403.35 860.17 404.17 719.57 518.98 756.83 614.72 861.45 615.37
00003191 00000160 690.07 154.64 429.07 592.14 723.80 399.47 861.94 399.77 720.89 515.57 759.88 612.99 864.18 612.80
00003192 00000161 688.41 153.66 439.24 597.41 724.49 400.64 861.52 399.97 719.04 513.95 759.60 613.26 867.22 612.56
00003193 00000162 689.46 155.91 440.25 593.12 725.53 401.14 862.46 400.31 720.05 515.27 759.55 613.25 867.23 612.47
00003194 00000163 690.99 160.11 439.08 585.61 725.17 399.94 863.31 400.55 720.70 516.71 756.85 612.23 864.06 612.79
00003195 00000164 689.72 161.87 442.93 584.75 725.87 399.14 866.56 399.72 723.63 517.72 757.91 613.17 864.59 613.68
00003196 00000165 691.00 159.79 442.06 588.50 727.08 398.45 867.83 398.33 725.05 516.63 759.31 614.06 865.02 614.08
00003197 00000166 691.78 158.43 442.01 589.34 727.97 398.03 868.83 398.23 726.88 516.12 760.17 613.61 864.54 613.92
00003198 00000167 692.48 159.15 441.29 586.78 728.57 396.37 869.55 397.48 727.33 515.36 760.23 611.44 865.88 612.51
00003199 00000168 693.92 158.86 441.44 586.46 729.45 394.67 871.18 395.57 728.29 514.15 761.27 611.43 866.74 612.31
00003200 00000169 692.43 156.53 441.92 587.15 728.05 394.48 871.08 392.72 728.43 511.32 760.58 611.07 866.89 609.83
00003201 00000170 690.46 153.83 442.35 585.88 726.91 392.25 872.41 392.40 728.13 510.25 758.49 605.82 870.85 606.05
