Video ID: 	IwEC3DKJJsc
H: 	1080
W: 	1920
FPS: 	25.0

FRAME INDEX X0 Y0 W H [Landmarks (5 Points)]

00025826 00000000 863.31 106.63 400.00 541.53 976.92 325.30 1158.01 315.88 1079.39 405.25 1006.45 508.38 1162.68 500.22
00025827 00000001 869.58 105.15 394.74 530.63 982.16 325.18 1159.08 314.06 1083.32 400.79 1011.64 502.16 1164.62 492.77
00025828 00000002 870.34 107.15 395.08 529.31 980.03 323.31 1153.39 314.24 1076.21 399.08 1006.30 499.22 1156.25 491.62
00025829 00000003 871.01 107.70 392.40 530.78 971.22 323.70 1142.87 315.47 1059.09 404.60 996.00 501.24 1145.11 494.68
00025830 00000004 863.91 107.76 395.36 537.92 960.22 325.01 1130.65 319.23 1042.26 405.71 984.38 504.58 1130.82 500.24
00025831 00000005 859.01 107.78 397.09 542.05 951.17 323.92 1122.14 318.90 1029.89 407.13 974.23 504.76 1124.73 501.02
00025832 00000006 857.50 106.76 398.23 546.97 950.57 323.35 1122.50 318.14 1030.34 408.28 974.22 506.06 1126.46 502.01
00025833 00000007 859.79 104.75 398.16 549.55 955.90 327.16 1128.56 318.84 1042.24 409.82 984.53 509.99 1135.41 503.06
00025834 00000008 862.93 105.64 398.68 547.55 962.96 326.24 1136.84 316.33 1052.26 410.05 992.85 509.89 1144.52 501.39
00025835 00000009 865.33 105.13 398.83 549.05 967.31 326.52 1142.57 316.51 1059.53 413.15 996.95 511.90 1149.27 503.46
00025836 00000010 862.88 107.11 398.26 548.33 964.43 328.30 1138.30 319.84 1055.03 415.73 994.03 512.88 1144.28 505.79
00025837 00000011 857.77 105.05 398.69 554.79 954.05 330.29 1127.86 324.48 1039.58 419.52 983.79 515.17 1133.98 510.10
00025838 DELETE   845.48 110.97 395.79 541.59 938.96 330.04 1113.28 328.86 1018.72 421.32 965.02 512.17 1111.72 511.18
00025839 DELETE   843.18 115.91 385.53 517.81 910.98 335.55 1090.21 331.13 980.55 430.63 934.13 519.36 1080.31 515.45
00025840 DELETE   821.01 117.98 389.34 524.16 886.17 343.14 1057.01 331.71 940.35 436.69 908.60 524.01 1052.83 516.44
00025841 00000015 813.12 121.55 386.40 540.76 869.15 345.70 1029.69 333.08 908.36 428.75 885.36 525.12 1028.77 515.94
00025842 00000016 806.75 119.79 383.03 550.06 858.96 343.59 1012.91 333.40 891.80 427.80 877.46 531.38 1014.99 523.61
00025843 00000017 804.09 119.27 381.77 556.64 856.95 341.90 1009.18 330.46 892.63 429.44 880.71 532.31 1020.00 522.94
00025844 00000018 803.50 119.34 383.27 555.41 857.16 340.28 1010.35 327.35 894.23 427.83 881.96 531.18 1021.71 520.61
00025845 00000019 801.39 120.03 384.99 555.16 855.32 337.96 1009.10 325.15 892.61 426.61 880.18 528.85 1023.18 518.22
00025846 00000020 797.36 121.82 385.12 552.51 850.56 340.95 1004.02 326.85 888.21 428.03 878.18 530.16 1020.59 518.14
00025847 00000021 795.48 122.54 385.05 549.45 848.24 343.42 1000.41 328.59 884.46 428.86 877.11 529.18 1018.34 516.32
00025848 00000022 795.32 124.29 384.92 543.18 848.42 343.89 1002.90 331.33 886.46 429.96 875.61 527.06 1018.48 516.22
00025849 00000023 796.65 126.82 386.69 539.65 850.77 344.27 1007.57 331.29 890.51 429.42 877.78 527.35 1022.04 516.29
00025850 00000024 800.04 127.99 382.61 530.86 854.11 344.49 1012.11 331.00 895.69 429.61 880.13 526.03 1024.03 514.86
00025851 00000025 802.47 129.13 380.32 523.95 857.35 346.14 1015.63 332.61 899.50 428.51 881.09 524.16 1024.28 513.26
00025852 00000026 800.59 131.39 384.39 519.00 860.88 346.23 1020.50 335.54 906.00 427.32 883.40 522.34 1024.66 514.21
00025853 00000027 804.80 131.30 381.51 516.47 868.69 347.11 1032.07 332.25 921.84 426.47 889.74 521.91 1032.10 511.04
00025854 DELETE   807.54 126.67 384.98 518.42 878.10 344.77 1048.58 325.46 943.22 426.38 905.98 523.44 1052.00 508.95
00025855 DELETE   813.24 120.37 391.76 518.54 895.06 340.51 1062.78 326.63 964.87 426.04 922.74 515.10 1066.06 504.45
00025856 DELETE   818.44 111.43 394.86 523.42 906.35 337.15 1080.83 321.96 985.24 421.66 937.19 513.12 1085.05 500.94
00025857 00000031 823.71 108.00 398.97 524.78 917.78 335.53 1094.64 321.06 1000.70 420.18 949.23 512.21 1096.87 500.08
00025858 00000032 828.85 114.12 397.07 528.08 928.19 330.47 1103.57 326.02 1015.08 419.92 959.69 509.70 1100.67 506.19
00025859 00000033 824.70 117.22 399.18 528.61 925.48 333.30 1102.15 327.04 1013.43 425.71 959.63 515.09 1100.40 510.19
00025860 00000034 815.63 118.50 399.65 527.17 918.36 343.65 1091.45 329.40 1006.72 430.15 953.39 522.13 1095.45 510.49
00025861 00000035 810.67 122.22 397.82 528.71 916.61 349.40 1086.19 335.14 1006.75 431.29 952.82 526.41 1091.43 514.93
00025862 00000036 807.84 127.24 398.66 533.07 915.38 351.71 1082.99 338.41 1006.45 437.21 952.37 530.47 1089.36 519.69
00025863 00000037 805.09 131.14 398.39 530.20 913.41 356.01 1082.88 342.54 1006.35 443.35 950.49 534.02 1088.70 523.13
00025864 00000038 805.03 130.80 400.89 533.11 913.69 356.25 1083.06 343.06 1006.39 443.90 950.73 535.21 1087.91 524.38
00025865 00000039 806.86 130.05 399.27 530.65 914.59 355.06 1083.46 341.80 1006.23 442.14 952.39 534.14 1088.45 523.43
00025866 00000040 807.66 127.76 400.31 537.90 915.05 352.39 1084.93 338.62 1006.32 440.17 954.41 536.19 1090.63 524.94
00025867 00000041 808.19 126.55 401.54 538.03 913.34 352.23 1083.21 336.77 1002.71 439.17 953.83 535.66 1090.43 523.08
00025868 00000042 805.20 123.33 400.30 535.14 908.57 350.13 1078.66 336.58 995.95 435.38 946.69 530.47 1084.68 519.55
00025869 00000043 802.77 120.64 398.96 536.06 900.93 351.68 1067.04 340.05 981.55 438.42 934.75 526.87 1073.46 517.56
00025870 00000044 805.33 124.27 392.85 529.00 893.58 352.97 1060.86 341.26 968.07 439.35 926.93 527.77 1066.72 518.69
00025871 00000045 807.47 127.65 388.92 529.69 889.91 353.13 1054.45 344.13 956.49 443.25 918.97 528.44 1056.84 521.88
00025872 00000046 807.95 127.10 389.71 527.16 889.50 352.16 1055.57 344.34 954.67 442.42 917.01 527.09 1055.89 521.59
00025873 00000047 811.10 127.59 388.01 523.74 892.27 351.08 1059.14 343.59 956.51 440.85 917.68 526.01 1056.97 521.10
00025874 00000048 815.47 122.62 391.53 525.51 901.42 349.55 1072.65 344.05 968.98 441.53 926.66 528.37 1064.93 525.10
00025875 DELETE   832.93 115.25 397.57 543.59 927.24 343.96 1104.59 345.49 1004.13 434.21 951.58 529.98 1093.48 531.02
00025876 DELETE   853.01 114.17 395.62 559.05 955.03 342.58 1125.56 343.05 1033.45 430.19 977.24 529.32 1118.09 529.97
00025877 00000051 861.56 114.10 391.77 558.99 966.04 338.83 1135.45 341.71 1046.66 427.58 986.38 529.19 1125.94 532.11
00025878 00000052 861.73 111.20 390.37 560.37 957.62 339.11 1130.34 342.07 1035.27 427.67 977.94 528.32 1123.44 531.08
00025879 00000053 856.63 112.68 388.95 544.99 948.82 337.17 1119.54 340.02 1023.29 425.57 968.07 522.43 1109.29 525.32
00025880 00000054 852.13 112.88 389.21 539.78 944.76 333.20 1116.57 339.84 1016.48 422.25 959.63 516.95 1102.91 523.14
00025881 00000055 845.57 113.30 392.98 538.59 940.13 330.83 1115.25 337.54 1015.07 419.52 956.22 516.39 1101.20 522.42
00025882 00000056 841.99 111.76 393.07 540.74 937.16 329.40 1113.00 334.57 1014.08 418.80 955.78 516.78 1101.16 521.25
00025883 00000057 838.24 110.16 395.25 543.29 934.65 325.84 1112.16 330.21 1014.79 416.20 955.75 515.71 1102.11 519.42
00025884 00000058 834.58 110.64 396.73 539.43 932.60 324.20 1111.01 327.64 1015.63 414.94 957.00 514.65 1101.83 517.48
00025885 00000059 830.96 110.10 395.72 536.99 930.91 325.02 1110.40 327.12 1017.01 414.86 958.66 514.29 1103.98 515.93
00025886 00000060 827.34 110.16 397.55 536.52 929.01 328.03 1107.73 328.55 1016.31 416.11 958.03 515.94 1101.46 516.29
00025887 00000061 819.77 107.30 398.68 536.72 919.95 335.67 1100.87 324.92 1007.03 423.12 954.15 524.60 1097.73 515.61
00025888 00000062 817.49 112.11 395.75 538.06 916.43 339.91 1095.42 329.85 1002.13 425.98 950.52 527.50 1094.51 519.34
00025889 00000063 813.74 118.05 394.36 534.49 913.85 345.91 1087.59 335.04 997.81 428.72 948.02 527.40 1089.88 518.60
00025890 00000064 809.51 119.11 396.17 532.59 912.02 344.22 1085.09 333.66 997.59 428.07 946.74 526.49 1086.43 517.84
00025891 00000065 808.81 117.75 395.56 530.12 907.44 344.89 1082.34 331.78 993.98 425.90 942.86 525.54 1085.70 514.80
00025892 00000066 807.23 119.54 395.69 528.33 906.46 341.27 1080.26 328.69 994.68 425.36 941.73 524.23 1082.76 514.25
00025893 00000067 806.02 119.09 396.17 529.73 904.81 342.16 1079.21 329.71 992.85 425.70 940.45 525.07 1082.16 515.24
00025894 00000068 806.69 119.42 395.73 526.81 905.17 341.82 1079.54 329.23 993.66 426.22 941.71 525.51 1081.86 515.58
00025895 00000069 808.50 117.79 395.33 529.86 907.60 343.20 1082.24 330.95 995.24 425.16 943.47 525.72 1085.19 515.81
00025896 00000070 810.43 119.51 394.60 531.84 912.61 345.08 1084.18 333.61 997.29 426.38 946.60 525.87 1085.68 516.47
00025897 00000071 813.05 118.65 395.44 534.41 914.34 343.92 1088.28 332.34 999.27 426.69 948.41 527.38 1088.43 517.94
00025898 00000072 815.76 115.99 397.20 533.90 915.58 342.19 1093.44 332.42 1000.00 426.12 948.80 527.41 1091.42 519.46
00025899 00000073 818.29 115.25 397.86 534.55 917.70 340.72 1096.78 331.20 1002.13 424.83 950.49 527.58 1093.25 519.75
00025900 00000074 819.50 114.04 400.45 534.09 919.77 338.92 1100.89 329.61 1004.88 423.85 953.29 527.41 1096.30 519.44
00025901 00000075 825.72 117.93 399.12 532.63 924.91 333.52 1105.11 331.51 1009.99 420.48 957.51 522.07 1098.23 520.34
00025902 00000076 825.59 117.98 398.89 530.85 925.11 333.80 1105.48 331.13 1011.11 421.13 957.84 522.70 1099.61 520.32
00025903 00000077 826.01 117.91 398.07 529.43 925.64 334.11 1105.96 331.80 1011.97 421.41 956.90 521.82 1101.84 519.60
00025904 00000078 826.42 118.47 398.14 529.34 925.46 334.24 1106.56 333.80 1010.59 420.01 953.06 518.70 1103.28 517.86
00025905 00000079 826.72 119.83 397.16 527.73 925.83 333.70 1105.08 333.92 1009.95 420.62 952.86 515.57 1103.70 515.26
00025906 00000080 826.37 118.81 398.72 529.05 926.25 333.03 1105.68 332.05 1011.41 421.68 954.70 514.91 1104.49 513.72
00025907 00000081 826.04 117.17 401.30 537.09 926.81 331.80 1105.81 330.09 1013.14 421.38 958.92 517.18 1105.94 515.44
00025908 00000082 826.55 115.40 402.75 541.79 928.40 331.65 1106.57 330.09 1015.33 421.63 962.10 520.15 1104.92 518.57
00025909 00000083 828.60 115.70 398.63 538.26 929.68 330.80 1109.31 331.97 1016.13 421.63 959.62 520.64 1103.54 521.45
00025910 00000084 829.57 116.08 399.44 538.25 931.02 330.11 1109.87 332.24 1016.88 420.84 960.73 520.12 1103.04 521.67
00025911 00000085 829.98 115.91 399.03 535.70 931.59 330.98 1110.97 333.66 1017.07 422.02 959.84 519.82 1102.40 521.80
00025912 00000086 830.39 116.75 396.19 526.29 932.56 333.06 1110.51 335.35 1017.21 424.29 956.82 515.71 1101.19 517.51
00025913 00000087 822.54 109.90 396.84 528.39 923.98 336.27 1102.36 330.22 1008.65 424.62 948.75 516.53 1095.03 511.55
00025914 00000088 817.74 111.07 395.46 532.58 917.71 335.88 1093.36 329.92 1001.47 424.30 944.45 517.84 1088.21 513.12
00025915 00000089 814.71 111.84 394.60 534.09 912.99 337.74 1088.23 330.00 996.71 424.69 942.11 520.48 1086.06 514.39
00025916 00000090 814.96 110.56 395.17 535.42 911.86 336.88 1087.10 328.16 994.98 423.99 940.72 518.01 1086.95 511.09
00025917 00000091 815.61 109.54 395.27 534.51 912.05 336.80 1087.18 327.00 995.50 425.05 941.61 517.37 1087.70 509.59
00025918 00000092 817.26 109.23 396.80 534.68 915.64 336.22 1091.70 325.89 999.53 424.16 945.99 518.47 1090.58 509.98
00025919 00000093 826.05 114.02 397.05 530.03 924.93 332.60 1100.93 330.83 1008.68 423.27 953.47 513.08 1095.13 511.58
00025920 00000094 828.86 114.91 398.29 530.01 929.19 330.79 1104.82 330.96 1013.03 422.84 955.22 509.67 1100.08 509.68
00025921 00000095 833.31 114.19 396.97 529.47 934.48 330.17 1109.46 332.24 1018.12 422.50 958.28 509.25 1105.04 510.64
00025922 00000096 838.58 113.34 397.30 535.26 936.14 327.62 1114.43 329.00 1020.35 420.60 960.97 511.56 1110.63 512.43
00025923 00000097 842.78 112.45 396.92 533.20 940.02 327.84 1117.59 328.11 1025.16 420.21 966.48 511.87 1113.93 512.16
00025924 00000098 844.68 112.46 397.37 533.16 942.02 327.13 1119.04 327.57 1026.40 419.45 967.36 510.21 1113.97 510.71
00025925 00000099 847.33 112.34 394.69 528.79 944.62 326.92 1119.21 328.82 1027.28 419.51 967.69 508.82 1112.67 510.66
00025926 00000100 848.90 113.25 394.66 526.91 945.96 327.50 1119.18 329.29 1028.11 419.28 969.16 508.09 1112.26 509.96
00025927 00000101 849.85 113.69 393.61 524.75 946.95 327.91 1119.69 329.33 1029.26 418.91 970.06 508.32 1113.33 509.93
00025928 00000102 850.40 112.29 393.56 526.76 947.23 327.41 1120.17 328.72 1029.03 417.33 970.66 509.54 1111.76 511.19
00025929 00000103 849.59 110.53 395.36 536.49 945.94 325.74 1120.56 326.94 1028.68 417.29 970.46 511.18 1114.14 512.61
00025930 00000104 848.40 108.34 394.87 546.86 942.79 325.28 1119.40 324.92 1025.73 417.03 967.78 516.55 1115.81 516.62
00025931 00000105 846.40 108.92 396.19 542.84 941.12 326.26 1119.04 326.95 1024.17 418.19 965.67 516.37 1114.91 517.06
00025932 00000106 844.24 112.68 395.31 531.88 940.63 326.93 1118.82 328.85 1024.60 417.71 962.86 510.19 1114.00 511.80
00025933 00000107 842.13 113.67 394.34 528.74 939.49 327.40 1115.77 329.41 1022.18 417.78 959.64 508.54 1109.72 510.22
00025934 00000108 840.80 116.44 393.95 525.70 942.66 333.04 1112.77 335.14 1022.27 418.49 961.91 507.76 1107.52 509.66
00025935 00000109 839.86 115.72 392.60 521.91 941.76 333.00 1113.67 335.07 1022.33 419.93 960.30 508.01 1106.71 510.06
00025936 00000110 841.12 114.01 390.93 521.53 941.50 330.99 1114.56 334.29 1022.45 419.82 959.26 508.42 1105.31 511.43
00025937 00000111 840.01 113.20 392.01 522.82 939.57 328.93 1113.82 331.56 1021.32 419.43 958.65 507.53 1104.61 509.85
00025938 00000112 840.73 113.46 391.50 523.51 938.45 326.22 1113.84 329.08 1020.18 417.22 957.95 507.96 1103.76 510.63
00025939 00000113 842.79 114.48 389.60 518.20 939.61 326.74 1114.66 327.81 1021.23 416.00 959.19 508.58 1104.06 509.91
00025940 00000114 842.05 114.46 391.69 519.15 940.11 325.86 1115.39 327.43 1021.86 414.65 959.41 507.12 1104.28 508.88
00025941 00000115 843.88 114.53 390.44 516.11 941.38 326.00 1115.84 326.75 1022.97 415.09 960.16 505.63 1103.92 506.77
00025942 00000116 843.66 112.73 394.72 529.27 939.36 321.97 1115.23 323.95 1020.82 412.81 961.89 505.69 1105.22 507.81
00025943 00000117 843.57 110.51 395.09 533.34 938.29 322.22 1114.77 322.28 1020.86 412.45 964.18 509.35 1105.90 509.92
00025944 00000118 844.96 110.45 393.90 529.37 939.67 323.30 1117.03 323.66 1022.77 411.70 963.55 508.44 1108.80 509.20
00025945 00000119 844.23 109.90 396.72 532.41 939.11 321.38 1115.23 319.96 1022.55 409.97 965.68 508.42 1108.82 507.73
00025946 00000120 842.14 108.48 399.03 541.41 938.45 317.66 1115.39 315.19 1024.09 409.82 968.16 509.14 1111.94 507.30
00025947 00000121 843.23 109.25 397.86 536.99 940.24 319.56 1116.52 317.14 1025.45 411.11 967.45 507.61 1113.70 505.98
00025948 00000122 842.24 110.64 397.62 532.49 940.21 319.48 1115.56 317.92 1024.31 410.61 965.93 505.65 1110.74 504.81
00025949 00000123 840.76 109.90 397.52 531.85 939.01 318.09 1114.74 317.44 1023.10 409.71 964.90 504.40 1107.51 504.31
00025950 00000124 839.83 110.50 396.48 531.36 937.14 317.69 1113.47 317.51 1021.07 410.30 963.40 505.80 1106.00 506.14
00025951 00000125 839.86 111.17 393.96 526.82 937.49 319.76 1113.61 319.42 1021.73 414.80 963.08 506.45 1105.22 506.65
00025952 00000126 842.33 111.83 392.23 521.37 940.20 323.43 1115.17 322.88 1023.81 417.77 962.94 507.05 1106.52 507.05
00025953 00000127 845.09 111.55 394.55 526.53 943.08 323.76 1117.65 323.59 1026.69 419.73 967.26 510.20 1110.08 510.60
00025954 00000128 847.32 110.38 396.11 532.97 947.56 324.31 1121.54 325.61 1031.38 419.54 971.62 511.46 1114.18 513.07
00025955 00000129 852.46 107.75 394.45 543.53 951.47 322.47 1121.34 322.70 1033.07 417.41 976.69 512.10 1115.00 512.77
00025956 00000130 857.38 106.26 392.39 542.31 955.80 324.59 1123.09 323.39 1036.01 415.89 980.70 513.44 1115.73 513.26
00025957 00000131 857.67 105.99 392.93 541.33 956.38 321.02 1124.54 320.83 1037.23 411.58 980.52 511.73 1116.13 512.40
00025958 00000132 856.49 104.86 393.28 542.01 955.45 318.49 1124.24 318.80 1036.33 410.89 979.46 509.78 1114.88 510.88
00025959 00000133 852.31 105.82 394.56 536.97 951.82 319.05 1121.46 318.94 1033.53 410.68 976.97 510.16 1113.09 510.82
00025960 00000134 848.51 105.29 395.03 538.93 948.64 319.60 1120.22 319.48 1031.56 413.55 973.79 511.44 1111.27 512.15
00025961 00000135 846.01 108.33 392.52 532.93 946.60 323.93 1119.30 325.41 1030.18 422.43 971.05 514.88 1108.56 516.64
00025962 00000136 845.73 112.13 391.40 530.33 944.03 330.35 1116.01 331.58 1026.09 427.97 969.96 520.01 1105.79 521.42
00025963 00000137 845.63 116.89 390.23 527.83 945.06 335.55 1114.48 337.19 1025.40 431.24 970.49 522.08 1106.67 523.98
00025964 00000138 846.83 118.26 391.83 528.92 946.17 336.68 1116.27 339.16 1026.19 434.67 970.59 522.36 1108.96 524.80
00025965 00000139 849.96 118.09 390.56 533.26 947.65 336.93 1117.91 339.55 1027.38 434.92 971.95 521.61 1112.68 524.21
00025966 00000140 853.14 118.88 388.71 529.44 949.34 336.03 1118.64 338.52 1027.91 432.46 972.59 518.83 1111.97 521.52
00025967 00000141 853.15 115.98 389.42 531.85 948.67 333.41 1118.96 335.12 1028.04 429.95 972.68 517.93 1112.92 520.05
00025968 00000142 852.65 115.51 390.50 532.79 948.19 331.92 1117.50 333.01 1026.57 427.63 971.82 518.19 1110.65 519.93
00025969 00000143 853.44 115.74 388.02 533.24 947.26 330.71 1116.32 332.47 1024.43 427.66 970.50 518.09 1107.77 520.41
00025970 00000144 851.42 116.10 387.85 531.08 946.20 330.96 1115.14 332.99 1023.64 428.90 969.92 519.54 1105.59 522.16
00025971 00000145 850.83 117.07 386.76 528.54 946.29 332.62 1114.12 334.41 1024.19 429.56 971.45 520.40 1104.96 522.69
00025972 00000146 848.76 117.41 389.31 529.52 945.95 332.85 1115.32 334.72 1025.08 430.58 971.22 520.93 1105.99 523.22
00025973 00000147 848.56 117.40 389.42 528.55 946.72 334.29 1114.57 336.15 1025.76 432.53 972.57 521.58 1106.52 523.74
00025974 00000148 847.36 117.92 390.89 528.50 946.14 334.00 1114.87 335.91 1025.55 432.55 971.87 521.78 1106.36 523.95
00025975 00000149 847.41 118.46 389.63 525.60 946.37 334.23 1114.51 336.15 1025.47 431.86 971.88 521.43 1104.82 523.70
00025976 00000150 847.29 117.83 389.70 527.12 945.40 333.22 1115.19 335.33 1024.90 430.23 970.69 520.81 1105.37 523.22
00025977 00000151 845.40 116.33 391.64 530.89 944.29 334.16 1114.34 337.10 1023.33 429.12 968.06 519.55 1104.42 522.59
00025978 00000152 844.09 118.52 390.02 525.04 946.30 342.14 1112.70 344.87 1023.52 430.46 970.06 519.74 1101.91 522.57
00025979 00000153 846.24 117.92 387.75 524.89 946.57 340.25 1113.25 343.06 1023.27 430.51 969.48 519.93 1102.16 523.01
00025980 00000154 845.69 117.18 389.64 526.73 945.43 336.61 1114.99 339.79 1023.92 430.40 968.54 519.85 1104.02 523.21
00025981 00000155 844.13 117.76 391.63 525.05 944.03 335.80 1115.04 338.40 1023.89 430.14 968.35 520.23 1104.66 522.98
00025982 00000156 844.11 117.86 391.22 524.51 943.92 335.81 1114.45 338.27 1024.06 430.28 968.69 520.37 1104.35 523.00
00025983 00000157 844.09 117.72 391.35 525.41 943.32 335.87 1113.96 337.07 1023.84 430.22 969.50 521.54 1104.43 523.10
00025984 00000158 840.97 117.79 394.80 529.16 941.60 336.05 1112.70 337.70 1021.70 429.79 967.90 521.88 1101.53 523.81
00025985 00000159 834.56 119.45 398.71 528.60 937.50 343.25 1109.76 343.94 1015.95 428.55 963.35 521.73 1096.93 522.44
CROP_BBOX: 512 0 1410 868
