Video ID: 	xXkxMSk2j5U
H: 	1080
W: 	1920
FPS: 	25.0

FRAME INDEX X0 Y0 W H [Landmarks (5 Points)]

00001727 00000000 719.57 129.13 325.96 508.35 856.67 354.57 1001.79 352.77 956.02 462.23 858.52 524.59 978.05 525.19
00001728 00000001 714.72 123.71 327.18 517.09 849.07 353.56 996.82 352.47 948.47 461.39 852.60 524.87 973.07 525.75
00001729 00000002 713.39 123.19 324.72 518.69 839.78 349.60 999.17 357.44 941.05 464.05 846.28 525.73 970.58 533.57
00001730 00000003 707.63 129.02 326.00 507.99 837.59 353.07 987.54 355.25 937.13 465.81 839.46 526.48 959.52 529.57
00001731 DELETE   704.12 124.20 327.56 508.09 832.41 350.61 984.98 355.32 932.45 460.36 834.17 523.50 956.26 528.61
00001732 00000005 705.44 130.40 332.53 506.88 827.48 345.65 985.57 361.38 925.83 458.70 830.92 521.55 955.76 536.72
00001733 00000006 700.91 131.14 332.99 503.37 824.51 342.09 980.26 360.34 921.90 455.12 827.18 517.21 949.72 534.38
00001734 00000007 700.47 126.55 330.30 505.47 821.64 337.61 978.13 357.26 918.94 452.71 822.42 511.94 948.28 530.36
00001735 00000008 696.19 126.11 333.13 504.90 817.01 335.02 973.66 355.48 914.45 447.92 819.10 507.84 946.06 526.86
00001736 00000009 693.82 121.65 333.59 504.94 812.97 332.46 968.41 353.40 908.54 442.14 814.75 501.97 941.26 521.51
00001737 00000010 691.30 120.53 334.15 507.20 810.39 328.33 965.92 350.47 905.53 436.24 812.24 500.09 939.23 520.42
00001738 00000011 690.76 120.53 334.83 509.70 810.34 324.20 964.36 348.38 903.82 432.46 809.89 497.41 937.12 519.50
00001739 00000012 690.82 117.66 334.09 508.51 807.94 322.35 963.75 346.26 901.10 429.94 805.81 494.21 937.16 516.25
00001740 00000013 687.50 115.74 336.96 513.06 806.68 322.14 961.86 345.12 899.77 428.77 803.84 494.66 935.32 516.07
00001741 00000014 683.89 115.13 336.00 515.31 802.99 325.15 957.22 348.04 895.72 426.97 799.49 495.37 932.16 516.53
00001742 00000015 679.48 119.23 334.85 511.71 797.05 328.75 951.80 349.82 890.31 430.47 795.38 499.24 926.65 518.79
00001743 00000016 673.39 120.68 332.40 514.50 787.19 333.04 944.45 351.52 879.41 434.91 789.53 503.13 921.97 519.73
00001744 00000017 665.65 123.37 332.65 517.33 776.91 338.54 937.00 354.99 866.44 443.42 781.60 508.06 915.09 522.54
00001745 00000018 659.45 121.46 333.01 526.15 768.87 343.10 930.15 358.02 857.85 448.58 774.09 512.55 910.76 525.70
00001746 00000019 657.48 119.03 332.03 529.14 763.13 340.74 924.33 354.70 850.13 450.80 766.38 512.92 904.26 525.83
00001747 00000020 654.18 115.26 334.28 533.43 758.77 334.34 923.00 350.70 845.49 449.07 758.80 513.68 898.45 528.87
00001748 00000021 653.24 111.44 334.94 535.56 757.70 331.53 921.51 348.28 844.01 449.05 758.25 513.77 896.06 529.20
00001749 00000022 653.28 109.06 335.16 538.34 757.89 329.77 920.75 346.63 844.05 445.99 757.94 512.66 895.86 528.16
00001750 00000023 654.72 110.82 334.15 537.47 758.61 331.08 921.14 346.31 845.24 445.68 758.97 512.47 898.02 526.71
00001751 00000024 653.66 111.23 335.12 539.06 756.85 332.88 921.33 348.81 843.21 447.80 757.54 514.97 897.18 529.68
00001752 00000025 651.41 114.03 335.76 537.42 754.65 335.66 920.26 353.12 840.63 448.39 756.10 515.46 896.39 531.22
00001753 00000026 647.69 114.80 337.58 538.19 751.57 338.08 916.61 356.36 836.68 448.83 752.91 514.92 893.94 531.19
00001754 00000027 650.67 121.25 337.14 539.38 744.64 340.44 910.93 351.63 829.45 444.61 747.54 517.47 895.92 528.97
00001755 00000028 647.49 116.55 335.15 540.95 739.34 336.41 904.26 346.90 821.84 438.46 741.84 513.38 890.60 524.34
00001756 DELETE   645.71 112.72 333.66 533.03 733.80 330.23 901.49 339.65 814.51 432.21 735.79 508.71 883.95 519.46
00001757 00000030 646.30 110.53 330.64 533.99 729.27 323.39 896.94 330.43 807.25 424.39 732.22 503.76 882.62 512.38
00001758 00000031 641.07 107.18 330.16 537.26 721.16 317.11 886.31 321.79 797.39 413.96 726.65 499.45 874.76 506.25
00001759 00000032 632.98 98.75 336.43 532.46 707.68 314.55 875.18 316.54 782.47 412.34 712.75 493.79 863.64 498.46
00001760 00000033 624.43 99.92 340.58 523.15 698.80 306.38 860.09 305.68 770.08 403.35 705.48 486.04 849.53 487.66
00001761 00000034 621.60 100.07 339.10 519.05 693.05 304.42 853.59 303.21 762.05 398.46 700.45 481.97 845.43 483.34
00001762 00000035 623.31 100.57 334.88 523.20 690.35 301.73 849.33 298.54 756.69 396.46 698.96 482.43 840.39 482.12
00001763 00000036 626.59 97.04 332.47 530.14 690.15 300.22 849.64 296.16 754.66 393.68 699.11 484.30 839.32 483.45
00001764 00000037 628.05 96.29 331.26 528.48 690.63 298.64 851.23 293.89 756.87 389.97 700.51 484.82 839.09 484.08
00001765 00000038 629.14 95.58 331.10 525.61 692.40 297.20 853.91 291.94 760.72 389.54 703.80 484.28 842.19 483.00
00001766 00000039 630.41 96.72 331.05 525.04 695.03 295.27 855.25 289.53 763.79 384.02 705.55 482.63 843.60 480.99
00001767 00000040 633.01 96.68 327.86 522.23 697.95 289.51 855.88 283.74 765.29 379.90 710.52 480.92 842.51 479.26
00001768 00000041 635.28 95.96 324.77 522.79 699.65 286.26 856.11 281.16 765.16 378.21 711.37 478.03 842.25 477.17
00001769 00000042 635.47 95.04 319.08 510.09 698.41 282.65 858.58 283.88 762.80 374.55 706.11 468.51 845.23 470.33
00001770 00000043 639.68 95.85 318.65 509.77 702.72 282.10 864.53 283.17 768.77 371.26 710.38 466.22 850.62 468.10
00001771 00000044 639.73 89.76 324.35 516.56 709.50 278.29 869.31 280.94 777.33 371.18 717.17 461.01 857.26 464.41
00001772 00000045 639.30 90.61 330.19 515.01 713.89 277.96 871.96 281.76 784.24 371.12 726.02 461.25 857.86 464.66
00001773 00000046 640.63 92.34 329.65 510.91 715.48 279.30 873.73 283.01 787.43 370.81 728.07 461.83 858.66 464.99
00001774 00000047 641.03 97.43 330.79 509.46 717.72 279.51 875.09 282.90 790.94 372.05 732.00 463.42 859.93 466.50
00001775 00000048 641.55 100.38 331.69 513.37 720.76 280.50 877.64 285.69 793.28 375.28 731.27 464.83 862.98 469.92
00001776 00000049 641.74 102.01 331.26 516.91 720.77 285.39 877.48 289.72 794.12 380.57 731.89 470.01 861.33 474.88
00001777 00000050 641.55 103.01 329.36 517.13 719.13 289.36 876.24 292.99 792.39 384.58 729.80 474.25 860.47 478.59
00001778 00000051 640.76 97.14 328.82 513.94 714.93 288.31 872.49 293.27 787.17 386.23 723.59 471.90 856.83 476.96
00001779 00000052 639.71 94.87 328.67 508.74 710.33 284.46 867.75 288.81 779.86 382.62 719.54 466.17 852.95 470.69
00001780 00000053 641.46 87.96 328.67 516.46 710.31 283.08 869.20 285.62 779.87 380.59 719.88 464.47 857.39 467.27
00001781 00000054 649.91 92.67 315.07 490.23 711.44 283.77 872.14 287.56 780.40 379.91 721.71 468.70 857.73 471.75
00001782 00000055 651.59 92.49 319.44 501.21 714.10 282.58 875.31 286.48 783.24 376.71 724.06 468.45 860.80 471.74
00001783 00000056 652.33 88.87 328.18 503.40 720.05 280.84 883.02 285.12 788.62 376.62 726.88 465.17 868.63 469.65
00001784 00000057 656.96 94.78 329.20 499.02 725.12 281.79 888.71 286.34 794.84 377.82 731.74 466.91 873.31 471.97
00001785 00000058 664.73 102.85 320.36 490.21 731.25 285.47 890.00 289.94 796.17 384.13 737.73 471.87 872.71 475.78
00001786 00000059 667.40 101.80 321.26 494.64 733.74 287.34 894.90 292.22 799.42 385.56 740.58 472.53 876.41 477.03
00001787 00000060 666.25 101.38 323.24 483.82 734.19 290.39 896.13 296.07 801.70 390.05 740.13 474.50 878.36 479.17
00001788 00000061 666.21 101.23 324.62 486.68 734.55 290.35 896.63 296.88 801.51 390.39 740.71 474.19 877.67 479.54
00001789 00000062 666.30 100.02 326.41 495.23 734.29 290.69 898.18 297.70 801.96 390.20 740.58 476.28 876.83 482.32
00001790 00000063 667.01 100.13 329.35 506.88 735.50 291.13 900.37 298.80 803.79 388.97 741.55 478.45 877.33 485.40
00001791 00000064 671.07 100.30 330.37 522.07 742.54 294.35 901.34 304.54 803.86 393.18 744.61 474.17 880.51 485.13
00001792 00000065 673.17 98.92 329.25 526.80 745.00 295.26 901.47 306.24 806.21 391.88 747.11 473.36 881.98 484.77
00001793 00000066 674.15 97.48 327.89 527.75 746.03 294.32 902.84 305.57 808.17 390.56 747.54 472.61 883.01 484.18
00001794 00000067 676.62 100.26 327.22 525.56 748.65 292.90 905.93 304.67 811.55 391.62 749.72 473.06 886.30 485.11
00001795 00000068 680.54 100.77 325.23 522.40 754.52 297.52 910.95 308.65 818.51 395.23 755.33 472.14 893.72 483.60
00001796 00000069 676.12 99.66 324.38 518.44 751.54 293.73 914.01 302.60 821.78 388.14 750.68 472.74 893.38 481.62
00001797 00000070 684.85 101.21 324.62 521.66 759.89 292.75 917.64 305.24 822.68 391.25 758.76 469.88 898.05 482.46
00001798 00000071 683.37 101.92 326.45 521.31 758.73 291.09 917.61 304.66 821.38 390.03 756.77 468.04 897.50 481.43
00001799 00000072 680.63 104.68 327.70 517.71 755.85 288.95 915.29 303.02 817.38 388.38 753.17 466.88 892.38 480.95
00001800 00000073 677.26 105.14 328.15 516.96 752.08 285.61 911.68 300.25 813.72 386.25 750.48 466.49 888.20 481.05
00001801 00000074 672.41 105.81 331.25 517.98 745.66 280.99 906.60 294.80 809.13 383.21 745.20 465.47 883.23 479.28
00001802 00000075 669.84 102.22 331.18 524.57 738.94 280.34 901.52 291.61 803.15 382.20 740.96 467.29 880.32 478.89
00001803 00000076 664.78 101.50 331.63 529.44 734.47 277.19 896.22 289.14 798.15 380.50 737.67 466.92 875.60 478.72
00001804 00000077 658.10 101.89 331.85 524.79 727.77 277.13 890.45 289.24 794.17 378.38 734.67 465.85 870.97 477.44
00001805 00000078 655.40 96.83 329.57 510.22 721.97 282.50 887.31 289.21 788.62 371.97 728.34 468.12 868.72 474.06
00001806 00000079 654.74 95.87 328.73 512.82 720.78 280.72 885.40 287.50 784.83 370.42 726.44 467.20 866.40 473.09
00001807 00000080 655.32 95.96 328.39 512.76 720.21 281.00 885.32 287.39 785.19 370.15 725.61 467.84 867.56 473.48
00001808 00000081 658.44 94.29 329.72 516.77 722.72 280.07 888.48 285.51 788.72 368.69 730.62 468.48 870.08 473.44
00001809 00000082 663.44 99.53 330.39 520.82 728.50 277.27 890.11 287.76 789.43 374.15 731.96 458.25 871.42 469.01
00001810 00000083 663.06 98.15 330.57 520.86 728.04 277.93 889.85 288.11 789.51 374.09 731.88 458.29 870.93 468.82
00001811 00000084 660.50 89.25 328.94 520.63 723.78 278.80 888.97 283.36 790.02 367.97 732.59 468.36 871.36 472.61
00001812 00000085 661.01 88.11 328.07 521.51 724.21 277.70 888.93 282.64 790.33 367.39 732.58 467.80 870.65 472.44
00001813 00000086 663.52 87.74 326.83 520.83 727.31 276.86 890.91 281.60 793.24 368.27 735.79 466.27 873.28 470.67
00001814 00000087 669.93 88.78 327.89 519.17 738.23 278.14 896.00 281.81 801.01 370.58 740.58 459.46 880.33 464.33
00001815 00000088 671.87 90.47 328.58 520.93 742.14 278.39 901.74 282.36 806.40 370.00 744.47 460.94 885.10 466.21
00001816 00000089 673.10 90.21 331.70 518.46 745.79 281.13 906.17 287.45 814.32 372.51 750.68 463.36 885.28 469.34
00001817 00000090 681.40 99.16 325.00 519.96 750.77 286.33 908.27 292.25 812.43 379.44 753.46 463.10 890.63 471.10
00001818 00000091 680.71 99.54 326.40 521.91 752.60 287.65 910.64 296.96 814.22 382.31 752.79 463.80 892.68 473.96
00001819 00000092 681.84 101.66 325.77 519.68 756.45 292.20 914.52 302.38 819.55 383.09 753.38 463.22 898.41 474.50
00001820 00000093 685.52 104.07 324.94 522.56 762.76 296.39 921.80 306.53 827.13 385.43 756.74 466.66 907.65 477.87
00001821 00000094 680.43 98.54 330.94 517.67 763.58 293.37 924.22 301.12 837.04 380.54 760.36 468.30 912.42 474.85
00001822 00000095 694.37 93.34 324.14 527.97 771.30 295.92 932.51 302.13 839.85 382.94 768.33 468.02 922.94 476.73
00001823 00000096 698.09 90.79 324.49 528.35 777.15 294.37 938.10 301.91 847.08 382.97 773.03 467.06 925.98 476.51
00001824 00000097 698.75 89.92 326.27 528.73 780.35 291.68 940.68 303.66 849.69 383.50 774.16 465.79 924.95 478.70
00001825 00000098 699.60 91.00 326.29 529.40 782.21 291.60 942.36 304.74 851.58 384.01 775.37 466.66 925.34 480.42
00001826 00000099 702.51 90.40 327.02 531.39 785.78 291.66 944.65 305.59 856.41 385.86 779.46 467.10 928.18 481.35
00001827 00000100 703.66 88.17 328.52 533.27 787.85 291.58 946.46 305.37 859.57 385.96 783.60 468.11 929.86 481.90
00001828 00000101 705.03 86.22 329.24 535.56 789.19 291.32 949.64 305.07 862.66 386.38 786.55 471.10 932.01 484.85
00001829 00000102 705.54 86.86 328.78 532.65 789.13 292.95 950.18 306.33 863.62 388.87 787.63 473.51 931.58 487.46
00001830 00000103 705.42 85.34 329.27 535.94 789.22 293.83 950.50 306.87 864.21 392.15 788.50 476.73 931.63 490.13
00001831 00000104 702.56 86.18 330.46 538.50 786.99 295.44 947.71 308.36 862.38 394.37 785.70 477.47 930.61 490.55
00001832 00000105 700.09 87.82 330.08 537.15 785.54 297.23 944.75 310.66 859.28 396.16 782.88 478.77 925.46 492.30
00001833 00000106 700.36 89.39 330.17 534.17 785.26 298.23 946.17 311.66 860.03 397.64 783.78 479.92 926.47 493.43
00001834 00000107 703.19 90.84 331.55 533.66 786.87 299.65 948.58 312.78 862.65 398.72 787.45 481.92 929.42 495.39
00001835 00000108 704.99 89.01 330.43 531.90 789.18 300.33 949.90 313.84 865.61 400.20 790.92 482.05 930.36 495.84
00001836 00000109 705.62 91.27 329.83 531.98 790.71 301.62 951.26 316.49 866.42 402.08 791.82 483.11 930.74 498.10
00001837 00000110 704.53 96.35 332.55 534.12 791.64 305.01 951.71 319.09 867.62 404.28 791.91 486.43 931.37 500.82
00001838 00000111 701.36 96.69 334.02 536.33 788.85 307.80 950.84 321.83 865.63 407.00 788.87 489.24 930.51 503.48
00001839 00000112 698.96 95.63 334.04 537.05 785.72 308.58 949.04 322.39 863.14 407.02 785.27 489.13 930.01 503.29
00001840 00000113 697.70 95.76 334.03 537.44 784.10 309.67 946.83 323.27 861.59 407.06 783.37 489.31 929.04 503.33
00001841 00000114 697.50 96.29 334.39 536.29 783.25 309.59 946.21 322.46 860.31 406.99 783.30 489.88 928.65 503.32
00001842 00000115 697.40 96.59 333.80 536.26 782.79 310.60 945.35 323.25 859.68 407.34 782.57 489.77 928.58 503.12
00001843 00000116 697.16 96.55 332.61 535.07 783.23 309.84 944.31 322.90 860.00 406.81 782.89 487.08 928.93 500.46
00001844 00000117 697.25 97.04 329.74 534.84 781.28 310.09 941.92 322.63 857.42 407.74 781.60 488.17 926.43 501.26
00001845 00000118 696.40 97.43 327.38 532.72 780.53 307.76 939.36 320.89 854.70 406.12 780.44 485.64 922.41 498.88
00001846 00000119 695.57 96.55 325.57 527.21 777.95 306.10 936.18 318.14 849.74 403.44 778.97 483.62 918.51 495.76
00001847 00000120 694.65 98.41 323.32 530.15 775.82 305.44 929.59 318.07 841.40 399.01 774.31 481.25 911.11 493.96
00001848 00000121 692.35 100.88 320.76 525.95 770.98 301.27 925.20 313.14 834.03 396.16 769.01 478.71 904.85 490.88
00001849 00000122 687.24 101.76 323.89 522.94 764.45 299.51 921.49 309.84 828.58 392.88 765.17 478.04 902.84 488.85
00001850 00000123 683.30 99.95 325.65 520.23 759.55 295.78 918.95 306.09 826.04 393.36 762.33 475.74 898.31 486.65
00001851 00000124 681.70 100.14 326.25 521.15 756.67 294.68 914.80 304.23 822.52 393.08 760.81 475.12 894.19 485.45
00001852 00000125 680.20 99.69 326.86 521.12 753.73 293.61 911.62 302.67 818.23 391.52 759.34 474.05 890.96 483.99
00001853 00000126 677.96 98.71 326.03 517.86 748.49 292.77 905.80 300.37 813.38 389.37 754.81 468.80 888.53 477.71
00001854 00000127 676.85 96.87 327.47 521.10 746.68 288.12 903.56 297.24 810.56 387.28 751.23 465.81 885.20 475.82
00001855 00000128 672.23 96.77 328.46 520.65 741.94 283.16 899.11 293.23 806.73 385.46 747.48 465.53 878.35 476.23
00001856 00000129 667.01 96.51 324.84 512.90 734.43 285.36 896.14 291.90 802.19 378.83 740.21 468.11 874.27 475.09
00001857 00000130 666.64 98.33 324.71 510.25 734.06 284.81 896.16 291.07 801.06 378.15 739.73 467.88 874.32 474.49
00001858 00000131 672.74 98.33 329.43 517.99 741.81 281.61 899.29 290.83 806.94 384.16 746.63 464.15 878.24 474.56
00001859 00000132 677.31 99.27 328.31 515.99 745.60 283.33 903.32 291.42 810.04 384.81 749.97 464.78 882.60 474.37
00001860 00000133 673.40 97.11 325.64 514.37 741.06 285.68 905.36 291.23 810.13 379.16 746.50 470.43 882.59 476.75
00001861 00000134 677.25 102.91 327.87 516.02 745.07 284.15 904.82 291.91 809.80 386.07 749.09 467.76 883.04 477.05
00001862 00000135 673.14 103.93 328.47 516.59 739.88 283.56 900.03 292.23 804.23 385.53 745.02 467.71 878.86 477.58
00001863 00000136 670.87 102.79 328.52 517.99 737.44 282.57 896.20 292.19 801.95 385.35 743.69 468.00 875.99 478.55
00001864 00000137 671.14 103.34 327.46 518.24 736.45 281.05 895.22 290.02 800.55 384.25 743.43 467.85 875.78 477.79
00001865 00000138 667.45 102.62 325.31 512.13 733.02 286.24 897.05 291.11 801.14 380.07 739.19 473.34 875.65 478.70
00001866 00000139 671.30 103.50 328.65 517.56 737.19 282.21 895.99 291.23 800.86 384.00 743.56 466.89 876.65 476.92
00001867 00000140 670.74 103.62 328.71 519.67 736.83 286.03 898.93 293.65 801.44 385.41 743.89 470.76 879.69 479.55
00001868 00000141 671.25 104.34 329.99 524.88 739.42 291.23 900.75 299.67 802.41 389.74 745.37 475.26 882.97 484.42
00001869 00000142 671.49 105.37 330.77 527.21 740.23 294.81 902.97 303.23 802.93 392.09 744.62 478.12 885.96 487.14
00001870 00000143 671.38 105.46 331.14 529.14 741.34 297.35 903.78 305.84 803.92 394.44 744.96 480.34 888.43 489.44
00001871 00000144 671.67 106.34 331.75 525.87 742.26 297.14 903.97 305.65 805.79 392.72 744.80 476.33 889.80 485.37
00001872 00000145 675.67 106.04 329.17 518.32 746.20 294.00 907.60 302.89 810.75 391.79 750.09 471.76 891.49 481.57
00001873 00000146 672.24 101.16 329.06 512.62 747.91 293.11 906.92 299.03 817.50 389.53 748.93 471.91 891.22 478.27
00001874 00000147 674.01 103.25 328.95 508.67 751.30 292.78 910.37 299.04 821.45 390.39 751.48 471.55 894.17 478.14
00001875 00000148 673.15 102.79 331.05 510.07 752.04 293.72 911.50 300.34 822.85 391.29 752.28 471.82 894.80 478.81
00001876 00000149 673.92 103.62 330.44 510.31 753.05 294.99 912.28 301.73 824.39 391.37 752.84 472.38 895.26 479.55
00001877 00000150 675.08 104.65 331.40 510.78 754.14 295.17 913.97 302.45 825.23 391.79 753.00 472.39 897.82 480.05
00001878 00000151 675.29 102.36 331.81 515.39 754.48 294.90 914.57 303.18 825.76 391.60 751.92 472.83 897.81 481.43
00001879 00000152 682.43 108.54 327.84 517.55 757.45 293.95 918.57 304.48 821.83 392.61 754.81 472.91 897.95 484.38
00001880 00000153 684.29 106.77 325.53 529.09 757.38 294.05 919.84 304.79 819.39 393.55 754.12 477.76 899.92 489.04
00001881 00000154 684.90 109.72 324.88 523.91 756.73 293.85 918.64 302.84 817.80 391.97 754.29 477.35 898.39 487.56
00001882 00000155 686.71 101.40 322.20 531.41 757.36 297.41 915.77 305.22 818.40 391.75 755.95 475.67 899.91 484.57
00001883 00000156 685.98 100.38 322.36 532.38 756.77 299.82 915.68 307.72 817.01 389.02 755.55 475.85 901.14 484.49
00001884 00000157 685.40 100.82 323.74 526.83 756.75 298.96 916.04 306.76 819.42 391.31 756.60 474.62 900.45 483.43
CROP_BBOX: 440 0 1289 800
