Video ID: 	q91eZF9_ggI
H: 	1080
W: 	1920
FPS: 	25.0

FRAME INDEX X0 Y0 W H [Landmarks (5 Points)]

00009479 00000000 1062.57 224.39 530.65 661.78 1116.66 508.55 1312.61 470.44 1158.53 615.50 1179.68 742.58 1319.31 713.61
00009480 00000001 1056.10 230.19 533.03 672.29 1113.31 512.56 1301.57 476.78 1151.51 621.14 1180.63 747.77 1315.59 719.87
00009481 00000002 1051.03 241.68 528.00 663.75 1109.14 523.81 1294.52 486.41 1150.97 629.78 1181.16 749.56 1325.19 719.33
00009482 00000003 1050.11 250.39 520.40 645.96 1105.60 530.65 1293.27 489.11 1152.24 632.31 1179.24 751.19 1327.20 717.70
00009483 00000004 1047.72 253.11 522.41 641.21 1103.13 532.49 1294.61 490.30 1153.18 635.14 1177.30 751.75 1327.83 717.77
00009484 00000005 1046.98 242.39 533.91 653.30 1103.23 532.60 1295.55 489.20 1153.08 650.92 1182.47 759.09 1339.14 720.64
00009485 00000006 1042.02 249.49 538.92 650.77 1102.36 538.49 1300.71 493.77 1159.54 657.79 1183.76 764.00 1345.64 724.30
00009486 00000007 1037.64 258.07 541.07 646.02 1102.88 542.05 1305.47 496.15 1167.71 660.85 1187.20 768.43 1349.78 727.87
00009487 00000008 1036.57 260.38 541.82 644.77 1101.16 546.51 1305.54 497.08 1168.87 661.12 1186.69 772.34 1349.36 728.81
00009488 00000009 1034.28 260.38 540.56 643.42 1098.83 547.56 1303.10 495.60 1167.79 660.57 1185.15 771.26 1350.06 725.38
00009489 00000010 1032.76 256.16 540.83 648.35 1097.89 545.79 1301.39 492.64 1165.62 657.62 1184.24 768.03 1352.66 720.91
00009490 00000011 1032.76 242.38 541.85 663.97 1098.96 542.38 1298.29 485.42 1161.87 647.61 1184.26 767.46 1352.89 717.25
00009491 00000012 1039.11 218.60 540.29 676.86 1104.11 525.32 1301.26 467.04 1163.00 623.41 1182.52 753.79 1349.06 703.68
00009492 00000013 1038.26 197.82 547.56 679.23 1109.00 507.75 1305.24 446.58 1169.47 595.35 1182.53 735.21 1344.80 683.70
00009493 DELETE   1041.02 184.91 542.80 666.92 1106.40 493.85 1307.50 425.57 1172.23 566.42 1182.66 714.01 1343.37 658.15
00009494 DELETE   1054.88 172.56 532.80 657.02 1114.66 478.29 1310.48 407.27 1169.14 540.77 1185.87 696.48 1342.94 636.16
00009495 DELETE   1062.53 152.74 534.90 665.45 1120.09 469.93 1313.44 395.38 1169.82 526.81 1186.04 686.87 1342.85 624.76
00009496 00000017 1066.48 141.77 534.58 672.89 1127.43 457.78 1323.86 390.05 1178.54 518.05 1187.79 675.92 1342.16 620.57
00009497 00000018 1071.47 160.24 528.05 654.26 1127.67 457.52 1325.50 394.72 1174.23 518.17 1189.09 675.40 1334.04 626.46
00009498 00000019 1075.31 163.84 526.65 657.85 1131.26 463.66 1328.00 400.79 1180.52 528.96 1196.56 683.68 1338.77 634.37
00009499 00000020 1076.78 179.30 527.80 658.95 1136.98 479.29 1335.18 416.29 1193.48 545.29 1204.39 695.76 1354.49 645.07
00009500 DELETE   1075.87 181.51 536.63 674.06 1145.61 490.81 1337.13 425.56 1202.90 566.33 1224.13 719.52 1365.82 664.37
00009501 DELETE   1073.88 196.57 538.98 690.03 1150.07 512.15 1342.50 447.72 1208.50 586.38 1225.47 737.79 1376.18 682.99
00009502 DELETE   1081.73 197.08 534.68 685.58 1147.82 519.96 1337.57 454.91 1201.46 602.55 1221.88 742.31 1378.41 687.81
00009503 00000024 1081.61 201.44 534.89 684.21 1146.41 514.08 1340.64 451.80 1203.47 606.80 1222.96 745.18 1382.82 692.38
00009504 00000025 1080.73 199.49 537.80 691.34 1151.41 509.15 1345.54 445.28 1210.38 597.94 1228.98 741.71 1387.66 687.28
00009505 00000026 1081.42 190.60 542.83 693.41 1156.25 508.59 1348.06 434.94 1211.81 577.93 1233.55 733.32 1392.89 670.12
00009506 DELETE   1076.33 187.95 546.27 684.89 1151.39 496.82 1355.88 421.59 1227.35 565.49 1231.94 726.22 1401.03 664.38
00009507 00000028 1080.34 169.05 543.68 691.24 1151.78 494.14 1353.52 403.73 1220.60 541.91 1237.17 717.38 1407.05 640.34
00009508 00000029 1082.83 163.92 548.56 686.08 1155.24 482.98 1360.88 390.90 1227.05 526.59 1238.85 711.12 1409.35 633.51
00009509 00000030 1083.69 161.67 549.95 681.57 1158.36 478.28 1365.20 386.76 1231.98 520.28 1240.94 705.64 1411.43 628.79
00009510 00000031 1084.80 158.53 552.45 673.27 1157.91 476.34 1368.54 391.79 1234.27 526.34 1236.67 701.76 1404.73 631.22
00009511 00000032 1086.52 171.86 549.43 658.73 1155.95 484.33 1372.97 404.99 1238.56 542.11 1234.44 704.45 1404.60 638.38
00009512 DELETE   1087.68 182.18 548.98 656.16 1158.74 492.12 1375.42 418.76 1240.98 561.23 1239.19 713.94 1404.99 652.55
00009513 DELETE   1088.47 193.72 545.45 651.73 1161.52 514.21 1372.85 436.29 1240.89 569.62 1243.69 725.12 1405.64 659.84
00009514 00000035 1087.19 203.76 544.87 655.70 1161.61 520.01 1372.50 447.19 1236.52 582.30 1238.02 735.00 1403.22 673.71
00009515 00000036 1092.81 208.87 534.24 661.89 1163.25 518.28 1359.33 454.28 1224.55 595.69 1237.88 734.76 1396.20 679.87
00009516 00000037 1084.30 209.13 545.54 651.92 1157.94 507.06 1360.86 449.45 1229.01 595.35 1231.05 728.86 1398.93 681.30
00009517 00000038 1086.15 210.80 546.17 640.61 1158.45 504.94 1369.74 442.21 1227.05 585.79 1234.48 725.76 1402.77 671.73
00009518 00000039 1091.48 205.15 541.48 629.44 1159.82 494.59 1371.51 433.11 1230.16 578.75 1235.67 713.61 1404.43 660.43
00009519 00000040 1096.46 191.87 534.66 637.49 1161.86 483.25 1372.37 426.93 1230.76 570.03 1231.84 701.95 1399.00 653.52
00009520 00000041 1098.63 191.19 533.10 635.10 1163.19 478.40 1377.28 423.25 1234.07 561.97 1230.56 697.08 1398.18 650.29
00009521 00000042 1101.86 188.25 532.38 638.72 1165.96 477.94 1378.55 422.85 1235.29 559.82 1233.08 696.74 1398.13 650.16
00009522 00000043 1104.24 188.01 533.22 647.83 1169.22 480.50 1380.49 423.10 1236.65 560.99 1238.55 704.79 1400.74 656.19
00009523 00000044 1105.24 190.72 535.38 649.96 1168.62 486.33 1382.51 426.04 1236.95 566.06 1241.03 712.94 1408.47 661.33
00009524 00000045 1105.33 196.01 535.71 641.10 1169.52 487.81 1384.00 428.94 1240.82 572.87 1244.54 712.91 1412.48 662.25
00009525 00000046 1105.40 201.77 536.28 632.19 1169.16 488.83 1385.46 431.04 1243.23 581.04 1245.64 712.54 1414.97 662.59
00009526 00000047 1103.32 202.55 536.46 634.97 1170.93 503.70 1385.72 439.89 1247.17 584.11 1249.15 721.59 1418.41 666.62
00009527 00000048 1103.69 206.02 538.46 634.48 1174.71 514.19 1388.30 447.53 1250.93 582.65 1251.01 726.06 1418.24 669.03
00009528 00000049 1102.51 206.53 542.33 640.08 1172.47 515.83 1387.04 445.54 1248.54 583.41 1251.45 730.84 1422.02 670.61
00009529 00000050 1100.33 203.17 545.92 651.42 1174.83 503.18 1383.41 438.44 1247.97 579.53 1257.59 729.84 1416.34 674.78
00009530 00000051 1101.17 196.01 541.67 670.18 1176.10 490.40 1381.30 426.10 1250.14 568.62 1253.63 723.01 1412.92 670.02
00009531 00000052 1100.50 194.67 541.84 671.02 1173.79 488.90 1379.60 421.73 1247.55 562.70 1252.26 720.00 1416.64 664.63
00009532 00000053 1099.52 193.29 541.63 669.05 1169.72 487.46 1376.70 418.87 1244.35 557.77 1248.68 716.20 1414.73 659.82
00009533 00000054 1100.57 189.45 541.97 659.62 1167.98 489.66 1377.82 417.45 1238.97 556.43 1247.78 716.69 1411.66 655.51
00009534 00000055 1099.36 188.21 542.16 655.71 1165.13 489.20 1375.66 418.87 1235.46 560.58 1244.38 716.28 1408.04 656.66
00009535 00000056 1093.81 188.99 543.66 653.80 1160.85 489.85 1371.35 421.01 1230.09 563.39 1240.28 717.77 1403.36 659.30
00009536 00000057 1086.36 196.10 545.66 646.85 1157.29 493.19 1365.41 425.41 1225.72 570.22 1237.21 718.94 1396.84 661.44
00009537 00000058 1087.27 200.97 542.47 649.58 1159.39 496.85 1355.37 437.55 1221.19 580.76 1237.01 716.35 1385.89 665.65
00009538 00000059 1078.28 206.38 542.99 645.51 1151.00 501.80 1349.29 439.61 1216.27 587.09 1231.85 722.52 1382.91 669.32
00009539 00000060 1067.68 210.78 548.29 642.50 1143.93 501.29 1344.96 439.29 1212.86 588.46 1226.15 724.13 1378.67 671.06
00009540 00000061 1057.41 209.44 552.40 642.66 1137.00 499.96 1338.82 435.91 1210.58 586.81 1222.06 721.58 1377.53 666.69
00009541 00000062 1051.56 203.72 553.25 642.14 1130.34 497.68 1335.61 431.12 1208.45 579.52 1216.99 718.43 1372.42 661.60
00009542 00000063 1050.90 200.43 547.75 637.92 1127.70 499.92 1332.81 431.31 1206.23 572.30 1211.56 713.32 1368.50 654.92
00009543 00000064 1047.13 199.62 545.81 638.47 1125.73 502.19 1331.64 433.91 1203.08 565.18 1204.41 711.94 1363.04 653.98
00009544 00000065 1042.51 199.76 550.10 637.32 1119.10 500.76 1324.98 429.17 1195.47 567.68 1201.83 713.14 1360.14 652.47
00009545 00000066 1038.84 198.85 549.98 639.31 1112.45 491.17 1318.49 424.96 1187.78 569.41 1196.98 710.39 1352.53 654.20
00009546 00000067 1036.93 196.15 549.13 644.67 1107.71 488.87 1315.74 422.84 1182.85 571.84 1194.00 713.63 1348.11 657.98
00009547 00000068 1032.50 195.89 550.98 648.08 1105.20 490.29 1314.38 424.17 1180.65 572.55 1191.42 717.19 1343.47 661.85
00009548 00000069 1027.56 199.72 554.13 650.43 1103.66 494.68 1311.58 426.41 1179.07 573.51 1192.11 722.72 1341.71 665.70
00009549 00000070 1020.36 197.20 556.60 676.08 1102.78 498.38 1311.15 429.63 1179.30 569.98 1185.20 732.73 1333.74 676.37
00009550 00000071 1016.01 202.19 561.51 680.56 1098.76 507.14 1306.65 436.42 1175.33 578.38 1183.30 742.08 1335.22 683.70
00009551 00000072 1015.25 206.92 561.77 681.17 1098.88 510.87 1304.12 439.69 1174.41 583.36 1184.05 744.38 1339.69 685.17
00009552 00000073 1016.66 206.65 559.86 680.31 1099.11 510.74 1303.81 438.47 1174.94 582.90 1183.71 742.50 1344.44 682.30
00009553 00000074 1021.43 199.83 558.58 676.20 1099.66 503.79 1307.77 430.88 1177.33 576.96 1185.76 733.39 1350.36 672.53
00009554 00000075 1027.70 195.21 557.84 672.34 1102.46 499.18 1312.12 422.01 1179.33 565.02 1189.00 726.22 1354.96 661.78
00009555 00000076 1031.04 191.96 554.42 668.72 1105.89 493.37 1314.33 417.79 1181.74 560.71 1191.61 719.96 1354.93 657.05
00009556 00000077 1034.01 193.34 553.40 661.43 1106.49 489.57 1316.48 414.23 1181.60 559.58 1195.46 719.59 1354.17 655.78
00009557 00000078 1037.32 190.11 552.36 670.19 1112.45 491.06 1319.83 416.98 1187.09 560.38 1196.05 718.83 1357.49 657.08
00009558 00000079 1036.00 195.64 556.10 671.94 1111.54 498.46 1318.81 424.45 1185.74 569.99 1196.17 726.25 1358.56 664.26
00009559 00000080 1036.63 196.81 556.30 675.48 1112.45 503.12 1317.57 430.90 1184.60 578.20 1195.80 729.42 1361.16 668.62
00009560 00000081 1039.40 202.17 554.95 677.57 1115.28 511.50 1318.87 439.15 1185.84 583.24 1196.87 738.66 1359.19 677.88
00009561 00000082 1038.08 209.03 556.47 653.78 1115.68 507.59 1324.48 440.31 1190.25 587.94 1201.14 733.47 1358.99 676.38
00009562 00000083 1043.00 206.26 557.76 645.50 1119.42 498.65 1328.88 433.30 1197.60 585.48 1209.51 726.54 1364.93 670.77
00009563 00000084 1048.02 201.72 555.67 648.07 1124.05 495.25 1333.86 429.60 1202.81 579.33 1212.33 722.49 1367.45 666.56
00009564 00000085 1052.63 196.61 554.68 644.94 1128.42 488.99 1336.41 421.57 1207.72 570.11 1217.13 713.05 1371.17 655.69
00009565 00000086 1059.64 190.20 550.01 646.39 1133.79 485.64 1337.57 420.37 1208.91 568.98 1217.60 706.03 1374.24 650.37
00009566 00000087 1058.19 195.16 552.45 643.04 1134.46 491.40 1339.38 426.40 1210.42 574.98 1218.82 709.64 1378.34 653.91
00009567 00000088 1058.67 197.33 552.76 641.95 1134.99 492.11 1340.58 428.14 1211.60 577.68 1219.47 710.34 1379.88 655.34
00009568 00000089 1064.96 200.84 542.32 653.97 1137.77 491.56 1350.92 432.64 1209.51 577.56 1213.94 712.57 1383.93 663.77
00009569 00000090 1064.33 208.76 550.16 641.86 1143.10 498.29 1343.99 436.96 1212.77 584.80 1224.23 719.31 1379.94 666.65
00009570 00000091 1068.00 209.27 547.39 640.91 1144.83 498.86 1346.12 437.84 1213.47 585.60 1225.12 720.75 1379.74 668.53
00009571 00000092 1069.93 209.04 546.32 641.40 1145.82 500.40 1346.99 438.25 1214.27 585.33 1225.99 721.77 1380.03 668.68
00009572 00000093 1071.23 208.38 546.49 639.25 1147.16 498.12 1348.55 436.73 1216.67 583.15 1226.81 719.47 1379.82 667.12
00009573 00000094 1072.98 204.53 547.76 639.68 1148.61 494.86 1347.98 433.69 1215.99 580.45 1228.16 715.53 1379.99 663.36
00009574 00000095 1074.92 203.66 546.01 639.91 1149.32 494.27 1349.39 433.15 1216.62 577.97 1227.22 714.30 1380.43 662.18
00009575 00000096 1075.18 201.80 545.82 640.84 1149.61 493.29 1348.36 432.45 1215.87 578.01 1228.03 713.83 1379.62 661.93
00009576 00000097 1075.50 204.44 545.84 642.17 1150.22 495.64 1349.91 434.96 1216.52 579.81 1228.21 716.94 1380.22 665.16
00009577 00000098 1074.39 208.54 545.38 641.97 1149.85 499.20 1350.15 437.68 1216.06 582.16 1227.73 720.62 1380.83 668.14
00009578 00000099 1074.93 209.31 545.19 641.91 1149.68 500.60 1350.43 439.36 1215.92 583.21 1227.61 722.24 1380.08 670.00
00009579 00000100 1072.29 210.36 544.76 643.27 1148.07 501.79 1348.90 440.82 1216.21 586.07 1226.77 723.30 1379.89 671.32
00009580 00000101 1070.58 210.41 546.87 644.01 1146.75 500.90 1348.10 440.15 1215.19 586.05 1225.61 722.87 1378.57 671.08
00009581 00000102 1068.11 209.14 549.01 646.63 1146.45 497.96 1348.00 438.46 1215.87 583.21 1225.02 721.91 1375.96 671.24
00009582 00000103 1066.74 199.82 550.41 656.05 1146.08 493.21 1347.67 432.37 1216.79 576.07 1226.62 720.78 1372.22 669.43
00009583 00000104 1071.47 185.08 539.93 674.50 1152.94 487.82 1352.89 425.06 1219.17 562.00 1228.89 716.08 1366.78 664.40
00009584 00000105 1076.05 186.63 537.60 676.20 1151.83 489.18 1349.57 420.83 1214.30 550.17 1226.86 713.73 1368.82 657.14
00009585 00000106 1076.77 184.40 537.60 676.06 1151.01 485.44 1348.33 417.66 1212.69 549.00 1225.73 710.03 1369.30 653.67
00009586 00000107 1072.91 180.28 542.14 673.31 1147.21 483.50 1354.72 411.84 1214.57 544.87 1222.64 717.21 1374.90 658.17
00009587 00000108 1075.51 180.87 541.09 672.69 1149.69 484.65 1356.51 413.86 1218.05 550.42 1226.93 718.30 1380.31 659.64
00009588 00000109 1074.91 186.17 542.77 666.05 1150.91 489.97 1358.83 420.51 1221.25 562.60 1229.34 721.59 1384.67 663.64
00009589 00000110 1083.20 192.45 541.00 663.91 1156.37 492.59 1355.54 429.76 1221.65 576.61 1233.87 717.18 1385.13 663.94
00009590 00000111 1085.06 192.56 535.98 673.21 1157.36 504.36 1355.97 438.07 1219.95 581.56 1229.70 726.66 1384.14 671.72
00009591 00000112 1085.52 199.79 537.40 671.28 1157.26 508.93 1354.74 446.10 1220.25 595.12 1232.04 728.65 1389.06 675.87
00009592 00000113 1088.93 203.84 536.19 668.37 1158.76 512.27 1355.48 451.62 1220.16 601.94 1232.21 728.89 1391.20 678.01
00009593 00000114 1091.45 207.39 534.40 669.27 1163.12 512.93 1357.25 452.83 1223.33 600.85 1236.22 729.67 1391.54 679.39
00009594 00000115 1093.04 204.34 535.50 666.65 1166.20 510.96 1362.74 449.44 1227.84 593.06 1238.43 726.41 1393.10 675.12
00009595 00000116 1085.40 205.72 547.16 658.70 1160.78 501.86 1365.85 444.44 1232.48 588.60 1234.75 725.10 1398.21 677.61
00009596 00000117 1088.60 203.63 545.42 653.74 1164.47 500.09 1373.45 436.79 1235.01 582.03 1241.75 721.93 1404.02 668.19
00009597 00000118 1089.64 200.41 546.12 668.13 1164.70 491.58 1372.20 431.37 1237.98 572.92 1239.41 720.93 1403.83 671.18
00009598 00000119 1090.47 198.76 545.65 674.84 1165.03 492.14 1372.33 430.43 1236.01 569.13 1238.37 722.89 1405.19 671.92
00009599 00000120 1090.28 198.45 545.58 675.18 1164.53 493.53 1372.30 431.07 1236.09 570.60 1237.90 723.86 1405.89 672.25
00009600 00000121 1091.21 203.53 545.05 659.42 1162.16 499.38 1375.39 434.12 1232.16 577.96 1239.85 725.15 1408.77 669.42
00009601 00000122 1088.96 206.33 546.06 656.18 1161.53 500.57 1372.56 438.85 1228.12 582.31 1237.69 726.50 1404.32 673.54
00009602 00000123 1087.41 209.36 545.16 654.14 1160.22 500.05 1370.54 441.24 1225.77 587.49 1236.06 725.61 1402.60 675.00
00009603 00000124 1085.61 209.74 544.73 653.45 1158.57 500.91 1368.76 440.48 1223.68 585.90 1233.96 725.50 1401.62 673.44
00009604 00000125 1083.99 210.63 543.86 653.45 1157.07 500.69 1366.02 440.37 1221.13 585.92 1232.33 725.30 1399.22 673.40
00009605 00000126 1081.78 206.51 545.10 662.67 1155.34 498.94 1361.55 443.15 1223.92 586.33 1227.81 726.58 1395.54 680.37
00009606 00000127 1087.83 202.47 536.05 671.13 1161.05 502.76 1358.20 442.23 1221.62 583.10 1231.69 724.23 1391.57 673.04
00009607 00000128 1087.26 201.96 535.70 677.06 1160.27 503.66 1357.59 441.88 1221.48 583.69 1232.20 727.08 1391.80 674.90
00009608 00000129 1085.97 204.51 536.48 680.02 1159.47 505.47 1355.98 444.50 1219.50 588.10 1231.38 731.09 1391.35 679.32
00009609 00000130 1086.16 206.16 536.10 679.04 1157.91 505.99 1354.44 445.00 1217.04 590.18 1230.67 731.42 1392.05 679.52
00009610 00000131 1085.03 207.41 536.05 675.25 1156.01 505.99 1353.15 445.64 1216.53 592.25 1228.88 731.53 1389.80 680.42
00009611 00000132 1085.36 207.28 535.62 673.70 1156.20 506.24 1353.05 446.36 1216.07 591.88 1228.42 731.42 1387.18 680.90
00009612 00000133 1085.01 206.94 535.35 669.74 1155.51 505.78 1353.25 444.63 1215.69 587.59 1226.69 729.31 1386.11 678.01
00009613 00000134 1084.60 202.75 536.99 668.51 1155.31 503.92 1354.60 441.92 1216.83 583.28 1226.31 726.25 1386.06 674.43
00009614 00000135 1084.93 203.00 537.51 667.41 1156.69 503.32 1354.04 440.77 1216.85 580.84 1228.71 725.09 1387.95 672.29
00009615 00000136 1086.34 201.80 537.44 667.85 1157.84 503.67 1355.32 440.72 1217.53 580.23 1229.09 725.41 1387.60 672.56
00009616 00000137 1077.28 207.27 546.13 664.67 1152.58 502.32 1358.68 443.29 1222.52 585.63 1225.17 731.47 1389.63 682.95
00009617 00000138 1079.03 208.23 545.15 663.56 1154.16 503.04 1359.64 444.11 1223.46 586.35 1226.43 732.68 1389.16 684.33
00009618 00000139 1079.98 209.50 544.54 665.87 1155.20 504.64 1360.69 446.23 1224.01 588.52 1227.55 735.41 1389.14 687.49
00009619 00000140 1079.53 212.37 545.61 666.72 1154.10 508.44 1360.30 449.63 1223.25 594.22 1228.65 740.06 1390.45 691.62
00009620 00000141 1079.67 213.61 545.31 666.57 1153.25 510.18 1359.50 451.47 1222.51 597.32 1228.39 741.58 1390.70 693.19
00009621 00000142 1079.38 213.90 545.13 665.82 1153.15 510.21 1359.67 451.22 1223.09 597.53 1228.62 741.60 1390.88 692.98
00009622 00000143 1080.48 212.74 543.88 664.74 1154.51 509.29 1359.78 449.38 1223.51 594.26 1229.32 739.44 1391.59 690.13
00009623 00000144 1080.97 210.89 543.69 662.22 1155.07 504.99 1360.39 445.83 1224.24 588.03 1228.74 733.79 1391.51 685.06
00009624 00000145 1081.57 209.58 545.12 662.64 1156.33 503.58 1360.49 443.54 1224.47 584.96 1229.54 731.25 1393.93 681.73
00009625 00000146 1083.03 207.38 547.51 661.98 1157.93 500.41 1362.63 439.68 1226.50 580.19 1232.31 728.65 1395.32 678.44
00009626 00000147 1086.33 207.11 545.29 658.02 1159.28 496.94 1364.78 437.16 1228.03 577.54 1233.17 724.94 1396.40 675.54
00009627 00000148 1088.87 208.68 543.81 652.51 1161.03 499.79 1370.66 433.70 1228.56 578.00 1239.61 726.49 1403.43 670.29
00009628 00000149 1090.70 208.27 545.33 653.02 1163.03 499.97 1372.89 433.23 1231.65 577.19 1242.94 726.51 1406.16 669.80
00009629 00000150 1088.62 204.33 548.98 667.16 1166.19 497.10 1373.56 433.07 1242.11 574.90 1244.29 726.15 1407.83 673.18
00009630 00000151 1090.56 204.31 548.98 677.22 1168.81 497.16 1375.67 432.19 1242.90 574.68 1246.69 729.30 1411.79 675.36
00009631 00000152 1092.23 204.75 547.02 678.90 1171.62 497.38 1377.23 434.27 1245.40 577.34 1248.19 728.55 1415.07 675.99
00009632 00000153 1097.13 211.39 545.16 647.23 1173.13 500.72 1385.54 438.71 1249.66 586.08 1254.21 722.89 1423.43 669.41
00009633 00000154 1098.44 213.13 545.80 634.59 1170.86 502.99 1388.14 440.56 1251.58 590.29 1251.03 718.84 1427.10 664.59
00009634 00000155 1099.09 214.02 541.86 632.89 1171.17 501.25 1386.99 438.60 1252.02 592.47 1250.93 712.69 1433.00 657.78
00009635 00000156 1098.15 211.72 539.86 634.70 1171.05 498.68 1384.94 435.44 1253.26 591.74 1249.17 702.72 1440.97 646.39
00009636 00000157 1101.13 209.70 538.61 629.75 1169.57 496.35 1386.16 430.14 1253.51 584.79 1245.67 696.04 1443.42 636.96
00009637 00000158 1101.12 204.90 540.33 634.28 1169.43 492.48 1387.74 426.86 1254.48 578.59 1244.12 693.95 1442.32 635.35
00009638 00000159 1102.12 202.19 540.42 638.07 1171.05 489.95 1388.90 424.29 1255.35 573.21 1243.84 692.12 1441.09 633.70
00009639 00000160 1103.53 196.55 541.41 640.37 1172.22 488.15 1389.38 423.94 1255.58 573.28 1245.63 691.32 1438.97 634.34
00009640 00000161 1099.45 199.58 545.34 636.91 1169.86 490.14 1389.07 425.75 1255.52 575.68 1246.20 693.95 1438.35 636.96
00009641 00000162 1098.47 203.43 545.06 634.78 1169.03 495.37 1387.75 428.61 1255.72 579.83 1248.36 698.33 1438.77 639.45
