Video ID: 	syZ3bvXIrpA
H: 	2160
W: 	3840
FPS: 	23.976023976023978

FRAME INDEX X0 Y0 W H [Landmarks (5 Points)]

00002639 00000000 1777.83 226.55 932.50 1352.41 2193.59 679.58 2608.80 750.19 2487.74 932.06 2202.75 1203.15 2534.90 1259.34
00002640 00000001 1777.69 228.13 935.93 1351.50 2194.11 679.12 2609.53 749.59 2487.70 930.09 2203.74 1202.31 2536.23 1258.54
00002641 00000002 1779.99 228.36 934.24 1350.75 2193.87 679.41 2612.08 748.64 2488.73 931.43 2206.17 1204.02 2540.07 1259.18
00002642 00000003 1780.29 227.20 935.20 1353.85 2193.39 679.13 2612.06 747.71 2487.93 931.67 2203.54 1203.10 2540.82 1257.68
00002643 00000004 1778.88 227.52 937.47 1356.21 2194.43 679.91 2613.27 749.01 2489.07 932.44 2202.67 1203.50 2541.45 1258.41
00002644 00000005 1779.47 224.37 936.68 1360.17 2194.79 681.36 2613.35 751.87 2489.97 929.85 2201.28 1202.34 2540.88 1258.46
00002645 00000006 1779.60 225.85 935.06 1354.74 2193.76 679.78 2612.49 750.95 2489.49 928.99 2199.74 1201.13 2539.77 1257.80
00002646 00000007 1782.53 222.93 930.43 1355.52 2195.81 679.68 2613.32 750.77 2491.59 928.89 2202.22 1202.41 2539.46 1259.07
00002647 00000008 1782.24 230.46 932.12 1343.13 2189.39 678.23 2615.12 753.60 2493.41 925.50 2195.85 1200.96 2542.46 1261.48
00002648 00000009 1781.51 227.39 931.93 1349.76 2187.22 675.64 2612.59 749.65 2487.49 926.22 2193.42 1201.58 2539.95 1260.88
00002649 00000010 1780.75 218.17 932.38 1362.93 2185.92 674.73 2612.11 749.58 2481.79 922.88 2192.80 1202.27 2536.77 1262.28
00002650 00000011 1775.15 214.23 929.79 1371.23 2182.53 672.01 2602.04 744.66 2475.16 923.94 2186.63 1200.96 2522.61 1259.19
00002651 00000012 1770.14 220.21 930.93 1371.08 2171.13 677.16 2585.24 737.65 2456.90 928.42 2180.66 1205.48 2510.46 1253.35
00002652 00000013 1758.71 229.63 934.84 1357.01 2146.18 693.68 2564.85 756.38 2435.78 927.90 2158.57 1201.08 2494.13 1250.18
00002653 00000014 1756.63 227.00 937.43 1363.43 2124.55 702.59 2556.34 763.67 2416.00 931.69 2141.02 1205.13 2488.17 1252.65
00002654 00000015 1747.95 233.61 942.46 1359.02 2107.89 703.30 2543.20 763.34 2399.47 935.69 2126.18 1206.22 2474.46 1253.53
00002655 00000016 1748.30 235.74 946.43 1367.07 2097.96 703.01 2532.40 755.12 2378.53 946.13 2113.80 1216.30 2457.51 1258.10
00002656 00000017 1749.35 244.11 942.10 1365.88 2088.96 705.52 2520.24 757.66 2360.58 951.05 2101.60 1226.88 2439.57 1269.47
00002657 DELETE   1745.85 251.43 940.23 1351.59 2072.83 714.06 2505.13 766.04 2335.99 962.88 2081.63 1229.54 2426.15 1271.90
00002658 00000019 1737.76 265.80 946.34 1324.18 2055.87 726.75 2497.47 777.20 2312.67 977.67 2063.03 1231.14 2415.88 1272.26
00002659 00000020 1736.41 281.21 944.74 1306.26 2038.96 734.68 2490.25 783.98 2286.94 991.29 2045.49 1235.65 2406.90 1276.01
00002660 00000021 1732.31 285.06 949.44 1306.40 2034.97 742.96 2485.64 798.29 2277.05 998.71 2036.28 1240.71 2396.50 1286.36
00002661 00000022 1732.94 282.34 952.41 1311.15 2033.23 746.84 2479.46 803.91 2266.09 1002.67 2028.21 1239.82 2385.84 1286.99
00002662 00000023 1731.04 289.52 953.47 1303.93 2026.34 743.64 2474.73 800.60 2254.79 1000.53 2021.32 1239.20 2378.46 1286.30
00002663 00000024 1729.53 287.84 951.18 1316.00 2026.20 733.85 2467.69 789.66 2247.76 997.47 2019.45 1239.13 2364.12 1285.81
00002664 00000025 1729.04 283.99 948.39 1330.24 2025.19 727.33 2461.30 783.49 2243.17 991.20 2012.20 1237.81 2355.12 1285.05
00002665 00000026 1732.81 276.92 944.97 1331.93 2023.27 721.34 2461.71 775.37 2243.32 985.71 2010.63 1232.66 2359.10 1278.05
00002666 DELETE   1742.79 263.79 948.29 1338.40 2036.12 711.04 2481.16 769.32 2263.35 974.69 2022.32 1224.46 2383.12 1272.09
00002667 DELETE   1754.73 249.41 958.97 1338.45 2053.63 710.56 2507.10 771.52 2294.17 954.47 2046.90 1215.29 2415.24 1264.66
00002668 DELETE   1777.10 250.10 953.23 1327.15 2078.96 712.64 2529.59 770.76 2325.85 958.06 2074.94 1210.42 2439.56 1257.29
00002669 00000030 1797.60 250.12 954.52 1330.41 2108.88 720.40 2554.02 785.17 2346.72 977.21 2094.15 1219.47 2457.76 1272.50
00002670 00000031 1806.80 260.15 957.66 1330.94 2120.03 733.67 2561.17 799.52 2351.04 989.87 2100.86 1229.83 2463.83 1284.03
00002671 00000032 1808.45 266.79 956.15 1326.76 2117.41 739.40 2558.67 805.14 2348.71 994.44 2097.25 1236.54 2461.19 1290.73
00002672 00000033 1804.80 272.75 957.14 1324.78 2111.98 740.35 2553.77 802.82 2341.69 998.59 2096.72 1243.15 2453.25 1294.45
00002673 00000034 1798.58 273.45 955.19 1327.55 2102.52 742.13 2545.16 801.35 2331.73 1002.03 2090.76 1249.88 2440.84 1298.82
00002674 00000035 1791.08 271.16 953.82 1329.80 2085.58 742.81 2538.67 801.59 2318.17 1002.08 2078.12 1255.46 2435.54 1304.30
00002675 00000036 1782.34 283.70 950.56 1322.24 2072.55 746.30 2523.26 798.97 2302.21 1002.83 2070.52 1255.93 2427.90 1300.14
00002676 00000037 1777.80 273.43 949.01 1337.68 2066.41 749.20 2510.46 797.52 2295.91 1005.05 2069.81 1258.07 2419.27 1299.26
00002677 00000038 1768.16 274.38 953.41 1328.49 2049.23 744.47 2502.74 789.10 2281.54 996.56 2058.23 1252.78 2414.38 1290.36
00002678 00000039 1765.34 273.12 951.54 1325.90 2039.44 743.12 2500.63 785.33 2272.99 995.45 2047.80 1251.98 2415.24 1286.64
00002679 00000040 1766.06 272.13 951.56 1328.77 2034.61 749.49 2494.78 790.48 2263.85 1003.80 2041.96 1254.36 2411.20 1288.29
00002680 00000041 1765.23 277.46 954.55 1333.35 2034.75 758.72 2482.94 808.36 2244.22 1023.34 2032.36 1252.67 2393.79 1294.12
00002681 00000042 1759.21 294.02 947.74 1322.66 2026.25 764.88 2465.51 818.15 2221.69 1033.61 2014.53 1261.82 2358.15 1307.39
00002682 00000043 1753.07 291.08 940.63 1322.80 2010.98 767.07 2448.34 817.86 2205.41 1027.20 1994.39 1257.15 2348.00 1300.36
00002683 00000044 1743.19 287.11 939.93 1321.50 1997.43 765.99 2435.83 810.90 2192.00 1026.66 1986.63 1254.85 2338.38 1293.01
00002684 00000045 1734.62 273.88 940.34 1329.86 1983.73 763.92 2422.07 803.46 2179.02 1024.37 1974.95 1249.69 2334.70 1283.12
00002685 00000046 1720.97 268.71 949.57 1314.58 1959.32 770.33 2399.36 801.59 2153.76 1023.75 1978.16 1249.72 2320.51 1277.04
00002686 00000047 1711.05 271.97 948.51 1305.70 1946.40 765.99 2386.21 796.80 2140.41 1023.23 1969.00 1247.38 2307.94 1274.68
00002687 00000048 1704.66 267.60 946.89 1307.55 1935.28 766.14 2371.49 797.94 2125.35 1019.13 1959.21 1247.31 2288.48 1275.49
00002688 00000049 1696.33 255.20 934.85 1328.74 1932.40 755.07 2381.02 796.61 2116.47 1010.89 1934.53 1250.91 2300.37 1283.26
00002689 00000050 1691.09 257.13 933.22 1327.38 1923.83 754.11 2374.96 793.25 2112.62 1005.68 1927.85 1250.35 2296.46 1280.98
00002690 00000051 1686.39 256.18 934.27 1326.50 1919.36 752.59 2371.76 789.81 2110.16 1003.26 1927.07 1249.18 2295.93 1278.21
00002691 00000052 1684.95 257.29 933.34 1326.92 1917.64 752.21 2369.36 788.15 2108.93 1003.09 1927.00 1250.41 2293.42 1278.32
00002692 00000053 1685.78 253.33 932.32 1329.76 1916.25 751.96 2368.93 785.47 2108.06 1002.01 1927.80 1251.09 2295.34 1276.81
00002693 00000054 1685.25 256.21 934.41 1326.16 1918.18 753.12 2370.70 785.10 2111.96 1001.54 1931.23 1250.28 2299.35 1274.84
00002694 00000055 1687.83 254.90 934.62 1330.29 1925.54 751.46 2376.61 782.47 2121.57 1001.19 1940.29 1252.76 2305.14 1276.07
00002695 00000056 1695.37 255.53 934.12 1341.36 1950.14 754.40 2385.74 789.69 2139.13 1001.90 1956.79 1253.57 2308.89 1279.81
00002696 00000057 1697.71 250.24 945.46 1361.32 1955.29 755.18 2386.22 784.78 2154.14 1006.87 1965.21 1249.11 2307.41 1274.98
00002697 00000058 1703.68 262.15 947.25 1351.17 1972.17 759.39 2399.65 793.13 2174.76 1005.41 1977.90 1250.09 2311.76 1279.57
00002698 00000059 1710.79 271.68 948.38 1344.13 1982.11 758.48 2416.19 791.04 2191.23 1008.78 1990.20 1256.70 2328.19 1285.28
00002699 00000060 1716.25 272.42 948.91 1347.22 1990.87 756.20 2427.78 790.67 2202.88 1006.80 1994.46 1256.82 2338.15 1286.75
00002700 00000061 1720.60 269.58 945.44 1348.52 1996.01 754.67 2432.91 790.42 2209.51 1009.19 1996.56 1252.91 2344.25 1283.68
00002701 00000062 1720.86 273.67 945.66 1344.93 1997.35 753.81 2436.07 789.25 2212.24 1010.03 1999.03 1253.70 2347.75 1284.28
00002702 00000063 1720.78 272.58 943.75 1345.49 1996.97 751.83 2435.18 786.91 2212.28 1008.38 1998.20 1252.95 2347.90 1283.19
00002703 00000064 1718.21 273.05 945.33 1343.02 1993.27 751.48 2433.75 785.72 2210.06 1007.64 1994.00 1252.15 2349.20 1281.47
00002704 00000065 1711.45 270.23 945.75 1341.78 1988.97 752.91 2427.87 786.27 2205.75 1006.40 1990.79 1250.14 2344.45 1278.71
00002705 00000066 1704.99 274.79 950.40 1344.18 1986.07 752.19 2422.40 785.73 2202.03 1004.23 1987.51 1251.54 2337.96 1280.48
00002706 00000067 1700.09 274.35 949.35 1362.94 1984.74 751.11 2416.41 783.05 2200.73 1002.66 1986.52 1254.85 2335.45 1282.49
00002707 00000068 1697.83 272.85 948.63 1365.49 1981.43 753.92 2415.84 781.98 2202.88 1004.18 1986.53 1259.37 2338.73 1283.70
00002708 00000069 1700.08 272.06 945.86 1343.37 1980.14 757.23 2418.32 786.95 2202.83 1008.12 1986.32 1252.20 2341.28 1277.46
00002709 00000070 1701.29 274.31 945.57 1327.46 1977.79 757.77 2418.74 787.39 2201.45 1007.99 1983.18 1245.32 2345.03 1269.90
00002710 00000071 1696.33 263.32 949.24 1335.78 1972.35 757.19 2413.89 774.99 2194.21 1006.97 1986.67 1253.11 2338.83 1270.54
00002711 00000072 1694.97 264.03 950.68 1331.03 1970.86 756.74 2413.44 776.01 2190.33 1006.29 1983.00 1247.82 2338.48 1266.39
00002712 00000073 1696.80 260.98 948.70 1334.08 1970.74 756.73 2411.61 775.02 2189.99 1007.17 1985.67 1249.41 2339.40 1267.21
00002713 00000074 1698.20 266.70 945.44 1339.63 1974.21 755.93 2405.06 785.40 2188.92 1005.86 1988.17 1251.41 2324.70 1277.41
00002714 00000075 1697.91 270.81 945.28 1330.91 1970.67 757.19 2408.12 786.20 2186.18 1008.21 1984.98 1250.64 2329.16 1275.72
00002715 00000076 1695.13 261.13 945.66 1347.16 1965.24 759.32 2408.81 780.86 2183.98 1013.05 1979.34 1260.12 2329.44 1280.64
00002716 00000077 1693.78 262.53 940.65 1331.42 1958.51 758.00 2403.42 784.16 2170.03 1009.17 1981.61 1260.67 2336.54 1278.94
00002717 DELETE   1684.92 254.27 941.01 1353.92 1938.71 752.74 2383.67 775.93 2145.47 1006.74 1962.11 1265.49 2312.21 1281.95
00002718 DELETE   1681.80 259.84 929.62 1352.81 1909.68 741.81 2354.90 768.82 2097.89 996.12 1931.66 1263.01 2275.68 1284.04
00002719 DELETE   1673.91 259.03 931.07 1346.42 1887.53 732.95 2327.68 760.08 2057.74 991.91 1905.68 1252.22 2242.69 1274.15
00002720 00000081 1663.80 250.71 931.32 1356.01 1869.35 727.48 2308.77 754.72 2035.02 983.58 1878.88 1243.80 2223.58 1266.70
00002721 00000082 1658.73 254.31 932.70 1346.39 1860.42 725.21 2297.14 752.29 2021.45 981.72 1869.39 1240.62 2210.34 1263.95
00002722 00000083 1653.03 245.00 933.83 1345.15 1848.94 730.45 2293.26 752.23 2019.85 984.50 1863.97 1242.06 2215.98 1260.83
00002723 00000084 1651.47 248.39 935.47 1336.96 1847.84 732.94 2295.78 754.91 2024.35 982.86 1860.62 1240.86 2216.37 1259.65
00002724 00000085 1651.99 248.01 932.72 1336.25 1850.80 732.79 2297.15 754.16 2029.15 980.65 1864.40 1239.15 2220.59 1257.27
00002725 00000086 1651.66 251.64 930.23 1336.09 1850.71 731.62 2297.27 749.62 2031.64 976.45 1868.21 1240.33 2224.04 1256.25
00002726 00000087 1651.44 250.08 929.35 1336.76 1852.50 731.39 2296.13 748.19 2033.25 973.31 1871.58 1239.43 2223.16 1254.47
00002727 00000088 1651.22 247.36 926.54 1337.26 1854.97 733.07 2297.01 750.49 2036.94 975.23 1874.61 1240.07 2222.84 1255.63
00002728 00000089 1649.73 247.91 929.46 1331.41 1853.59 733.19 2300.31 751.74 2038.30 975.21 1871.71 1236.17 2231.80 1251.76
00002729 00000090 1652.08 245.86 928.62 1326.79 1855.25 732.87 2303.84 749.67 2043.35 972.46 1875.11 1233.94 2240.30 1247.56
00002730 00000091 1652.15 243.48 929.00 1328.93 1854.65 733.83 2304.71 749.50 2044.62 973.88 1874.41 1234.78 2243.07 1247.12
00002731 00000092 1652.04 242.60 927.84 1328.46 1855.29 732.86 2306.18 748.19 2048.20 971.20 1877.19 1233.58 2245.25 1245.45
00002732 00000093 1649.28 242.86 927.85 1326.27 1850.95 731.42 2305.61 748.02 2046.12 972.24 1872.30 1234.23 2243.18 1247.13
00002733 00000094 1648.54 250.53 928.97 1324.14 1853.72 730.24 2306.03 746.37 2049.81 970.51 1876.36 1231.04 2248.38 1243.71
00002734 00000095 1647.31 248.61 930.85 1332.23 1858.09 736.59 2306.76 752.52 2050.99 969.76 1880.05 1236.33 2246.78 1249.21
00002735 00000096 1645.67 249.90 928.75 1336.48 1864.41 750.90 2305.74 763.25 2059.37 970.93 1886.82 1240.26 2250.26 1250.04
00002736 00000097 1644.72 248.62 931.17 1341.85 1865.56 748.02 2310.61 760.61 2064.76 975.93 1891.31 1243.28 2253.58 1253.39
00002737 00000098 1644.38 252.22 932.21 1337.47 1866.51 741.04 2315.20 755.05 2070.42 979.27 1895.36 1245.22 2254.20 1256.66
00002738 00000099 1642.72 253.27 933.27 1337.59 1866.76 740.54 2317.84 751.61 2077.48 982.48 1902.05 1248.29 2259.53 1256.97
00002739 00000100 1639.95 256.52 938.15 1337.69 1866.26 741.10 2322.28 749.49 2082.27 983.58 1907.44 1254.07 2262.23 1260.64
00002740 00000101 1638.20 257.34 938.03 1339.25 1871.65 744.80 2327.24 754.84 2093.38 987.08 1912.76 1255.68 2270.61 1263.48
00002741 00000102 1638.79 259.82 939.95 1340.76 1873.95 745.89 2332.04 754.35 2099.60 988.59 1916.16 1258.34 2278.19 1264.62
00002742 00000103 1638.04 261.65 938.84 1342.48 1877.93 746.53 2336.61 753.91 2108.33 990.01 1920.44 1259.55 2284.67 1264.89
00002743 00000104 1638.32 262.59 940.81 1342.45 1880.93 747.45 2339.49 751.80 2116.22 987.46 1927.45 1262.47 2288.17 1265.37
00002744 00000105 1639.31 257.07 941.04 1345.72 1885.85 746.61 2343.32 749.18 2125.21 984.35 1936.05 1263.15 2290.60 1264.64
00002745 00000106 1637.79 255.98 943.17 1348.93 1889.52 746.50 2346.91 749.79 2131.72 983.00 1938.41 1261.10 2296.59 1262.87
00002746 00000107 1637.42 259.22 942.91 1346.85 1892.74 747.46 2348.11 750.36 2136.57 980.76 1944.70 1262.09 2302.30 1263.37
00002747 00000108 1638.69 264.08 942.44 1342.44 1895.71 749.51 2350.50 751.40 2140.48 983.81 1948.97 1262.53 2308.08 1262.86
00002748 00000109 1638.08 257.88 942.82 1348.74 1898.88 752.16 2352.90 753.60 2145.86 984.17 1953.39 1263.36 2312.33 1263.10
00002749 00000110 1639.01 256.06 943.06 1353.71 1902.16 753.47 2355.60 755.33 2149.40 986.46 1953.95 1263.56 2315.78 1263.62
00002750 00000111 1641.99 255.00 941.11 1354.86 1905.15 754.94 2357.58 755.83 2152.71 987.57 1958.20 1264.45 2319.51 1263.58
00002751 00000112 1644.53 255.84 939.33 1350.98 1907.06 757.12 2359.72 755.66 2156.51 987.13 1963.99 1267.59 2321.55 1264.72
00002752 00000113 1644.98 259.16 940.14 1349.43 1908.63 756.09 2361.36 754.65 2158.02 986.96 1965.64 1267.03 2323.89 1264.33
00002753 00000114 1646.18 262.00 939.44 1343.89 1909.12 756.36 2362.96 755.40 2159.14 985.50 1964.18 1265.82 2325.34 1263.51
00002754 00000115 1645.61 258.74 942.18 1349.60 1912.02 753.44 2364.69 754.69 2161.22 985.45 1965.03 1263.69 2324.69 1263.30
00002755 00000116 1646.60 261.35 942.85 1347.21 1914.17 754.58 2364.93 753.94 2162.30 984.33 1968.12 1264.13 2327.28 1262.08
00002756 00000117 1648.03 262.60 940.08 1343.11 1917.44 753.37 2365.80 753.38 2164.71 987.04 1969.52 1261.89 2326.83 1260.39
00002757 00000118 1647.19 263.06 941.41 1344.29 1917.40 753.19 2366.53 752.96 2165.13 987.69 1969.51 1262.94 2327.81 1261.31
00002758 00000119 1646.94 262.40 939.52 1342.77 1913.07 752.75 2363.16 751.32 2161.37 985.51 1966.59 1263.05 2325.42 1260.45
00002759 00000120 1643.23 260.29 941.01 1348.71 1910.93 751.63 2361.59 751.72 2160.68 985.49 1963.07 1262.27 2323.08 1260.89
00002760 00000121 1640.52 257.42 944.57 1351.97 1910.01 749.89 2362.56 750.49 2161.03 986.52 1962.03 1260.67 2323.36 1259.68
00002761 00000122 1642.52 262.10 943.22 1348.12 1909.91 750.43 2362.94 748.79 2161.64 988.12 1964.29 1262.91 2326.89 1260.09
00002762 00000123 1646.18 256.31 943.41 1354.46 1915.64 751.36 2366.60 750.23 2165.36 987.53 1968.10 1261.83 2331.25 1259.15
00002763 00000124 1647.94 254.91 941.43 1356.84 1916.60 750.64 2367.57 749.30 2165.96 984.27 1968.12 1261.14 2331.97 1258.35
00002764 00000125 1646.85 253.97 940.78 1356.62 1916.88 748.62 2366.04 749.34 2165.89 984.43 1965.69 1258.10 2329.54 1256.84
00002765 00000126 1645.66 254.39 941.57 1356.17 1910.46 745.71 2361.03 748.81 2155.61 982.74 1959.57 1259.34 2319.54 1260.26
00002766 00000127 1642.25 257.61 941.68 1355.64 1899.62 748.53 2356.83 752.19 2143.84 985.29 1947.58 1264.14 2313.16 1265.75
00002767 00000128 1638.54 265.14 946.17 1348.88 1889.37 753.58 2347.61 759.88 2127.54 989.77 1931.69 1264.04 2299.48 1268.28
00002768 00000129 1641.32 264.43 944.11 1352.21 1884.76 753.76 2343.56 762.69 2114.02 997.97 1924.16 1265.45 2292.73 1271.92
00002769 00000130 1645.45 267.02 945.47 1355.19 1889.93 761.18 2347.74 771.05 2118.38 1005.94 1929.76 1274.63 2294.95 1281.81
00002770 00000131 1655.98 272.45 947.03 1360.83 1911.16 770.39 2363.12 783.49 2138.71 1015.77 1948.83 1282.76 2309.78 1291.95
00002771 00000132 1668.70 272.68 951.51 1373.12 1938.99 777.78 2383.61 792.78 2165.61 1030.75 1975.54 1293.91 2327.21 1303.94
00002772 00000133 1673.95 275.92 952.21 1379.64 1951.14 783.66 2392.77 796.99 2181.54 1042.80 1990.93 1303.03 2339.80 1311.35
00002773 00000134 1675.53 277.45 949.89 1375.68 1954.25 787.34 2396.77 802.24 2184.35 1054.15 1990.80 1303.87 2344.54 1312.82
00002774 00000135 1675.05 285.85 947.01 1358.21 1949.85 791.35 2394.00 809.71 2176.81 1057.43 1980.96 1302.03 2336.26 1314.51
00002775 00000136 1676.52 287.12 946.39 1354.94 1952.83 794.01 2395.53 808.67 2183.08 1058.67 1988.11 1308.23 2337.01 1317.85
00002776 00000137 1678.51 281.55 945.79 1358.11 1964.78 788.99 2405.13 808.67 2200.55 1063.34 1992.24 1292.92 2338.24 1311.71
00002777 00000138 1691.50 289.18 936.18 1352.39 1980.65 794.78 2425.49 813.54 2224.47 1068.04 2012.92 1303.54 2360.70 1321.76
00002778 00000139 1695.98 301.26 932.74 1349.01 1986.95 798.33 2431.87 814.85 2236.24 1070.31 2019.61 1306.88 2376.58 1322.99
00002779 00000140 1693.81 304.48 934.60 1352.58 1985.86 800.54 2428.98 819.43 2230.09 1074.55 2014.91 1308.34 2365.89 1326.79
00002780 00000141 1686.62 295.79 938.68 1359.17 1980.45 796.81 2422.55 819.92 2219.69 1073.89 2000.80 1301.77 2354.54 1323.71
00002781 00000142 1687.24 290.71 937.47 1352.46 1975.71 794.13 2424.43 815.67 2217.43 1070.03 1995.08 1295.26 2359.84 1315.45
00002782 00000143 1684.95 287.66 939.56 1355.35 1978.82 793.15 2427.12 813.83 2223.40 1067.11 1999.67 1292.28 2366.98 1311.43
00002783 00000144 1686.52 295.77 937.15 1353.41 1983.47 794.57 2427.62 815.18 2228.67 1065.31 2006.85 1292.84 2370.61 1312.16
00002784 00000145 1688.23 302.05 932.23 1340.46 1982.62 800.00 2427.96 816.57 2228.49 1069.50 2010.46 1294.75 2375.80 1310.70
00002785 00000146 1683.97 302.68 935.00 1338.23 1981.49 809.16 2421.25 827.17 2222.88 1080.01 2003.82 1299.26 2361.72 1317.04
00002786 00000147 1681.43 306.25 936.07 1341.76 1978.25 811.97 2414.42 830.69 2216.54 1083.53 2001.01 1306.05 2350.26 1324.78
00002787 00000148 1674.92 302.65 943.78 1355.21 1973.23 808.88 2410.94 828.26 2212.97 1080.23 1997.81 1307.04 2347.02 1326.28
00002788 00000149 1678.88 299.40 939.44 1354.87 1977.03 807.25 2416.26 826.26 2216.74 1078.86 2001.21 1306.65 2350.54 1325.50
00002789 00000150 1681.86 304.65 936.10 1350.60 1979.64 807.72 2418.83 826.40 2220.06 1078.62 2001.11 1303.74 2356.29 1322.40
00002790 00000151 1682.17 303.29 936.28 1354.90 1980.56 807.27 2418.91 827.22 2220.24 1079.13 1998.50 1303.57 2355.38 1323.29
00002791 00000152 1679.21 302.05 940.27 1359.02 1978.23 807.52 2414.08 828.59 2215.20 1079.08 1995.71 1304.22 2349.48 1324.78
00002792 00000153 1679.12 301.49 940.91 1364.51 1979.12 807.65 2414.36 829.35 2215.78 1080.56 1995.25 1305.76 2348.18 1326.97
00002793 00000154 1681.55 300.64 940.19 1361.87 1983.16 807.03 2420.39 828.65 2222.61 1078.56 1996.28 1299.56 2358.86 1320.32
00002794 00000155 1684.77 293.41 939.21 1360.73 1985.93 802.78 2422.56 824.49 2227.13 1072.22 1999.20 1292.27 2365.44 1312.63
00002795 00000156 1687.26 299.76 936.26 1349.35 1984.33 799.60 2424.85 821.70 2224.78 1071.27 1998.49 1292.96 2363.86 1313.89
00002796 00000157 1686.51 304.07 937.25 1349.02 1983.21 799.10 2425.50 822.51 2222.63 1070.24 1993.90 1292.64 2362.80 1314.55
