Video ID: 	QVxHDAmIMZ8
H: 	1080
W: 	1920
FPS: 	25.0

FRAME INDEX X0 Y0 W H [Landmarks (5 Points)]

00004648 00000000 743.75 243.14 362.78 567.34 947.75 473.34 1082.60 458.42 1094.16 576.26 944.55 671.02 1061.92 662.98
00004649 DELETE   741.64 244.18 367.18 569.82 947.41 475.00 1083.79 458.62 1093.34 582.42 941.53 673.78 1060.79 664.69
00004650 DELETE   742.01 249.76 367.26 568.64 945.61 483.24 1082.83 463.64 1093.72 594.60 945.07 685.22 1059.87 672.87
00004651 00000003 739.14 256.99 369.97 566.90 947.98 493.80 1081.50 472.62 1094.09 601.89 952.29 694.77 1059.24 680.38
00004652 00000004 731.99 252.71 375.52 570.09 945.13 499.67 1072.51 476.94 1086.49 601.64 960.65 695.74 1055.40 680.12
00004653 00000005 732.28 252.97 375.75 567.28 944.70 498.18 1074.59 475.31 1085.96 601.73 961.15 695.46 1056.53 679.64
00004654 00000006 737.69 255.70 371.32 562.47 948.58 492.72 1084.33 474.04 1095.07 597.66 958.00 693.42 1062.81 680.26
00004655 00000007 736.61 250.29 372.40 562.37 946.79 486.62 1084.58 468.90 1092.68 595.64 954.21 689.78 1061.15 677.91
00004656 00000008 738.60 249.74 370.48 561.21 946.00 482.62 1087.70 466.79 1091.62 592.60 952.15 686.66 1063.22 676.42
00004657 00000009 740.00 249.36 370.38 557.33 944.30 481.10 1089.38 463.51 1090.70 590.67 952.13 684.96 1067.43 673.49
00004658 00000010 739.75 248.50 369.54 555.80 944.76 480.45 1089.74 462.68 1090.58 589.45 951.23 682.91 1066.58 671.43
00004659 00000011 734.62 249.21 373.34 554.60 941.93 479.18 1088.33 459.74 1090.35 586.79 947.31 679.91 1065.64 667.13
00004660 00000012 732.56 244.74 373.69 556.06 938.38 477.26 1086.96 459.45 1086.86 584.01 945.64 678.37 1064.34 666.74
00004661 00000013 729.14 246.30 375.97 552.49 934.73 476.20 1083.98 455.61 1084.60 581.78 940.31 675.58 1061.75 662.03
00004662 00000014 728.80 245.41 372.18 552.79 931.63 473.91 1075.07 450.86 1082.64 577.04 935.71 671.40 1054.58 656.17
00004663 00000015 725.03 239.32 371.27 557.57 925.41 469.71 1066.42 448.50 1075.76 568.27 932.27 667.89 1047.59 654.08
00004664 00000016 721.53 235.78 371.10 559.29 920.73 468.04 1062.95 447.08 1073.06 565.92 927.72 666.49 1043.46 653.25
00004665 00000017 718.28 225.41 369.81 570.08 919.87 470.20 1058.26 449.84 1069.39 565.00 926.99 666.14 1038.46 653.26
00004666 00000018 713.63 225.22 373.53 571.05 914.54 470.42 1054.22 450.20 1063.76 562.50 923.39 664.50 1037.40 651.47
00004667 00000019 709.47 217.53 374.69 576.27 910.90 468.37 1048.81 448.53 1059.65 560.52 920.07 663.05 1031.98 650.37
00004668 00000020 706.48 214.82 375.93 579.79 911.17 470.15 1045.97 448.01 1059.64 562.35 915.58 662.09 1028.96 648.05
00004669 00000021 715.55 217.02 364.19 575.32 903.98 473.92 1050.22 454.77 1046.08 574.71 918.48 658.64 1040.65 646.74
00004670 00000022 702.41 215.32 374.18 577.30 901.37 472.37 1038.29 452.04 1044.74 564.52 902.69 660.30 1018.44 647.95
00004671 00000023 694.42 215.99 378.08 577.00 888.20 470.85 1031.34 451.29 1033.65 564.28 894.25 660.58 1012.82 648.39
00004672 00000024 689.20 217.91 378.19 576.33 879.26 469.64 1025.60 452.26 1022.32 566.36 887.88 664.53 1006.21 653.21
00004673 00000025 685.75 219.89 375.69 573.03 871.06 469.02 1020.55 453.06 1012.40 566.31 883.03 664.49 1001.77 654.16
00004674 00000026 682.58 221.68 374.07 570.41 867.79 467.27 1015.03 452.68 1005.74 564.86 881.48 661.10 999.20 651.47
00004675 00000027 680.32 221.58 373.61 568.35 861.90 466.28 1011.84 451.96 998.93 563.32 876.89 658.88 997.75 649.19
00004676 00000028 678.67 220.24 372.94 566.98 860.50 465.50 1011.34 453.89 994.63 561.72 875.11 655.31 996.01 647.76
00004677 00000029 682.18 212.31 369.81 569.80 864.70 461.32 1019.19 450.54 1001.07 563.52 865.30 653.62 1000.46 648.10
00004678 00000030 682.33 215.74 367.46 564.78 862.17 459.64 1018.17 449.61 999.95 561.00 863.28 652.19 999.52 647.42
00004679 00000031 682.65 212.36 365.45 567.29 859.47 459.42 1015.81 450.45 997.33 560.89 859.47 651.56 996.33 648.03
00004680 00000032 682.64 212.65 363.70 565.19 857.34 459.25 1013.18 450.38 994.64 558.76 858.69 651.16 994.01 647.61
00004681 00000033 682.79 215.24 364.02 563.08 857.13 458.60 1013.33 452.39 994.62 558.65 857.90 650.80 993.23 649.52
00004682 00000034 682.66 215.83 364.06 562.00 855.58 457.92 1013.31 452.55 992.98 558.85 856.21 650.75 991.85 650.09
00004683 00000035 683.57 218.96 363.50 559.28 854.62 458.64 1013.52 453.14 991.55 559.12 855.76 650.61 992.26 649.72
00004684 00000036 681.46 219.02 366.05 564.17 855.50 459.41 1013.16 452.79 994.11 558.70 856.65 651.35 993.76 649.35
00004685 00000037 681.29 219.21 366.92 563.56 854.37 459.74 1012.53 454.37 992.28 558.75 856.26 651.73 992.43 650.63
00004686 00000038 681.75 220.78 366.15 561.45 853.69 459.85 1012.69 453.94 991.34 560.72 854.61 652.55 991.40 651.13
00004687 00000039 681.47 224.18 366.93 560.11 853.66 459.70 1013.79 455.48 989.90 561.71 854.73 653.93 991.14 653.87
00004688 00000040 681.60 226.78 371.15 556.84 856.30 459.90 1018.42 462.38 988.96 565.78 854.41 655.67 990.58 660.71
00004689 00000041 676.86 233.61 375.77 562.91 862.84 466.30 1012.82 473.11 985.05 574.94 860.96 663.03 976.41 670.64
00004690 00000042 676.35 243.61 384.29 557.28 870.59 471.32 1019.17 483.10 991.09 580.46 865.04 666.72 978.22 678.71
00004691 00000043 679.99 245.43 389.23 560.53 875.32 476.05 1026.18 489.40 995.01 585.79 865.50 670.40 981.07 683.76
00004692 DELETE   684.45 250.88 387.15 556.84 878.25 480.41 1030.94 494.55 998.55 589.06 871.08 674.40 984.34 688.32
00004693 DELETE   687.34 255.64 390.53 555.88 882.67 484.08 1034.44 499.95 1001.39 589.93 876.37 676.95 987.21 692.15
00004694 DELETE   691.69 255.15 390.07 557.71 885.69 486.36 1037.30 502.32 1003.16 593.16 878.60 680.24 988.94 695.70
00004695 00000047 692.06 257.01 390.81 558.31 887.86 488.71 1038.29 501.56 1004.81 597.27 883.23 683.66 992.29 696.62
00004696 00000048 694.76 262.74 387.42 554.59 888.93 492.45 1041.58 504.01 1008.30 599.56 887.35 687.13 998.72 698.78
00004697 00000049 699.03 271.59 389.36 552.47 898.57 489.96 1054.64 506.60 1023.09 613.69 887.00 689.66 1010.26 706.90
00004698 DELETE   704.69 274.71 384.57 554.28 901.16 501.44 1055.66 517.20 1025.11 615.84 888.07 692.56 1011.28 709.07
00004699 DELETE   706.98 273.28 387.00 557.30 904.19 504.64 1060.33 522.55 1027.77 618.66 890.14 693.76 1014.22 712.19
00004700 00000052 710.99 276.02 386.28 558.90 907.14 503.64 1061.97 519.28 1029.81 620.33 898.27 698.71 1018.25 715.10
00004701 00000053 713.87 281.62 384.08 555.78 909.71 505.42 1062.75 522.41 1030.97 622.39 902.40 701.96 1019.54 719.17
00004702 00000054 716.66 280.75 383.32 558.28 910.66 506.62 1063.60 521.78 1031.06 622.62 904.74 703.45 1021.15 719.20
00004703 00000055 720.10 278.23 382.90 555.49 903.28 503.25 1065.12 516.83 1027.77 617.10 904.17 705.28 1025.66 718.11
00004704 00000056 722.32 284.29 381.99 551.79 905.54 510.33 1065.78 520.94 1026.69 619.51 906.19 706.75 1027.42 716.65
00004705 00000057 722.29 281.11 384.30 560.75 914.88 506.12 1068.44 522.58 1034.35 621.42 907.58 701.13 1025.30 717.77
00004706 00000058 721.89 279.44 387.39 565.99 917.36 505.43 1070.67 523.57 1034.89 621.51 909.57 702.31 1026.89 720.14
00004707 00000059 723.23 279.54 387.50 567.19 918.35 505.25 1071.68 522.94 1036.37 622.28 910.27 702.50 1028.81 719.94
00004708 00000060 725.82 275.37 383.64 569.83 916.50 504.14 1073.60 520.43 1038.22 621.15 909.83 705.51 1030.17 721.86
00004709 00000061 727.69 278.28 383.04 563.96 915.91 505.87 1073.33 520.84 1037.99 621.86 911.33 704.83 1031.56 720.11
00004710 00000062 735.29 285.78 377.02 553.28 915.81 518.97 1073.25 525.86 1039.61 621.79 914.83 710.21 1040.19 716.90
00004711 00000063 732.90 282.40 380.20 557.82 915.97 511.74 1073.76 523.14 1037.35 621.21 912.26 700.95 1037.40 713.33
00004712 00000064 732.98 281.33 381.13 560.52 915.99 511.57 1074.42 522.71 1037.46 621.56 910.57 699.98 1038.19 712.23
00004713 00000065 732.27 281.27 382.64 565.19 915.62 509.76 1073.07 521.74 1036.94 620.07 910.66 700.13 1037.93 712.95
00004714 00000066 731.20 281.04 382.44 563.75 916.78 503.58 1074.43 515.22 1039.29 618.82 910.68 698.91 1039.02 711.55
00004715 00000067 733.23 280.50 380.87 561.20 917.62 502.91 1075.57 512.09 1041.64 618.25 913.13 698.27 1041.53 708.89
00004716 00000068 733.99 279.05 381.24 557.33 917.86 502.76 1076.14 512.16 1041.32 616.29 914.24 696.64 1043.31 707.42
00004717 00000069 732.59 282.42 382.00 552.87 915.34 503.86 1075.58 509.94 1042.25 614.61 916.00 696.79 1047.72 704.65
00004718 00000070 733.99 282.96 377.69 555.87 916.20 509.89 1075.35 514.29 1041.82 618.78 914.94 700.58 1044.14 707.05
00004719 DELETE   730.81 284.83 378.14 554.34 914.86 514.42 1073.40 515.44 1042.53 620.53 917.11 702.58 1045.31 706.31
00004720 DELETE   731.74 282.22 375.71 553.95 913.12 509.32 1071.94 509.57 1041.46 617.19 918.46 700.64 1046.78 703.64
00004721 00000073 729.34 277.53 377.24 558.47 909.26 507.70 1068.60 508.13 1037.39 616.48 914.83 699.80 1045.35 703.10
00004722 00000074 725.47 275.37 378.04 558.63 904.09 505.40 1065.35 504.63 1033.98 615.34 909.92 699.75 1043.45 702.17
00004723 00000075 723.57 275.67 377.84 560.24 902.80 504.87 1063.58 503.52 1033.97 615.62 907.45 699.50 1041.04 701.61
00004724 00000076 721.42 277.20 375.35 556.07 900.96 504.55 1061.21 502.15 1032.38 616.22 905.33 699.18 1037.50 700.57
00004725 00000077 720.50 274.66 372.95 555.09 898.36 502.27 1059.80 499.76 1029.85 614.48 905.08 698.37 1037.19 699.49
00004726 00000078 716.46 267.42 373.19 558.67 893.02 508.29 1050.10 499.82 1024.89 605.71 903.96 699.47 1030.09 694.44
00004727 00000079 714.43 264.76 374.39 558.33 890.41 509.33 1048.54 498.36 1023.09 604.86 902.75 699.40 1029.84 692.36
00004728 00000080 712.85 264.41 376.39 555.67 886.22 507.78 1047.67 496.47 1019.21 602.47 902.72 698.09 1030.81 690.57
00004729 00000081 712.56 263.14 375.78 556.07 884.69 506.33 1045.61 493.76 1017.71 601.95 901.23 697.69 1028.63 689.20
00004730 00000082 711.97 260.39 376.54 558.05 882.81 503.93 1045.13 492.17 1015.07 599.95 899.44 696.92 1026.82 689.15
00004731 00000083 710.39 256.04 376.85 560.44 882.74 501.21 1043.46 488.81 1015.05 598.35 899.55 695.80 1025.57 687.65
00004732 00000084 713.13 253.84 375.36 561.09 887.69 501.09 1045.57 488.13 1019.15 596.30 899.49 692.90 1025.69 684.85
00004733 00000085 713.53 252.45 376.90 559.75 890.13 498.50 1048.24 487.76 1020.24 593.24 899.46 688.27 1027.34 681.95
00004734 00000086 718.64 249.60 376.23 560.62 892.44 492.43 1051.86 482.14 1022.68 590.06 901.73 684.26 1031.50 678.27
00004735 00000087 722.66 248.86 373.87 554.85 893.24 486.66 1055.79 475.94 1025.81 586.74 906.45 681.38 1035.78 674.81
00004736 00000088 728.00 250.91 371.45 544.49 892.18 483.86 1059.08 473.57 1026.32 580.43 907.74 676.38 1040.32 669.99
00004737 00000089 730.29 241.12 373.68 554.14 899.07 480.33 1060.43 468.02 1032.68 576.08 911.41 668.69 1046.35 660.94
00004738 00000090 732.04 234.22 373.45 556.54 900.19 476.91 1060.94 461.07 1037.45 569.40 916.25 666.93 1048.33 656.27
00004739 00000091 733.39 226.58 373.73 561.05 900.97 473.11 1061.95 457.88 1040.28 564.71 914.98 663.13 1048.69 653.24
00004740 00000092 734.70 221.37 373.03 563.45 901.71 473.59 1063.65 457.52 1041.15 562.73 916.35 662.82 1050.46 652.06
00004741 00000093 735.17 217.61 373.83 562.60 900.32 469.33 1064.17 455.52 1039.07 559.08 918.12 661.93 1051.60 652.49
00004742 00000094 739.09 217.09 372.41 559.47 899.76 467.21 1065.44 452.87 1037.39 556.63 919.38 660.78 1053.42 650.68
00004743 00000095 742.27 215.44 370.83 558.70 899.98 465.90 1066.80 451.45 1037.53 556.67 919.81 659.89 1055.43 649.90
00004744 00000096 743.58 214.99 370.06 556.22 900.27 460.77 1068.66 446.22 1038.48 557.62 918.08 657.74 1054.89 648.08
00004745 00000097 743.89 211.75 369.77 557.77 901.23 457.41 1069.38 443.60 1039.18 556.07 917.51 655.67 1054.00 646.72
00004746 00000098 744.51 209.11 369.51 559.76 902.25 455.45 1070.74 443.30 1039.83 554.22 918.13 654.10 1054.80 646.38
00004747 00000099 745.18 208.45 369.58 559.99 903.35 453.76 1070.95 441.86 1039.26 553.98 919.93 654.37 1054.28 646.68
00004748 00000100 745.45 207.77 368.17 557.84 905.11 452.82 1072.50 440.69 1041.51 552.48 921.00 653.10 1053.82 645.41
00004749 00000101 747.98 208.64 365.13 558.17 908.69 457.73 1071.04 446.13 1043.09 553.86 921.11 651.47 1054.43 644.50
00004750 00000102 749.59 213.76 364.68 553.55 907.03 455.96 1072.99 443.32 1041.45 553.73 923.47 653.91 1057.44 645.66
00004751 00000103 747.40 211.21 371.19 561.80 905.60 453.49 1072.90 443.52 1039.43 553.00 926.70 656.44 1058.28 649.39
00004752 00000104 749.69 213.46 371.27 562.25 906.15 454.62 1073.96 441.62 1042.39 557.73 925.87 657.17 1061.25 648.19
00004753 00000105 752.47 216.48 369.71 561.30 906.63 457.31 1074.22 442.87 1041.83 559.73 925.62 657.42 1063.76 647.52
00004754 00000106 754.81 218.21 369.71 559.44 908.32 457.77 1076.04 443.46 1043.96 558.64 928.31 658.97 1065.68 649.44
00004755 00000107 755.43 217.53 369.11 560.18 909.91 459.04 1077.39 446.21 1046.21 559.70 925.89 657.16 1066.51 649.20
00004756 00000108 755.12 212.80 367.91 564.16 913.39 461.17 1078.93 449.45 1050.17 560.17 923.84 654.24 1066.48 647.66
00004757 00000109 755.54 212.12 366.61 556.40 912.13 458.11 1080.57 445.41 1050.01 556.11 924.25 651.45 1066.69 644.11
00004758 00000110 754.41 210.73 365.98 553.50 911.93 454.58 1078.98 440.85 1050.52 551.95 926.20 649.67 1065.77 641.33
00004759 00000111 750.58 208.96 368.51 556.18 909.05 452.52 1074.07 438.41 1047.17 546.27 927.07 650.18 1061.87 640.97
00004760 00000112 741.55 208.94 376.35 561.09 905.87 456.65 1069.77 439.90 1039.64 548.14 927.09 649.57 1058.30 636.32
00004761 00000113 738.98 212.11 374.95 558.48 902.54 456.54 1064.85 438.09 1037.33 545.69 923.08 647.08 1054.96 632.95
00004762 00000114 738.95 203.46 370.84 560.29 903.92 452.20 1063.39 434.53 1042.55 543.29 921.16 647.21 1051.07 635.30
00004763 00000115 735.47 201.66 370.69 568.89 902.16 453.36 1061.97 434.58 1042.41 545.44 925.68 655.30 1048.62 641.60
00004764 00000116 730.04 203.93 373.13 568.46 895.73 452.32 1058.90 432.10 1038.52 549.54 922.15 658.13 1046.20 642.78
00004765 00000117 726.58 205.24 373.04 563.05 891.27 452.53 1056.68 432.06 1034.13 550.41 918.78 656.59 1044.69 641.05
00004766 00000118 723.51 206.90 372.89 562.37 885.49 452.95 1049.16 432.14 1024.67 551.61 914.71 657.10 1038.20 640.90
00004767 00000119 719.68 206.46 372.13 564.16 884.00 456.90 1042.43 434.84 1017.95 552.69 908.57 655.10 1030.96 638.53
00004768 00000120 714.15 204.56 373.61 565.11 874.64 452.16 1038.13 429.87 1012.09 552.56 901.39 652.51 1028.93 635.60
00004769 00000121 705.54 213.65 377.61 555.11 868.81 443.26 1032.40 424.24 1004.10 547.48 895.53 645.10 1022.43 630.39
00004770 00000122 698.87 206.73 380.05 559.70 863.93 436.88 1025.87 421.29 995.65 544.76 890.27 640.00 1015.02 627.78
00004771 00000123 689.37 202.52 380.18 562.57 850.51 444.39 1016.68 422.53 985.78 549.00 879.51 640.03 1013.36 623.02
00004772 00000124 687.23 193.39 378.70 569.72 844.54 437.31 1012.71 416.79 981.15 545.49 874.53 637.37 1010.27 621.72
00004773 00000125 681.74 191.64 379.43 567.81 839.98 430.92 1006.60 410.93 978.20 538.80 867.87 630.79 1005.05 616.07
00004774 00000126 675.65 191.31 380.36 566.27 834.50 423.69 1000.93 404.90 971.68 530.53 864.99 626.10 1000.94 612.23
00004775 00000127 673.88 189.20 380.31 563.13 834.33 420.22 1001.36 399.07 976.23 519.37 863.05 625.95 998.25 610.07
00004776 00000128 670.79 186.09 378.93 568.28 830.10 415.29 999.14 394.33 974.70 515.33 860.13 625.41 996.84 609.56
00004777 00000129 667.02 180.66 379.64 571.34 827.97 415.09 998.00 391.62 975.62 515.51 853.86 621.85 995.08 604.72
00004778 00000130 663.14 179.41 379.81 571.62 824.33 415.86 993.79 391.28 972.03 513.87 851.49 619.93 993.23 601.58
00004779 00000131 660.14 178.87 379.17 569.96 818.73 417.95 993.25 391.90 969.86 515.13 846.23 618.96 993.43 599.35
00004780 00000132 657.71 174.30 376.19 569.32 815.41 418.14 989.78 393.39 965.58 518.11 844.60 620.10 988.71 601.27
00004781 00000133 655.31 175.95 374.75 569.00 813.27 419.46 985.98 393.71 961.98 517.84 845.66 623.51 984.69 603.35
00004782 00000134 652.86 175.30 374.36 572.82 813.87 420.41 980.21 394.76 958.06 517.66 845.92 622.84 981.19 602.55
00004783 00000135 650.23 171.00 373.01 579.74 810.89 421.19 974.23 394.33 954.35 517.66 841.06 623.37 975.90 602.27
00004784 00000136 646.88 172.14 375.29 584.60 810.68 420.98 970.22 391.99 954.68 516.68 837.42 624.22 971.46 601.54
00004785 00000137 644.98 167.89 375.87 590.33 810.91 420.31 968.57 389.48 955.86 517.21 838.88 626.57 969.23 602.40
00004786 00000138 645.42 164.39 375.36 586.81 809.37 417.87 972.17 388.84 955.51 514.00 845.13 627.86 971.13 604.89
00004787 00000139 644.28 160.01 379.17 587.23 809.78 415.85 977.13 387.39 958.01 511.44 848.34 626.09 976.38 603.40
00004788 00000140 644.28 160.93 378.54 576.36 810.00 414.63 979.57 385.08 960.54 507.92 851.68 621.90 979.68 598.14
00004789 00000141 643.82 161.58 377.50 570.97 809.94 412.84 979.48 383.02 961.95 504.87 851.98 619.76 979.70 595.76
00004790 00000142 644.53 154.21 376.97 575.65 813.33 412.69 984.11 386.38 964.66 501.40 850.50 615.27 982.38 594.24
00004791 00000143 644.75 151.01 375.53 577.35 817.65 414.67 982.79 388.48 969.28 497.15 848.51 610.36 980.80 589.95
00004792 00000144 642.89 145.13 375.49 580.45 817.12 406.53 980.84 385.05 969.88 490.75 848.14 607.26 978.04 590.68
00004793 00000145 645.49 139.90 375.92 579.94 820.46 396.62 982.49 378.19 970.96 480.59 853.22 599.21 981.31 585.00
00004794 00000146 648.01 136.49 373.67 575.13 822.75 388.22 983.64 366.56 973.31 473.22 856.75 590.85 984.53 573.97
00004795 00000147 651.89 130.18 375.27 575.18 826.53 379.98 986.66 356.56 978.66 465.25 864.48 586.48 990.39 568.32
00004796 00000148 655.68 123.64 375.26 571.62 827.98 373.06 990.58 345.75 981.29 458.79 864.75 580.18 993.34 559.15
00004797 00000149 653.94 116.88 379.43 581.34 831.72 370.23 986.89 338.83 983.61 454.43 864.76 576.80 990.57 552.81
00004798 00000150 654.32 119.43 378.51 575.34 831.95 366.33 988.26 333.21 985.45 451.35 866.73 575.28 990.98 549.93
00004799 00000151 657.53 120.11 378.54 575.03 834.58 366.85 991.20 332.78 988.63 449.63 868.55 574.26 995.26 548.24
00004800 00000152 660.95 118.67 376.65 574.65 837.27 369.82 993.10 335.62 991.98 451.70 871.05 573.74 998.43 547.82
00004801 00000153 668.33 126.15 371.46 564.15 841.29 372.78 999.96 339.47 995.83 457.21 876.37 575.27 1006.63 549.94
00004802 00000154 671.62 129.85 372.72 563.78 846.25 376.12 1004.51 342.35 999.14 460.04 880.87 577.91 1012.22 552.17
00004803 00000155 676.79 131.07 368.10 565.87 849.72 378.45 1005.78 346.13 1000.94 462.05 885.19 581.14 1012.30 556.52
00004804 00000156 680.52 134.04 368.11 561.79 851.81 380.67 1007.61 347.54 1002.42 464.46 889.08 582.23 1014.94 556.98
00004805 00000157 680.58 131.94 368.26 571.19 851.34 378.83 1002.78 350.85 999.46 464.37 903.68 584.50 1016.22 562.66
00004806 00000158 685.57 133.91 366.91 564.25 863.50 383.71 1012.52 350.59 1011.36 466.75 904.85 587.81 1022.15 562.06
00004807 00000159 688.13 136.02 364.85 567.94 868.74 382.38 1013.06 351.26 1013.34 465.20 911.35 589.17 1024.83 564.50
00004808 00000160 686.43 129.56 366.14 581.49 862.31 377.34 1000.14 346.99 1006.86 460.76 929.72 590.36 1024.79 565.24
00004809 00000161 690.12 135.48 363.63 573.11 867.51 377.43 1000.64 346.11 1011.98 460.04 937.54 589.27 1026.84 563.33
00004810 00000162 693.60 141.02 363.25 559.44 866.51 382.24 1002.79 346.14 1012.70 460.92 941.55 590.96 1033.89 560.86
00004811 00000163 694.84 143.60 363.91 559.86 867.12 384.37 1002.78 346.80 1013.58 460.64 943.17 590.84 1035.77 559.46
00004812 00000164 694.41 140.38 361.55 565.20 867.21 383.45 1001.84 347.27 1012.26 460.84 941.88 591.74 1033.77 561.59
00004813 00000165 689.85 136.43 365.75 568.09 866.14 381.03 1003.06 346.18 1013.90 457.18 937.08 586.30 1032.48 557.25
00004814 00000166 688.48 132.75 367.76 572.89 862.73 377.81 1003.67 344.14 1012.10 456.18 930.13 584.51 1030.90 556.52
00004815 00000167 690.17 137.86 365.62 567.83 869.56 379.83 1013.29 344.98 1016.95 457.67 915.58 585.59 1030.55 557.93
