Video ID: 	-Ui0Yr3DU2s
H: 	1080
W: 	1920
FPS: 	25.0

FRAME INDEX X0 Y0 W H [Landmarks (5 Points)]

00002440 00000000 603.10 257.20 379.18 532.30 788.41 485.37 932.55 486.03 896.06 585.88 799.38 672.34 901.56 673.77
00002441 00000001 604.70 255.54 378.88 530.55 790.26 484.81 934.73 487.47 897.05 583.92 801.71 669.76 903.47 672.69
00002442 00000002 605.61 255.54 379.13 529.47 790.50 486.39 936.18 487.98 897.93 582.17 802.97 667.61 905.97 669.62
00002443 00000003 606.19 256.39 379.55 529.17 791.97 486.17 937.73 487.87 899.90 581.61 805.02 668.32 907.66 670.31
00002444 00000004 606.12 256.92 380.70 529.96 793.63 486.25 939.07 488.57 901.06 582.74 805.99 669.85 907.02 672.16
00002445 00000005 607.19 256.67 381.49 534.30 795.66 485.88 941.60 489.49 904.62 584.90 805.93 674.01 907.00 677.50
00002446 00000006 607.38 260.29 381.41 532.01 796.28 491.03 945.54 492.68 908.20 591.92 805.59 675.87 911.59 677.79
00002447 00000007 607.48 262.88 382.31 535.39 798.83 497.54 947.60 494.58 910.32 604.62 808.30 685.04 910.29 683.21
00002448 00000008 610.80 270.32 381.79 537.78 800.46 504.66 951.50 503.98 912.08 614.83 807.29 692.42 910.72 692.82
00002449 DELETE   614.15 284.56 379.01 532.39 801.13 522.01 956.26 520.03 916.27 625.02 808.66 700.25 916.98 699.92
00002450 DELETE   616.79 288.01 375.81 529.46 803.29 520.23 957.26 516.71 918.98 626.06 812.97 702.39 918.86 700.74
00002451 DELETE   616.24 280.41 375.34 530.51 802.30 506.64 953.73 504.25 915.29 622.01 815.70 699.13 915.12 697.75
00002452 00000012 615.14 269.04 377.46 531.55 797.65 495.51 950.59 489.31 908.65 612.43 814.54 693.91 912.47 689.29
00002453 00000013 612.29 262.80 377.34 533.21 797.91 489.08 947.87 483.93 910.34 604.96 814.80 686.94 912.79 683.01
00002454 00000014 610.72 260.47 379.25 531.04 797.55 481.74 948.28 479.66 911.38 595.44 812.64 678.72 913.18 677.18
00002455 00000015 611.40 257.55 378.35 530.25 798.32 477.01 947.89 477.43 911.83 588.54 812.92 673.02 912.76 673.38
00002456 00000016 612.15 255.58 377.76 527.70 801.18 472.65 948.33 476.09 913.66 584.27 813.09 668.55 911.62 671.36
00002457 00000017 612.25 256.80 377.95 524.84 804.16 469.62 949.86 473.50 915.01 582.30 813.09 665.44 910.19 668.48
00002458 00000018 613.22 256.38 379.31 525.26 807.64 468.41 951.61 472.23 916.89 582.65 814.54 665.22 909.23 668.14
00002459 00000019 614.71 257.43 380.28 525.07 812.17 468.67 954.88 472.70 920.55 582.10 816.10 664.12 910.39 667.20
00002460 00000020 615.37 255.13 381.13 529.25 814.97 468.70 957.29 472.77 924.52 582.73 818.22 663.86 912.54 667.04
00002461 00000021 616.55 255.98 380.93 527.44 816.55 469.95 959.89 474.40 928.32 581.64 818.49 663.42 915.19 667.00
00002462 00000022 618.35 256.29 380.39 526.52 817.00 469.80 961.34 474.90 928.72 580.87 818.49 662.32 916.64 666.44
00002463 00000023 620.69 255.59 379.83 526.56 818.27 469.39 963.15 475.49 929.16 580.37 818.59 661.42 917.01 666.26
00002464 00000024 622.85 257.73 383.27 525.69 819.21 469.67 967.82 476.96 931.51 579.11 821.33 662.19 922.43 667.80
00002465 00000025 625.81 256.59 382.65 530.04 822.36 469.79 970.93 477.58 934.63 579.15 827.56 663.75 928.16 669.46
00002466 00000026 631.57 256.52 379.34 528.68 825.38 469.31 975.12 477.86 937.63 578.47 830.48 663.05 931.64 669.63
00002467 00000027 636.87 251.56 376.83 532.06 828.94 465.20 978.48 476.86 940.20 573.33 831.72 659.03 933.33 668.20
00002468 00000028 639.43 245.81 374.71 534.36 832.48 458.41 976.58 472.39 941.49 563.08 833.77 652.01 934.19 663.15
00002469 00000029 643.54 239.49 374.00 535.66 837.19 453.02 977.29 469.46 944.10 559.04 836.57 645.70 934.64 659.20
00002470 00000030 644.57 238.41 376.86 531.44 844.88 448.59 983.16 468.25 949.24 557.42 839.46 640.36 936.70 656.36
00002471 00000031 652.65 239.64 378.80 528.26 855.80 446.45 994.97 474.55 958.47 557.28 841.67 637.44 941.91 660.59
00002472 00000032 659.57 238.73 379.65 532.33 864.34 443.06 1005.28 475.47 970.29 558.29 847.01 638.55 949.17 665.54
00002473 00000033 667.12 242.49 376.50 530.67 872.24 443.15 1012.85 475.47 977.96 562.07 851.34 641.06 954.89 668.59
00002474 00000034 659.51 245.70 380.73 529.99 877.99 449.60 1002.65 473.14 977.14 570.65 856.82 641.59 947.99 661.46
00002475 00000035 662.57 248.68 378.35 527.69 879.41 452.24 1003.65 474.15 978.54 573.01 857.17 642.56 949.00 661.21
00002476 00000036 664.35 249.98 376.18 525.86 880.34 451.93 1003.55 472.99 979.12 572.60 859.25 642.25 949.83 660.14
00002477 00000037 663.70 247.72 378.11 529.94 881.18 446.09 1002.90 469.29 978.24 571.71 858.78 641.19 947.55 660.75
00002478 00000038 662.37 244.40 379.97 531.54 879.51 443.10 1002.60 467.63 976.93 568.44 855.95 637.57 947.40 658.30
00002479 00000039 661.20 240.36 379.97 534.59 875.75 442.04 1002.05 466.20 976.45 564.03 853.81 634.85 950.00 655.35
00002480 00000040 670.89 240.65 373.79 538.94 872.19 439.47 1013.19 467.66 982.75 562.57 852.64 642.46 959.82 666.77
00002481 00000041 667.16 242.49 372.63 535.54 866.32 451.39 1006.11 476.34 976.73 561.91 850.96 644.87 956.70 666.88
00002482 00000042 668.04 239.31 370.23 534.73 861.35 452.75 1008.99 474.22 978.09 556.66 853.17 643.53 966.74 662.32
00002483 00000043 669.75 232.75 366.74 534.59 858.42 449.70 1006.14 471.54 975.57 546.35 853.23 636.51 970.13 655.79
00002484 00000044 664.85 223.88 370.33 541.37 854.12 445.14 997.86 464.60 970.62 540.36 853.32 633.89 966.07 650.83
00002485 00000045 657.66 215.72 375.21 550.34 848.68 435.81 991.94 455.50 967.22 536.60 849.93 631.58 960.48 648.42
00002486 00000046 655.03 212.37 375.85 551.18 843.49 435.18 990.30 452.51 966.20 535.76 847.39 631.35 961.46 646.22
00002487 00000047 656.86 217.74 373.58 547.56 841.59 441.49 990.41 456.78 964.15 542.07 844.34 635.08 961.16 648.61
00002488 00000048 659.80 225.79 372.43 546.89 840.34 451.97 992.24 463.82 961.59 550.18 843.77 644.21 963.66 654.96
00002489 00000049 661.86 235.26 372.36 545.60 844.49 459.90 994.35 470.51 963.17 558.38 849.48 653.06 964.63 662.73
00002490 00000050 661.95 244.35 374.30 545.15 848.41 462.90 1001.40 475.45 970.27 564.53 854.51 660.85 970.26 671.71
00002491 00000051 663.18 246.28 374.92 543.40 847.98 464.06 1002.65 476.59 969.51 566.75 854.88 662.16 971.60 673.00
00002492 00000052 664.10 246.19 373.33 542.23 847.34 464.11 1002.43 476.03 968.05 565.29 854.28 660.51 971.88 670.77
00002493 00000053 663.72 245.09 372.70 541.63 846.56 463.71 1001.16 476.52 966.79 563.79 853.79 659.20 970.89 670.23
00002494 00000054 663.50 243.66 372.71 540.71 845.66 463.52 999.45 475.71 964.99 563.12 853.46 658.15 969.09 668.63
00002495 00000055 663.20 244.41 372.82 540.35 845.54 463.17 999.85 475.50 964.87 563.51 853.35 658.81 968.73 669.47
00002496 00000056 662.44 244.58 373.64 540.96 846.02 463.21 999.66 475.35 965.04 564.43 853.66 659.55 968.03 670.00
00002497 00000057 661.86 244.47 374.93 543.27 847.71 462.16 999.74 474.80 966.44 565.29 853.15 660.07 967.00 671.06
00002498 00000058 661.61 244.25 375.16 543.80 848.20 462.20 1000.10 475.18 966.96 565.45 853.13 659.92 966.79 671.20
00002499 00000059 662.38 243.46 374.85 542.95 848.54 461.86 1000.21 474.79 966.67 565.27 852.31 658.87 966.32 670.17
00002500 00000060 662.96 243.11 374.12 542.16 848.41 462.01 1000.21 474.45 966.46 565.29 852.27 658.50 966.82 669.40
00002501 00000061 662.67 242.08 373.75 543.17 848.33 462.90 999.46 474.40 966.51 565.40 852.28 658.31 966.81 668.44
00002502 00000062 662.15 241.57 373.63 543.30 847.54 463.49 998.62 475.08 965.68 565.12 852.32 658.13 966.29 668.24
00002503 00000063 661.43 243.16 372.54 541.92 845.65 463.54 995.49 474.50 962.54 564.50 851.07 657.52 964.03 667.16
00002504 00000064 660.98 241.28 371.50 540.18 844.30 466.62 993.18 478.98 959.32 564.84 850.31 657.33 961.09 667.95
00002505 00000065 661.71 240.88 370.50 537.05 845.42 467.76 997.62 485.81 962.38 562.26 848.10 653.92 963.31 669.45
00002506 00000066 658.19 239.25 371.60 541.16 841.52 463.42 993.06 479.42 958.70 560.97 843.53 652.57 957.96 666.50
00002507 00000067 654.21 238.95 372.89 546.11 840.22 460.99 982.86 472.40 952.43 561.00 841.34 652.68 948.21 663.04
00002508 00000068 651.58 235.02 373.38 543.74 830.86 458.32 979.93 466.54 946.13 559.16 836.33 650.81 947.12 658.19
00002509 00000069 649.09 231.22 374.26 543.07 825.65 453.89 977.74 461.21 942.34 553.94 833.10 646.81 947.49 653.35
00002510 00000070 646.31 227.86 374.94 543.26 824.46 447.87 973.68 457.28 939.15 547.48 828.66 639.14 943.65 647.50
00002511 00000071 642.72 217.44 377.80 547.79 819.76 437.08 972.43 448.68 936.62 541.24 827.81 636.08 940.54 645.94
00002512 00000072 634.42 208.15 379.84 540.91 811.66 428.27 969.80 439.64 934.45 528.94 828.29 625.29 946.19 634.44
00002513 00000073 625.95 191.39 377.33 546.38 802.01 426.14 962.54 433.45 926.11 521.86 825.64 614.35 944.41 620.26
00002514 00000074 621.22 184.52 379.58 552.27 799.09 415.11 956.33 428.05 921.84 508.84 816.44 604.75 934.29 615.69
00002515 00000075 617.39 178.57 381.08 560.37 801.07 403.94 952.74 424.16 921.80 500.49 809.82 599.68 924.29 617.18
00002516 00000076 616.18 175.46 380.34 559.15 797.74 403.47 952.87 425.24 921.20 498.22 808.52 597.53 926.23 616.15
00002517 00000077 615.54 177.62 379.00 553.59 794.10 405.88 953.28 427.15 918.27 501.20 807.71 596.72 927.30 614.62
00002518 00000078 613.73 183.91 381.66 553.93 793.49 412.78 949.63 428.40 914.98 511.23 806.65 604.91 923.84 618.49
00002519 00000079 613.96 197.31 379.90 547.57 795.94 422.55 949.29 435.62 909.87 527.35 808.65 615.49 920.31 626.76
00002520 00000080 618.87 222.27 377.99 541.53 806.00 432.04 948.52 442.66 915.85 537.86 813.33 629.09 916.43 638.02
00002521 00000081 621.79 241.01 377.10 533.04 811.55 451.83 955.12 455.06 922.61 557.18 818.01 646.01 920.14 649.23
00002522 00000082 624.73 256.50 378.43 527.61 811.61 468.02 961.67 473.62 923.71 572.66 820.02 659.49 925.34 664.00
00002523 00000083 624.49 266.66 382.94 530.57 810.15 485.83 963.83 485.45 921.81 599.22 819.88 680.03 925.04 679.97
00002524 00000084 631.57 289.39 380.78 523.72 812.86 495.71 963.77 495.61 925.18 612.34 816.66 692.74 928.26 692.89
00002525 00000085 636.19 298.33 378.86 521.59 814.36 508.04 965.25 507.21 925.75 621.33 819.92 702.73 928.66 702.25
00002526 00000086 638.93 303.58 377.11 518.31 815.88 511.39 966.79 511.05 926.93 624.43 820.13 704.87 930.56 704.98
00002527 00000087 638.67 301.55 378.09 519.62 815.17 509.66 966.61 509.25 926.05 623.09 818.73 703.91 929.98 704.07
00002528 00000088 633.80 293.14 379.11 523.45 814.25 503.84 962.22 503.46 924.21 616.89 819.33 697.38 927.00 697.19
00002529 00000089 631.10 283.69 380.40 524.40 809.02 492.67 960.74 494.15 921.62 606.91 817.66 690.03 926.95 690.81
00002530 00000090 625.21 263.32 381.69 532.13 805.84 488.87 963.03 487.82 916.55 601.26 820.13 681.50 925.76 680.52
00002531 00000091 624.87 259.35 377.90 528.88 805.06 481.95 959.25 481.36 915.60 590.95 820.65 673.18 926.07 672.35
00002532 00000092 622.96 260.98 376.40 522.77 804.42 478.44 958.15 478.39 916.20 588.48 819.66 670.36 923.45 669.99
00002533 00000093 621.36 261.10 375.99 522.71 803.57 476.76 954.55 476.41 913.59 590.45 817.56 672.82 916.59 672.22
00002534 00000094 618.96 260.32 377.89 526.68 802.68 477.31 952.65 477.48 912.31 592.12 814.02 674.55 912.92 674.75
00002535 00000095 617.70 262.09 380.90 526.43 800.12 483.78 955.29 483.48 911.89 595.98 810.97 674.56 917.28 674.70
00002536 00000096 618.92 266.60 379.84 526.26 800.03 490.37 955.59 486.29 910.66 605.93 813.43 683.58 917.36 680.52
00002537 00000097 617.99 273.27 382.54 526.22 800.27 493.73 956.22 491.28 910.54 611.27 808.73 687.58 913.46 686.37
00002538 00000098 617.85 280.16 381.58 523.02 798.80 500.96 955.71 499.73 909.40 617.47 804.04 689.59 911.58 689.75
00002539 00000099 616.22 280.26 382.14 522.22 798.16 500.15 953.42 500.14 907.43 616.67 800.65 687.61 908.25 688.90
00002540 00000100 612.38 276.92 383.73 522.51 796.78 493.80 949.50 492.94 903.20 612.41 799.52 685.93 904.09 686.52
00002541 00000101 609.25 270.58 382.18 523.34 794.66 488.50 945.56 487.35 900.43 606.75 801.00 681.29 904.28 681.13
00002542 00000102 608.37 264.38 381.07 525.22 791.57 479.27 940.98 481.25 898.08 595.62 798.75 673.63 902.46 676.01
00002543 00000103 608.38 258.76 378.58 522.77 789.41 470.30 937.22 473.30 895.42 584.46 796.52 664.74 899.84 667.77
00002544 00000104 606.32 249.10 375.09 524.72 788.80 460.14 934.02 465.06 896.19 568.22 792.78 653.20 899.02 657.84
00002545 00000105 612.87 237.43 368.48 525.09 784.04 452.75 935.50 465.24 896.08 556.61 788.13 644.42 904.38 655.95
00002546 00000106 611.04 229.03 368.41 526.22 782.94 442.60 934.29 457.96 896.10 544.11 785.58 634.22 901.31 648.24
00002547 00000107 600.09 216.06 378.53 535.96 783.75 434.72 931.31 446.78 891.95 547.64 792.50 626.91 898.44 638.21
00002548 00000108 599.72 214.12 378.68 536.50 783.62 433.84 930.22 445.18 891.44 546.98 792.13 625.18 897.61 635.93
00002549 00000109 599.72 218.56 379.00 539.11 782.34 438.71 929.89 449.01 890.74 550.33 792.44 629.65 899.60 639.52
00002550 00000110 612.76 229.29 366.93 533.76 783.51 451.39 931.23 461.03 897.29 552.18 789.68 643.00 903.81 652.37
00002551 00000111 606.72 240.14 374.13 535.73 788.54 456.19 931.63 459.89 898.03 564.20 796.77 651.15 901.93 654.89
00002552 00000112 607.96 249.52 375.51 533.48 791.15 464.18 936.58 467.13 898.87 577.76 799.59 660.15 903.47 663.19
00002553 00000113 609.59 255.98 376.58 532.14 791.16 471.31 938.62 473.79 902.07 583.20 802.44 667.73 906.60 670.66
00002554 00000114 608.71 257.67 378.64 533.50 790.50 472.75 938.21 475.85 900.64 585.77 801.50 671.65 904.24 675.05
00002555 00000115 607.49 258.25 380.80 533.57 790.51 473.10 938.45 477.93 900.36 585.39 798.19 669.32 903.75 674.46
00002556 00000116 605.73 256.58 381.62 533.09 789.95 471.88 937.11 476.38 899.32 584.18 795.93 667.21 902.52 672.18
00002557 00000117 602.87 257.13 381.91 527.84 789.22 478.11 932.95 481.70 892.22 584.47 790.52 662.46 896.30 666.85
00002558 00000118 599.22 253.09 380.46 528.53 779.74 472.61 929.36 477.24 887.27 574.44 781.09 655.99 894.79 661.37
00002559 00000119 602.31 249.32 371.31 526.03 773.42 462.55 928.76 475.93 885.66 562.80 772.56 651.78 892.07 664.31
00002560 00000120 591.35 245.46 376.32 529.10 763.17 458.22 915.92 470.47 873.41 562.49 766.04 651.06 879.17 662.19
00002561 00000121 582.12 242.12 378.36 532.44 749.98 457.65 904.63 469.78 859.24 561.42 756.70 650.16 871.14 660.61
00002562 00000122 574.61 242.69 381.06 535.86 743.27 457.60 896.66 468.36 852.20 560.51 751.61 650.61 865.16 659.76
00002563 00000123 573.00 239.93 380.94 540.42 739.11 454.96 894.70 465.21 848.86 562.01 747.69 650.89 863.43 659.65
00002564 00000124 570.04 241.17 382.15 542.04 737.58 455.56 893.70 465.13 848.49 560.79 747.30 652.15 863.58 660.33
00002565 00000125 573.31 246.03 377.58 536.11 739.41 463.69 895.03 473.82 849.43 563.19 751.11 653.82 866.22 662.27
00002566 DELETE   577.77 249.52 376.19 534.31 743.03 472.58 898.78 483.65 851.85 566.64 755.45 658.21 872.52 667.50
00002567 DELETE   580.94 252.38 375.48 534.19 743.32 479.20 901.04 488.29 853.92 573.32 756.46 663.17 876.41 671.01
00002568 DELETE   586.28 257.39 373.24 533.01 744.77 478.18 904.97 486.94 857.64 574.85 758.01 664.49 880.67 672.41
00002569 00000129 589.28 257.88 373.72 537.90 748.62 477.92 909.25 483.12 865.76 576.96 764.23 669.08 887.92 673.99
CROP_BBOX: 354 0 1259 951
