Video ID: 	bsMj0Del7ao
H: 	2026
W: 	3840
FPS: 	24.0

FRAME INDEX X0 Y0 W H [Landmarks (5 Points)]

00015790 00000000 1099.69 415.71 770.20 1130.02 1381.21 843.66 1687.81 849.94 1579.56 1087.60 1402.35 1242.14 1668.55 1247.72
00015791 00000001 1075.50 417.19 764.97 1137.77 1361.50 868.76 1670.10 861.95 1569.24 1097.98 1399.94 1270.52 1652.19 1261.84
00015792 00000002 1052.51 417.71 774.22 1148.82 1331.10 872.71 1635.87 865.60 1525.18 1106.36 1371.18 1276.25 1622.97 1265.94
00015793 00000003 1037.10 416.99 773.16 1145.67 1308.55 865.87 1617.01 856.76 1501.10 1106.48 1347.81 1272.71 1603.29 1261.60
00015794 00000004 1033.24 416.25 769.70 1142.37 1299.45 861.25 1606.79 848.78 1496.25 1093.73 1345.94 1270.64 1597.03 1257.16
00015795 00000005 1031.90 413.90 773.26 1143.35 1300.86 855.68 1609.92 844.73 1499.39 1087.85 1345.42 1263.56 1599.83 1251.32
00015796 00000006 1033.13 412.03 773.24 1142.43 1304.17 848.41 1613.62 842.31 1503.18 1080.00 1346.85 1257.98 1600.30 1249.55
00015797 00000007 1033.76 410.47 766.24 1135.79 1299.33 838.83 1605.65 831.94 1497.34 1068.26 1341.46 1248.77 1592.83 1240.08
00015798 00000008 1031.28 405.24 763.63 1133.19 1288.79 832.84 1598.16 826.24 1489.36 1060.59 1332.94 1240.03 1588.37 1232.15
00015799 00000009 1026.17 404.20 766.08 1140.19 1278.84 831.47 1591.57 825.75 1480.59 1061.49 1322.79 1242.58 1583.87 1235.64
00015800 00000010 1022.28 408.97 766.37 1145.06 1274.76 846.73 1582.19 837.81 1474.73 1079.27 1318.07 1254.09 1581.60 1244.67
00015801 00000011 1020.08 415.19 763.22 1148.62 1267.00 867.42 1575.00 850.88 1462.89 1107.73 1313.71 1273.92 1578.41 1258.16
00015802 00000012 1010.89 433.69 767.23 1134.68 1253.84 888.59 1560.89 870.46 1444.45 1127.34 1303.82 1281.71 1573.30 1265.42
00015803 DELETE   997.63 431.96 769.67 1128.92 1227.27 896.36 1539.37 876.23 1421.67 1132.86 1282.31 1279.09 1551.92 1262.76
00015804 DELETE   976.16 418.61 775.10 1141.29 1189.95 885.16 1510.34 867.74 1378.56 1124.32 1248.35 1272.05 1521.38 1258.25
00015805 00000015 941.04 422.07 784.39 1134.13 1172.30 887.02 1478.54 860.92 1348.57 1117.86 1233.13 1280.96 1482.18 1255.99
00015806 00000016 930.62 425.03 776.86 1124.66 1147.38 881.32 1441.99 861.50 1305.33 1113.07 1206.74 1274.50 1445.19 1255.43
00015807 00000017 925.94 425.25 774.71 1124.74 1133.07 879.70 1432.37 863.74 1290.11 1111.19 1189.38 1272.05 1434.78 1256.60
00015808 00000018 924.93 415.12 774.62 1133.31 1141.97 871.81 1437.91 857.66 1302.32 1104.21 1198.51 1269.63 1436.67 1255.00
00015809 00000019 932.46 413.31 769.37 1121.96 1159.44 859.78 1451.50 848.57 1323.68 1091.42 1212.15 1255.42 1448.29 1243.07
00015810 00000020 933.83 403.45 769.67 1124.62 1165.24 852.07 1462.19 839.78 1340.23 1085.36 1220.13 1252.03 1460.91 1238.35
00015811 00000021 929.53 402.85 771.23 1125.41 1165.88 853.54 1466.71 839.09 1348.62 1083.07 1226.31 1257.92 1465.88 1242.44
00015812 00000022 929.83 403.76 771.09 1125.21 1169.67 856.33 1471.74 838.94 1355.68 1083.37 1234.08 1262.77 1471.51 1245.11
00015813 00000023 933.27 394.92 774.90 1126.13 1168.14 853.54 1482.85 831.77 1363.79 1073.28 1232.88 1252.65 1489.39 1232.12
00015814 00000024 943.44 384.40 773.74 1128.82 1175.79 841.77 1498.18 819.47 1376.73 1057.89 1241.71 1244.45 1504.07 1223.41
00015815 00000025 954.85 382.27 765.55 1135.66 1206.48 827.42 1516.21 807.31 1406.76 1041.29 1266.52 1235.56 1516.61 1215.26
00015816 00000026 980.62 384.71 763.14 1143.39 1216.68 814.60 1528.32 813.19 1413.42 1034.49 1271.52 1221.82 1521.84 1220.39
00015817 00000027 999.81 389.95 759.16 1130.20 1231.53 811.43 1553.26 811.50 1430.26 1031.65 1281.77 1214.67 1539.79 1213.57
00015818 00000028 1009.03 400.78 757.15 1111.89 1244.25 809.69 1563.34 809.85 1443.29 1032.81 1296.53 1214.94 1549.09 1213.81
00015819 00000029 1014.77 400.56 754.50 1105.34 1254.34 809.47 1569.07 808.57 1451.39 1032.48 1305.70 1212.46 1553.80 1210.38
00015820 00000030 1015.33 400.31 757.11 1101.98 1256.50 803.28 1570.32 803.10 1451.85 1025.98 1306.87 1206.45 1554.46 1205.01
00015821 00000031 1010.92 393.97 760.07 1112.85 1255.32 795.34 1569.72 795.69 1451.29 1016.59 1301.47 1204.19 1552.50 1203.17
00015822 00000032 1006.74 386.37 757.56 1115.37 1251.14 788.43 1563.49 789.64 1447.20 1012.71 1293.68 1192.90 1546.69 1192.51
00015823 00000033 1003.32 380.44 756.51 1115.19 1251.97 782.25 1562.94 782.72 1450.46 1010.57 1294.95 1187.82 1545.96 1186.72
00015824 00000034 1009.45 380.14 759.62 1107.41 1267.53 782.07 1578.93 774.58 1470.78 1002.78 1317.10 1189.17 1565.08 1181.05
00015825 DELETE   1017.91 385.34 762.31 1103.20 1296.68 788.60 1606.77 771.92 1508.34 1009.32 1352.08 1200.00 1594.89 1183.36
00015826 DELETE   1032.20 379.44 767.53 1116.82 1327.78 795.01 1638.40 777.09 1550.37 1017.85 1393.55 1215.92 1627.02 1197.53
00015827 00000037 1050.02 383.27 753.01 1108.74 1350.49 807.38 1655.28 795.28 1575.79 1028.61 1416.58 1217.24 1652.75 1203.39
00015828 00000038 1062.91 396.67 746.40 1108.59 1358.24 821.31 1668.63 806.80 1589.38 1044.87 1424.40 1237.98 1663.43 1223.44
00015829 00000039 1069.64 405.99 744.41 1109.03 1364.22 829.97 1666.82 815.58 1585.36 1054.57 1425.84 1245.01 1658.78 1230.06
00015830 00000040 1074.95 408.59 747.06 1103.50 1368.50 831.83 1671.89 819.31 1587.61 1058.97 1423.82 1240.75 1661.64 1227.31
00015831 00000041 1082.01 409.91 752.37 1093.85 1373.52 824.95 1683.35 814.05 1599.04 1050.26 1422.80 1227.73 1675.69 1216.23
00015832 00000042 1088.33 402.10 757.35 1098.14 1379.75 815.12 1691.45 806.55 1607.61 1039.42 1427.60 1221.57 1683.14 1211.64
00015833 00000043 1098.44 399.72 754.22 1098.39 1386.13 811.74 1699.38 805.32 1611.44 1030.32 1430.88 1218.87 1689.35 1211.17
00015834 00000044 1104.01 402.17 752.42 1102.87 1394.78 810.47 1707.27 809.71 1616.79 1029.55 1433.27 1219.72 1691.80 1216.87
00015835 00000045 1106.81 412.77 751.21 1104.64 1404.50 819.86 1711.21 817.53 1627.38 1036.62 1441.62 1227.25 1698.79 1223.46
00015836 00000046 1112.78 412.48 755.32 1115.34 1414.22 820.62 1712.71 825.71 1623.81 1054.47 1447.38 1227.81 1698.63 1231.35
00015837 00000047 1116.37 413.15 755.70 1115.49 1421.80 832.15 1719.60 829.37 1639.70 1065.87 1459.00 1236.23 1716.29 1233.01
00015838 00000048 1123.48 416.68 753.50 1105.55 1425.51 836.90 1728.10 827.43 1646.73 1069.24 1469.44 1235.51 1729.61 1226.55
00015839 00000049 1129.06 417.06 751.70 1101.10 1428.67 837.49 1734.29 826.38 1651.18 1066.41 1471.29 1236.00 1731.61 1226.36
00015840 00000050 1127.64 412.00 760.52 1124.71 1424.94 833.63 1734.88 826.67 1649.65 1066.72 1465.47 1243.80 1731.01 1237.19
00015841 00000051 1124.04 409.59 764.42 1132.15 1414.88 832.82 1732.41 827.90 1640.30 1062.76 1455.70 1249.68 1722.96 1244.84
00015842 00000052 1123.09 410.42 759.72 1121.43 1407.08 831.63 1728.10 829.08 1631.61 1055.51 1452.91 1244.64 1721.70 1241.87
00015843 00000053 1119.83 411.84 767.22 1130.66 1399.59 836.94 1717.63 835.05 1620.02 1057.43 1444.04 1248.78 1710.68 1246.54
00015844 00000054 1119.59 419.97 766.54 1138.69 1400.02 843.99 1711.47 845.38 1614.04 1070.66 1436.96 1266.82 1687.89 1268.61
00015845 00000055 1124.07 426.47 765.90 1146.91 1402.51 862.84 1714.47 857.46 1620.56 1090.51 1446.37 1284.48 1700.57 1280.71
00015846 DELETE   1133.40 437.70 767.76 1147.59 1410.99 877.57 1736.01 862.02 1642.45 1116.56 1466.54 1301.34 1739.48 1287.45
00015847 DELETE   1142.97 454.39 767.92 1135.19 1440.19 894.11 1764.32 875.79 1674.93 1127.64 1496.38 1316.58 1762.73 1300.14
00015848 DELETE   1163.25 480.32 768.09 1118.22 1477.70 897.90 1805.74 886.76 1718.14 1126.60 1536.08 1319.24 1784.85 1307.69
00015849 00000059 1172.30 490.58 768.38 1111.09 1491.96 906.26 1820.80 893.42 1738.48 1130.60 1544.94 1318.63 1807.22 1305.99
00015850 00000060 1183.16 498.59 764.56 1106.81 1495.34 913.77 1828.99 900.93 1743.22 1142.01 1546.65 1324.74 1815.37 1312.05
00015851 00000061 1184.33 509.01 762.89 1113.70 1498.83 923.61 1824.08 913.99 1742.85 1158.22 1551.60 1345.27 1806.15 1334.65
00015852 00000062 1184.97 520.58 761.65 1116.11 1490.90 935.73 1812.90 924.71 1728.73 1173.24 1547.85 1361.29 1795.03 1348.76
00015853 00000063 1184.32 518.44 760.08 1122.52 1479.83 942.78 1798.62 931.27 1709.99 1185.42 1542.59 1370.25 1782.68 1357.44
00015854 00000064 1172.55 520.45 771.54 1126.36 1464.83 946.56 1781.08 936.51 1684.15 1189.94 1524.87 1372.32 1760.77 1359.88
00015855 00000065 1166.23 529.33 776.48 1126.22 1448.62 950.16 1769.26 942.08 1662.06 1195.00 1495.69 1373.40 1743.53 1364.03
00015856 00000066 1160.11 528.68 778.49 1135.69 1436.32 949.99 1758.67 944.92 1644.25 1197.84 1479.99 1377.04 1724.33 1370.22
00015857 00000067 1158.84 526.79 776.90 1137.64 1428.96 949.70 1754.61 944.40 1638.91 1201.54 1471.42 1374.46 1724.01 1367.88
00015858 00000068 1156.90 528.43 778.34 1135.58 1425.29 950.97 1751.56 942.75 1637.12 1201.57 1470.09 1373.34 1727.17 1364.22
00015859 00000069 1155.42 528.81 775.79 1132.52 1422.47 949.47 1746.71 940.54 1634.12 1201.24 1467.34 1370.97 1724.08 1361.33
00015860 00000070 1150.96 524.22 771.22 1132.80 1419.04 945.93 1742.61 940.11 1630.12 1199.85 1462.34 1366.88 1717.58 1359.89
00015861 00000071 1143.09 523.11 769.67 1131.23 1410.44 938.95 1733.45 938.57 1620.06 1191.05 1449.36 1359.58 1706.89 1357.37
00015862 00000072 1135.12 517.83 767.86 1130.25 1403.16 931.36 1724.41 931.53 1611.27 1186.58 1443.52 1353.10 1696.82 1351.37
00015863 00000073 1121.02 503.63 773.13 1128.22 1392.91 940.16 1716.33 926.76 1606.98 1179.35 1442.13 1342.36 1712.96 1335.00
00015864 00000074 1117.07 501.47 769.51 1127.58 1391.67 933.06 1707.61 920.62 1603.13 1171.51 1434.59 1331.74 1708.31 1324.97
00015865 00000075 1111.45 499.16 770.70 1122.03 1388.43 928.83 1702.69 916.50 1599.67 1166.56 1428.56 1324.10 1704.00 1317.44
00015866 00000076 1108.25 495.89 769.54 1119.90 1388.30 925.28 1700.71 913.78 1598.97 1165.75 1428.40 1320.78 1700.95 1314.96
00015867 00000077 1102.78 489.36 772.05 1122.89 1386.55 919.93 1698.12 911.56 1594.10 1159.55 1423.86 1314.66 1696.34 1311.14
00015868 00000078 1096.80 472.58 772.40 1134.67 1381.90 913.69 1694.47 906.21 1589.79 1151.05 1415.87 1307.03 1691.05 1303.84
00015869 00000079 1086.96 458.72 773.80 1131.90 1373.28 903.92 1689.23 895.90 1580.99 1142.12 1403.37 1292.40 1680.52 1288.24
00015870 00000080 1073.45 454.40 767.24 1133.40 1361.70 905.20 1678.53 881.59 1577.74 1136.96 1390.91 1297.15 1670.08 1276.38
00015871 00000081 1066.15 452.64 766.89 1136.47 1355.62 898.65 1668.66 885.34 1563.41 1129.63 1377.53 1287.06 1659.45 1274.34
00015872 00000082 1063.38 450.59 764.52 1136.64 1353.47 897.84 1663.73 887.95 1556.00 1133.36 1363.95 1275.32 1654.43 1266.21
00015873 00000083 1060.82 456.90 765.72 1138.20 1357.21 900.47 1663.46 892.01 1556.49 1138.38 1352.57 1269.60 1651.63 1262.86
00015874 00000084 1061.95 464.36 765.88 1130.34 1359.59 902.19 1664.88 893.67 1559.58 1140.58 1350.04 1264.54 1654.59 1258.74
00015875 00000085 1063.19 457.18 767.44 1125.61 1358.65 894.66 1666.43 888.93 1561.27 1128.10 1350.97 1255.07 1657.55 1251.69
00015876 00000086 1064.16 442.98 768.69 1121.85 1356.18 879.91 1671.15 882.66 1565.88 1105.60 1356.03 1242.14 1661.49 1245.16
00015877 00000087 1064.57 439.25 772.04 1111.56 1353.67 864.82 1673.31 864.95 1569.80 1087.08 1356.54 1228.61 1665.22 1229.83
00015878 00000088 1065.74 432.52 774.52 1119.73 1360.11 862.16 1676.19 860.29 1577.28 1085.25 1363.18 1226.11 1671.56 1225.48
00015879 00000089 1071.95 435.72 771.56 1118.62 1363.68 865.61 1679.88 863.00 1579.91 1086.77 1364.33 1227.53 1675.94 1227.03
00015880 00000090 1080.16 441.02 766.31 1116.24 1371.58 872.83 1684.13 870.07 1585.23 1096.95 1372.28 1232.83 1679.36 1232.29
00015881 00000091 1090.17 451.15 763.78 1110.04 1375.32 876.46 1690.53 872.73 1588.87 1093.93 1382.85 1240.57 1687.84 1238.75
00015882 00000092 1099.43 440.53 768.56 1125.99 1382.38 875.11 1684.10 873.16 1581.31 1102.34 1393.65 1249.13 1684.70 1248.34
00015883 00000093 1105.42 448.34 767.55 1118.09 1389.30 876.56 1685.84 873.59 1587.07 1103.58 1406.57 1252.83 1689.88 1251.25
00015884 00000094 1113.69 453.18 763.88 1118.05 1397.01 877.05 1690.62 875.15 1594.31 1105.18 1417.38 1259.99 1694.05 1259.30
00015885 00000095 1120.66 451.72 762.67 1121.90 1404.10 876.01 1697.70 873.72 1602.93 1107.53 1428.17 1265.48 1700.75 1264.00
00015886 00000096 1126.40 446.68 763.10 1127.91 1410.82 875.69 1707.86 871.81 1615.00 1109.66 1440.47 1272.83 1710.04 1269.54
00015887 00000097 1133.13 447.21 764.62 1130.67 1418.95 876.54 1724.17 866.59 1633.70 1115.42 1452.08 1280.54 1723.39 1272.14
00015888 00000098 1140.81 443.59 768.09 1133.91 1437.16 876.52 1743.94 869.33 1650.65 1113.76 1470.75 1282.42 1736.35 1275.65
00015889 DELETE   1150.19 440.83 763.55 1141.37 1465.85 876.79 1767.17 876.74 1683.82 1107.17 1496.81 1283.80 1752.33 1281.76
00015890 DELETE   1163.81 442.65 757.89 1142.34 1493.16 879.38 1798.36 884.53 1722.23 1097.23 1524.72 1285.62 1780.03 1287.27
00015891 00000101 1180.08 450.84 747.84 1138.77 1513.75 883.30 1813.70 886.89 1740.99 1103.28 1548.17 1294.39 1797.28 1294.23
00015892 00000102 1187.81 453.35 748.38 1144.92 1518.47 902.12 1825.76 901.23 1746.55 1116.99 1551.80 1313.09 1802.25 1309.29
00015893 00000103 1189.12 464.59 750.72 1136.91 1512.15 920.93 1831.28 915.86 1743.43 1137.00 1549.75 1326.69 1812.58 1319.47
00015894 00000104 1190.67 479.00 756.66 1133.36 1493.22 918.63 1831.74 917.14 1738.29 1152.84 1539.48 1344.95 1799.71 1342.66
00015895 00000105 1183.15 508.62 760.16 1147.44 1492.63 922.54 1816.66 927.86 1727.23 1171.85 1527.13 1363.92 1773.30 1366.67
00015896 00000106 1184.71 522.88 760.31 1161.66 1496.48 943.89 1814.18 949.07 1723.54 1202.08 1522.39 1386.95 1773.24 1388.18
00015897 00000107 1187.34 530.52 759.54 1158.64 1504.93 965.12 1817.05 968.68 1725.05 1218.65 1535.72 1399.92 1779.50 1399.25
00015898 00000108 1191.61 537.29 758.60 1145.29 1505.93 977.84 1816.81 978.48 1722.54 1227.21 1540.48 1401.24 1782.73 1398.20
00015899 00000109 1191.65 539.82 756.40 1139.68 1506.77 981.04 1816.30 979.87 1721.74 1231.73 1543.49 1402.91 1782.46 1398.13
00015900 00000110 1187.62 543.18 759.08 1130.64 1500.45 979.78 1813.00 977.47 1717.59 1231.44 1539.04 1399.90 1780.38 1394.41
00015901 00000111 1179.50 536.40 761.08 1137.56 1495.49 972.08 1806.86 974.33 1711.65 1226.35 1532.25 1395.61 1771.68 1393.73
00015902 00000112 1169.28 539.28 766.51 1127.85 1479.95 964.75 1795.19 966.45 1695.85 1220.67 1509.82 1383.28 1760.89 1382.31
00015903 00000113 1163.66 528.75 765.15 1118.23 1458.59 957.58 1783.95 956.48 1676.50 1215.46 1492.99 1370.36 1753.38 1367.91
CROP_BBOX: 545 0 2485 1966
