Video ID: 	6UkKDUVp4dU
H: 	1080
W: 	1920
FPS: 	25.0

FRAME INDEX X0 Y0 W H [Landmarks (5 Points)]

00022324 00000000 481.84 119.79 471.22 674.98 652.68 403.25 859.95 392.83 792.65 519.75 691.00 640.78 848.00 632.98
00022325 DELETE   490.47 131.75 473.66 667.72 667.97 412.25 872.65 398.12 814.56 530.57 721.06 659.07 863.78 647.71
00022326 DELETE   498.77 146.48 465.14 668.95 685.74 421.23 877.27 415.39 823.92 544.01 729.00 671.38 869.25 666.73
00022327 DELETE   507.13 156.68 463.75 669.19 696.93 436.50 887.98 428.40 837.30 557.00 739.38 685.02 878.07 679.02
00022328 00000004 509.17 161.50 464.57 666.53 707.13 439.23 894.88 434.90 846.45 562.90 745.77 686.12 883.17 683.02
00022329 DELETE   511.04 158.25 462.16 661.88 711.40 431.47 895.95 429.27 849.27 555.70 749.26 678.27 883.75 676.82
00022330 DELETE   508.86 152.48 463.24 657.49 711.89 418.95 897.47 423.09 850.39 545.38 741.68 661.00 884.42 664.50
00022331 00000007 505.38 144.09 465.89 659.38 711.15 406.42 893.86 417.37 846.59 534.06 736.32 647.21 878.58 655.70
00022332 00000008 505.61 139.78 465.76 661.86 705.32 399.38 893.45 409.91 842.17 528.35 728.69 644.60 875.32 652.72
00022333 00000009 502.01 134.76 467.66 658.75 705.49 394.84 889.83 405.80 841.24 522.40 733.78 639.91 871.60 647.94
00022334 00000010 500.50 127.11 468.63 658.53 696.66 395.18 893.37 396.22 839.03 513.52 734.76 639.59 871.91 640.45
00022335 00000011 494.15 123.93 471.10 667.97 690.00 389.93 888.16 394.12 830.80 509.41 724.60 637.09 863.80 640.74
00022336 00000012 488.16 116.72 472.68 688.94 683.17 381.63 882.77 390.62 824.97 503.89 709.22 633.90 856.58 641.90
00022337 00000013 484.71 114.42 471.84 694.06 676.98 380.95 878.46 393.18 820.50 505.15 696.29 631.31 852.77 642.13
00022338 00000014 484.15 115.14 468.97 689.50 672.45 384.98 873.82 393.21 814.63 504.89 696.12 632.37 849.33 639.99
00022339 00000015 480.34 115.02 468.74 687.25 668.95 389.34 867.37 391.38 809.75 505.28 703.46 636.11 845.29 638.77
00022340 00000016 475.83 116.71 469.19 687.36 663.95 393.60 860.77 393.23 803.89 506.34 703.47 640.10 840.86 640.68
00022341 00000017 474.46 117.97 467.14 685.61 658.97 395.29 855.59 393.30 797.19 506.23 700.79 640.91 837.29 640.05
00022342 00000018 472.35 118.26 465.13 686.67 652.93 397.66 849.97 394.71 789.97 506.50 695.45 642.37 832.17 640.57
00022343 00000019 468.48 129.44 465.99 666.25 648.61 399.42 844.66 396.57 791.70 513.75 694.30 649.92 836.71 646.48
00022344 00000020 461.72 130.65 468.95 666.37 642.22 401.16 839.00 398.11 785.44 516.93 688.15 649.58 832.66 645.90
00022345 00000021 458.88 132.13 467.91 665.51 638.85 403.39 835.39 399.28 783.40 520.83 687.03 651.61 831.31 646.94
00022346 00000022 456.66 132.50 467.42 665.47 636.51 405.92 833.80 401.27 781.50 522.37 685.13 653.37 829.69 648.35
00022347 00000023 455.40 135.04 467.66 661.04 635.14 407.11 832.39 402.48 779.24 523.60 683.97 653.66 828.88 648.71
00022348 00000024 453.26 135.67 468.26 664.22 634.12 405.47 829.76 400.90 778.38 521.34 680.49 652.44 826.71 647.65
00022349 00000025 450.17 136.45 468.79 663.54 630.51 404.45 828.94 399.58 775.95 521.19 674.04 651.72 824.27 646.93
00022350 00000026 450.41 135.79 468.10 658.23 628.41 406.67 827.77 399.53 775.01 519.69 677.56 650.38 827.51 643.61
00022351 00000027 443.80 139.87 470.44 654.00 622.18 409.08 825.41 399.94 771.54 520.93 670.38 649.38 827.50 641.01
00022352 00000028 435.37 143.04 471.91 651.14 613.27 413.73 814.83 403.04 760.39 523.24 662.51 650.00 819.38 640.63
00022353 00000029 424.28 144.28 469.28 656.40 598.24 417.52 797.58 407.59 741.57 526.08 642.37 652.77 801.57 644.52
00022354 00000030 413.07 149.03 469.60 661.81 577.35 420.59 781.52 410.40 717.11 525.40 618.31 658.01 783.35 650.10
00022355 00000031 396.89 143.83 473.08 669.03 558.88 421.18 768.50 410.63 697.94 524.91 597.23 658.91 770.35 650.67
00022356 00000032 383.88 150.89 477.31 661.00 531.39 431.25 749.75 412.17 674.96 540.44 576.32 666.49 754.00 650.47
00022357 00000033 371.13 151.64 479.41 660.37 520.95 432.68 741.46 414.93 664.71 542.78 564.42 667.65 744.76 652.96
00022358 00000034 371.16 150.82 475.64 668.33 521.37 432.88 740.27 414.76 665.72 544.07 565.58 671.14 744.73 656.36
00022359 00000035 381.38 154.87 474.57 668.44 533.29 434.64 751.28 416.43 678.90 549.26 578.07 674.63 755.06 659.70
00022360 00000036 393.77 150.71 472.80 671.72 556.01 431.84 769.80 417.00 699.65 539.58 596.45 670.31 772.45 658.85
00022361 00000037 407.26 156.93 468.72 665.37 572.19 438.57 779.37 424.45 714.86 544.36 611.61 670.75 781.52 660.02
00022362 00000038 418.35 160.57 464.52 664.68 584.66 440.69 791.59 428.57 732.02 547.52 624.16 675.17 793.75 665.94
00022363 00000039 421.34 162.34 469.46 667.97 593.91 441.91 800.66 428.77 744.62 553.91 635.28 680.48 802.03 670.48
00022364 00000040 421.20 164.06 469.90 668.77 598.42 449.93 803.56 436.61 748.05 557.07 639.22 684.42 802.54 674.32
00022365 00000041 420.40 163.47 469.13 673.75 598.35 454.68 805.43 444.26 744.10 560.06 634.33 685.85 799.28 678.24
00022366 00000042 417.71 163.18 466.48 677.86 585.91 450.61 795.40 439.94 730.01 559.78 622.22 686.79 789.76 679.06
00022367 00000043 410.77 159.28 467.96 678.02 572.41 443.25 784.11 432.68 712.40 559.10 612.53 684.77 776.91 677.05
00022368 00000044 405.15 158.46 468.47 677.48 563.60 438.11 777.67 430.89 701.53 557.28 601.21 682.98 766.70 677.97
00022369 00000045 393.46 156.78 475.30 674.39 544.67 441.48 763.48 431.75 679.97 567.65 590.23 691.04 751.62 683.07
00022370 00000046 391.29 156.46 471.40 672.53 531.87 439.30 751.39 432.53 662.75 565.36 573.91 687.63 736.55 682.33
00022371 00000047 389.39 154.26 476.86 670.39 519.88 434.66 742.07 430.32 643.93 558.96 558.40 682.71 723.84 679.30
00022372 00000048 382.47 148.79 477.70 677.00 502.26 428.61 727.27 422.53 622.48 555.24 539.77 678.37 710.07 673.65
00022373 00000049 374.92 142.96 481.74 684.82 486.21 423.75 712.04 419.14 598.65 552.40 517.09 673.04 692.49 669.64
00022374 00000050 367.68 140.72 478.36 684.64 473.65 419.87 698.03 414.02 584.35 549.15 505.41 671.18 677.67 667.22
00022375 00000051 360.01 136.61 485.48 681.61 468.35 420.58 692.94 409.32 573.39 543.24 503.24 675.17 670.40 666.53
00022376 00000052 365.34 136.23 481.44 680.89 469.92 419.32 693.06 407.76 571.61 540.49 504.56 674.36 670.18 665.58
00022377 00000053 376.13 142.10 479.14 671.27 475.82 417.64 702.67 413.53 578.89 538.90 505.19 666.41 678.14 663.22
00022378 00000054 382.11 140.46 481.60 674.00 480.00 416.52 709.11 410.72 584.26 536.82 511.40 665.99 687.70 661.20
00022379 00000055 390.77 123.29 482.68 690.61 491.65 413.66 713.03 403.55 589.48 530.67 520.31 666.39 689.09 658.91
00022380 00000056 392.49 130.19 477.03 679.29 492.88 404.57 719.06 398.10 596.26 522.40 526.22 658.98 696.98 653.38
00022381 00000057 398.23 123.54 475.03 674.73 498.94 395.93 725.59 392.13 600.68 514.97 528.97 651.50 699.90 647.41
00022382 00000058 407.17 98.88 470.46 685.61 516.64 385.42 742.55 389.39 619.95 513.99 542.73 638.89 709.75 642.08
00022383 DELETE   423.99 90.75 484.18 697.54 540.23 380.58 765.34 386.52 644.29 504.11 558.00 630.25 730.30 635.68
00022384 DELETE   440.97 95.22 484.57 691.69 562.32 375.67 784.50 375.10 666.59 494.16 586.71 629.04 747.94 629.45
00022385 00000061 443.86 107.51 490.80 676.28 568.84 368.65 798.90 376.53 681.08 487.78 594.30 625.07 757.57 630.23
00022386 00000062 444.66 96.38 480.44 685.50 564.91 367.22 789.98 374.87 670.21 490.34 584.70 622.60 752.10 629.85
00022387 00000063 440.97 91.74 473.15 690.23 557.85 364.93 780.64 374.47 661.64 490.02 572.64 619.66 741.72 628.33
00022388 00000064 438.90 86.83 471.30 699.86 558.01 367.85 778.76 377.34 661.08 491.68 571.63 622.25 741.09 631.30
00022389 00000065 440.27 87.68 484.02 703.92 569.46 374.47 790.56 380.57 677.95 486.48 587.31 626.41 755.24 632.66
00022390 DELETE   447.22 88.34 480.70 700.20 592.55 369.79 818.97 379.69 718.16 486.72 611.64 622.08 787.74 631.55
00022391 DELETE   461.70 91.00 482.15 701.43 630.70 369.76 843.30 377.46 759.62 478.65 646.76 616.07 819.88 622.85
00022392 DELETE   475.51 93.37 480.67 703.94 654.18 364.46 864.39 371.78 797.44 465.21 680.67 616.38 850.36 623.17
00022393 00000069 488.78 108.32 471.77 669.48 675.70 357.25 881.79 373.33 824.62 454.93 702.91 602.31 871.09 613.15
00022394 00000070 499.01 94.96 476.55 673.07 680.37 366.68 885.69 366.49 832.68 461.27 715.76 604.39 885.13 604.92
00022395 00000071 500.41 95.60 476.06 670.81 679.71 370.01 886.63 366.86 832.49 463.23 717.84 605.95 888.58 603.85
00022396 00000072 497.01 103.93 478.52 665.56 675.98 375.93 884.11 370.37 828.80 466.39 717.66 611.18 887.25 607.34
00022397 00000073 496.87 112.83 479.21 662.69 673.53 386.47 883.85 376.66 825.68 480.01 716.60 618.10 887.49 610.54
00022398 DELETE   498.80 129.49 481.14 658.79 678.84 397.71 887.57 392.95 829.38 497.49 719.87 629.71 893.40 624.64
00022399 DELETE   499.06 145.22 480.37 661.87 677.13 419.53 884.41 408.18 830.02 526.87 718.68 652.84 894.25 642.97
00022400 DELETE   502.34 160.94 476.91 670.24 681.77 435.02 887.50 421.19 834.59 551.61 722.45 675.99 892.69 665.20
00022401 00000077 502.20 167.02 481.80 688.70 686.56 447.27 891.64 435.03 839.22 564.50 727.09 693.97 892.61 684.51
00022402 00000078 506.15 184.15 476.28 676.68 689.12 452.93 896.43 445.91 841.96 572.68 729.15 701.36 897.24 693.24
00022403 00000079 509.07 191.61 472.63 666.04 688.78 456.60 893.99 447.50 840.53 575.22 732.95 705.24 895.63 695.76
00022404 00000080 506.34 185.20 475.68 667.90 687.60 461.77 892.17 445.78 839.78 579.10 736.42 708.38 889.83 695.78
00022405 00000081 505.48 181.21 475.16 666.63 686.76 456.74 891.56 442.08 838.32 574.07 736.71 706.05 887.30 694.55
00022406 00000082 500.13 174.48 478.18 664.90 685.60 452.17 888.43 437.19 835.21 565.92 738.66 697.91 886.77 685.99
00022407 00000083 500.70 171.63 473.42 658.51 688.29 445.57 886.68 431.02 836.52 557.29 744.38 691.38 888.43 679.97
00022408 00000084 501.69 168.53 471.15 660.63 689.92 438.61 884.24 426.13 836.75 548.49 747.95 687.29 888.32 677.61
00022409 00000085 503.85 161.69 468.95 670.48 696.16 432.38 884.84 421.84 842.11 542.58 756.25 685.37 891.31 677.11
00022410 00000086 504.08 159.44 470.71 674.74 702.43 431.59 886.67 421.03 849.62 540.85 765.02 687.06 894.64 678.81
00022411 00000087 504.05 161.44 468.16 673.34 703.98 434.28 887.91 422.62 851.79 543.71 764.96 687.44 895.24 678.31
00022412 00000088 496.18 162.89 472.11 674.39 696.51 436.10 884.47 426.34 844.56 547.63 749.73 685.91 887.31 678.48
00022413 00000089 484.57 166.81 473.62 669.20 678.15 437.75 873.90 431.77 826.21 549.21 726.48 685.23 871.31 680.86
00022414 00000090 471.48 158.72 473.98 675.44 659.67 438.44 863.32 435.09 804.83 554.04 697.59 681.78 850.38 679.94
00022415 00000091 462.99 161.74 473.98 676.93 643.94 438.02 851.55 439.87 784.26 555.58 672.49 681.10 830.91 683.41
00022416 00000092 441.17 159.28 481.08 685.17 630.14 438.52 831.90 440.24 769.32 565.78 658.97 689.55 811.93 692.08
00022417 00000093 432.18 163.03 482.06 688.98 619.23 436.30 824.00 443.06 756.79 564.32 640.86 690.35 799.53 697.46
00022418 00000094 428.05 165.69 481.22 680.56 609.89 436.50 819.23 441.21 748.86 564.20 632.30 686.73 796.84 692.06
00022419 00000095 427.48 166.62 480.27 674.87 610.50 436.36 818.87 440.40 749.80 562.72 633.67 683.90 798.42 688.60
00022420 00000096 430.68 165.15 479.38 678.57 616.63 437.46 821.57 439.85 757.77 563.80 641.90 684.18 805.27 687.35
00022421 00000097 432.29 163.32 482.80 675.23 623.43 441.20 826.27 440.86 766.31 566.24 651.23 682.90 812.98 683.38
00022422 00000098 439.75 167.01 479.25 674.18 631.88 446.53 830.77 442.44 776.87 569.98 660.36 683.47 821.94 680.34
00022423 00000099 450.55 168.53 477.87 677.31 638.98 448.10 842.64 443.77 787.56 564.03 668.70 682.41 838.13 678.40
00022424 00000100 458.16 174.72 475.77 682.43 642.55 452.02 847.88 446.37 792.17 570.30 676.21 690.49 842.06 685.72
00022425 00000101 463.38 182.41 475.10 681.80 645.38 458.87 852.99 448.28 798.41 581.37 683.37 701.46 847.63 693.15
00022426 00000102 467.23 188.06 476.26 681.52 648.79 465.58 855.30 451.66 801.19 586.62 689.51 708.75 851.03 698.03
00022427 00000103 471.17 193.48 474.64 680.26 650.68 469.01 856.91 454.89 802.10 592.55 691.59 713.91 851.50 703.20
00022428 00000104 471.54 191.58 475.27 682.41 650.72 470.30 858.64 456.64 801.77 594.95 691.69 717.14 851.25 706.68
00022429 00000105 472.24 191.19 474.35 681.12 650.80 469.36 858.59 455.37 800.93 593.46 694.34 717.84 849.59 707.30
00022430 00000106 469.99 184.50 474.25 678.00 649.46 464.43 855.89 451.12 798.64 585.01 695.33 712.29 844.77 702.46
00022431 00000107 469.36 176.94 470.43 673.55 652.47 454.93 852.65 447.71 795.47 570.77 701.46 701.65 839.04 696.84
00022432 00000108 467.76 167.57 466.36 676.86 648.08 446.95 846.38 443.49 787.43 560.06 695.57 694.25 831.40 692.39
00022433 00000109 466.10 159.81 463.51 675.69 646.20 437.82 842.26 438.34 782.83 549.03 688.93 683.63 823.04 685.12
00022434 00000110 464.05 149.98 463.65 682.29 643.66 428.13 839.74 431.43 779.10 543.69 679.43 675.39 820.78 679.03
00022435 00000111 455.45 150.31 468.75 668.45 636.55 424.30 832.91 420.93 777.35 544.54 683.34 676.57 824.11 674.16
00022436 00000112 452.86 144.08 471.20 662.85 632.20 416.41 831.82 414.25 774.42 531.15 679.25 666.42 822.07 664.97
00022437 00000113 448.22 136.31 474.71 665.73 627.88 405.99 830.91 406.14 771.24 524.13 670.67 656.79 818.68 656.87
00022438 00000114 443.46 134.04 477.36 658.92 622.13 399.45 825.53 401.24 761.90 514.60 663.01 647.58 811.42 648.86
00022439 00000115 440.17 130.77 475.97 653.85 612.68 392.58 815.00 394.88 748.21 504.28 654.99 638.07 798.32 639.35
00022440 00000116 431.47 116.80 481.08 662.84 596.45 386.95 808.08 383.12 731.87 497.19 644.98 634.44 791.65 632.44
00022441 00000117 420.10 104.90 477.68 666.00 576.79 379.45 786.33 375.42 702.58 488.10 618.89 622.38 767.98 620.07
00022442 DELETE   410.18 92.05 478.75 673.20 552.36 372.72 764.76 369.05 670.50 480.20 590.90 616.87 741.88 614.57
00022443 DELETE   402.40 87.53 481.04 675.25 534.95 369.45 745.50 366.74 643.32 474.92 568.60 608.48 716.18 606.84
00022444 00000120 389.61 99.58 478.72 667.99 505.42 364.68 725.24 357.97 618.71 463.58 544.07 617.28 696.63 610.04
00022445 DELETE   384.50 77.25 483.86 684.73 496.84 362.88 709.89 350.45 591.73 461.71 529.64 606.53 677.84 597.35
00022446 00000122 370.41 75.55 481.45 676.59 476.88 360.42 696.30 347.90 574.04 454.78 506.60 605.38 665.97 595.68
00022447 00000123 368.50 76.72 479.65 666.50 469.69 358.64 687.88 345.85 561.81 450.07 499.21 599.87 658.50 589.67
00022448 00000124 367.67 75.25 475.20 667.14 464.81 355.85 683.24 340.78 555.17 447.37 496.61 598.62 655.06 586.58
00022449 00000125 366.51 68.10 480.54 681.19 461.52 350.56 679.11 337.11 546.26 450.65 489.33 598.00 650.43 587.81
00022450 00000126 367.13 68.36 480.18 682.06 460.59 350.70 681.22 337.82 545.87 450.57 487.89 597.31 652.04 587.63
00022451 00000127 371.16 69.66 477.70 682.28 462.08 351.06 682.99 338.90 545.41 452.09 488.73 596.33 656.15 587.26
00022452 00000128 375.10 69.31 477.78 682.68 464.82 351.05 685.67 339.93 547.70 454.42 490.00 595.78 658.85 587.67
00022453 00000129 378.13 70.23 474.48 682.46 467.60 351.02 688.50 341.94 549.49 456.24 490.56 595.80 658.85 589.55
00022454 00000130 380.27 69.66 475.29 684.66 470.05 350.66 690.21 342.69 549.80 456.20 490.17 595.73 656.99 590.56
00022455 00000131 381.80 71.33 472.79 683.99 469.78 349.02 688.69 342.03 547.75 455.20 488.75 594.80 654.19 590.46
00022456 00000132 383.56 66.89 472.48 686.98 470.21 344.33 689.74 340.76 545.57 452.77 484.41 590.29 650.47 589.07
00022457 00000133 381.87 62.64 471.43 682.02 471.61 339.41 691.26 340.20 548.81 445.07 486.84 586.57 649.68 588.28
00022458 00000134 387.87 57.83 467.33 680.58 477.05 333.26 696.58 341.28 553.65 443.05 487.02 578.04 653.00 585.74
00022459 00000135 389.78 62.09 470.01 669.88 493.04 326.05 713.45 346.51 571.04 439.87 487.62 564.66 662.88 581.05
CROP_BBOX: 0 0 1199 1080
