Video ID: 	D2aWws-bgc0
H: 	1080
W: 	1920
FPS: 	25.0

FRAME INDEX X0 Y0 W H [Landmarks (5 Points)]

00016535 00000000 776.68 269.10 541.19 626.68 901.99 424.16 1128.35 501.04 924.17 568.93 837.86 678.76 1011.22 742.65
00016536 00000001 783.42 280.23 535.66 617.89 908.22 433.95 1135.89 511.00 933.31 577.26 847.18 685.90 1021.78 749.80
00016537 00000002 791.81 276.38 533.82 629.04 920.28 437.65 1142.56 520.41 951.48 579.89 859.16 686.80 1032.93 756.95
00016538 DELETE   803.34 294.99 532.96 624.31 934.67 451.95 1158.47 522.56 971.27 587.30 877.95 703.24 1053.97 762.85
00016539 00000004 804.91 284.70 543.04 636.99 935.44 463.97 1165.88 530.40 983.40 600.03 885.96 710.29 1067.04 767.76
00016540 00000005 810.77 282.96 546.59 646.95 945.10 461.32 1173.42 529.29 987.89 597.86 891.71 710.97 1073.07 769.21
00016541 00000006 814.39 271.34 545.44 665.30 945.01 458.91 1172.88 524.64 991.20 581.09 891.79 716.51 1077.68 775.70
00016542 00000007 816.04 270.74 542.52 666.99 942.52 458.53 1172.92 519.25 991.50 578.43 892.46 721.05 1080.90 776.10
00016543 00000008 814.12 273.80 542.52 663.54 940.72 454.62 1171.39 514.36 989.79 578.67 891.77 719.40 1080.23 773.47
00016544 00000009 810.76 281.77 539.59 657.92 934.61 455.67 1165.94 513.32 985.14 579.26 887.27 723.10 1076.42 775.54
00016545 00000010 810.80 281.18 540.71 661.44 930.24 459.25 1160.51 512.21 977.19 578.88 883.90 725.74 1073.28 774.15
00016546 00000011 814.39 278.55 536.77 661.49 929.37 454.00 1161.55 508.41 975.14 579.20 883.93 721.23 1073.60 770.66
00016547 00000012 816.33 275.95 533.61 662.46 928.89 449.19 1163.36 505.01 973.78 576.13 882.49 717.62 1076.96 768.08
00016548 00000013 815.13 264.79 530.16 680.70 925.99 448.98 1157.05 497.04 966.42 573.13 886.33 720.60 1068.90 762.45
00016549 00000014 814.61 256.51 532.27 685.34 924.38 445.93 1157.24 493.20 966.31 566.35 885.38 717.56 1069.64 758.94
00016550 00000015 812.55 254.71 531.38 684.56 921.83 444.39 1154.92 491.46 965.08 562.60 882.70 715.92 1067.87 757.22
00016551 00000016 811.84 251.46 527.99 685.17 918.85 444.57 1151.38 490.86 962.90 560.10 880.56 715.29 1062.22 756.18
00016552 00000017 807.79 256.05 528.19 679.01 915.28 444.51 1149.94 491.50 959.48 559.75 874.77 715.40 1059.15 756.61
00016553 00000018 804.15 255.88 525.91 675.14 908.54 438.38 1146.79 484.06 954.72 553.32 867.27 712.43 1056.62 752.48
00016554 00000019 801.36 253.18 528.19 672.13 905.77 438.83 1145.93 483.28 949.07 554.03 867.72 704.92 1071.08 742.33
00016555 00000020 795.61 252.07 533.08 670.03 903.92 440.82 1142.92 488.11 946.79 562.12 866.61 700.42 1073.67 739.66
00016556 00000021 793.94 246.20 539.41 678.76 904.81 447.06 1140.63 500.63 945.41 570.75 865.60 700.73 1069.79 745.46
00016557 00000022 793.49 250.38 539.15 675.09 904.95 451.96 1134.92 506.25 942.30 580.57 867.03 704.50 1063.03 749.70
00016558 00000023 792.35 264.04 537.06 656.47 892.99 458.39 1131.34 502.92 941.67 588.31 865.77 718.79 1058.41 755.82
00016559 00000024 787.37 251.23 537.43 657.05 887.12 453.77 1126.44 500.27 934.57 584.17 857.79 712.91 1050.83 751.48
00016560 00000025 789.79 256.44 535.49 642.65 891.10 446.46 1128.87 496.76 933.73 573.70 854.12 701.64 1046.88 742.95
00016561 00000026 786.24 242.72 531.35 649.42 887.21 443.37 1120.95 488.23 928.51 563.34 850.36 695.29 1041.96 732.39
00016562 00000027 784.31 237.90 534.73 652.18 885.99 440.26 1119.70 485.07 927.83 560.87 848.20 692.49 1039.70 729.54
00016563 00000028 785.12 243.59 533.56 643.70 887.46 438.16 1120.34 482.96 929.26 557.61 849.05 688.82 1042.31 725.75
00016564 00000029 784.68 232.66 534.88 659.09 885.74 441.63 1118.87 483.36 927.32 559.06 848.40 694.75 1041.69 729.55
00016565 00000030 783.03 241.42 531.50 652.46 884.31 446.47 1117.79 487.61 927.55 560.19 849.98 696.41 1047.28 730.18
00016566 00000031 782.69 258.72 530.29 641.67 880.91 442.96 1111.68 482.22 920.27 557.83 848.55 696.18 1049.14 727.87
00016567 00000032 776.73 246.99 519.41 656.14 868.76 436.03 1106.25 475.41 911.01 549.24 837.30 700.41 1045.00 733.90
00016568 00000033 770.25 254.75 521.84 652.02 854.98 442.69 1093.55 474.78 897.27 552.12 829.07 708.23 1036.10 735.44
00016569 00000034 763.09 254.85 526.07 651.75 850.51 443.57 1088.39 478.77 894.71 560.18 826.04 709.97 1028.90 739.78
00016570 00000035 763.76 265.70 526.41 646.88 850.64 445.23 1086.53 486.42 891.77 567.95 822.46 712.86 1022.72 747.22
00016571 00000036 759.37 270.73 528.53 644.50 848.30 451.42 1080.18 494.05 885.95 574.63 819.30 714.27 1014.53 749.96
00016572 00000037 757.24 267.78 529.85 643.47 844.76 447.48 1079.36 490.89 883.31 571.29 815.04 711.93 1011.88 748.58
00016573 00000038 757.89 256.19 527.68 649.04 843.52 444.84 1078.62 486.46 884.07 567.10 815.45 709.43 1013.38 744.86
00016574 00000039 756.43 258.17 526.48 643.74 840.21 443.35 1077.61 486.46 882.03 565.83 812.46 706.46 1010.83 743.32
00016575 00000040 754.08 252.75 528.45 647.96 840.11 442.22 1076.38 485.76 880.03 564.67 811.42 703.91 1008.07 741.29
00016576 00000041 755.26 250.16 525.63 645.90 839.06 442.15 1074.79 484.71 879.68 563.52 811.75 703.14 1006.15 739.98
00016577 00000042 752.50 251.68 527.48 645.51 837.48 444.07 1073.55 489.29 877.88 568.32 808.86 702.94 1006.26 741.75
00016578 00000043 749.49 253.95 529.49 644.23 837.68 448.64 1073.98 493.82 880.86 571.97 808.13 705.79 1005.10 744.74
00016579 00000044 746.85 249.21 530.64 647.97 835.36 446.56 1071.45 493.05 875.57 572.47 806.35 702.55 1003.44 742.57
00016580 00000045 746.66 255.73 531.50 641.70 835.35 446.90 1071.05 492.25 875.66 570.81 806.67 702.92 1001.63 741.90
00016581 00000046 747.65 260.82 532.38 637.84 835.88 451.93 1072.34 496.99 877.13 574.01 805.18 707.60 997.72 746.39
00016582 00000047 749.71 264.44 524.19 628.36 834.72 447.69 1066.84 494.94 872.29 574.93 802.92 706.55 977.66 747.69
00016583 00000048 750.73 259.14 519.98 630.08 837.81 442.87 1064.39 488.92 873.32 574.03 805.00 704.56 968.64 745.23
00016584 00000049 754.07 260.81 512.18 636.77 842.33 446.88 1062.87 489.45 878.50 567.85 807.31 703.56 964.92 741.83
00016585 00000050 753.04 259.58 516.92 626.32 839.78 436.79 1062.52 480.76 871.58 569.23 807.09 703.98 962.12 743.37
00016586 00000051 753.44 258.13 513.58 625.92 841.10 437.38 1062.48 479.95 873.20 568.47 807.93 705.35 959.80 743.65
00016587 00000052 754.99 256.62 517.32 634.72 845.23 440.64 1065.59 482.34 876.98 570.16 811.15 708.31 961.83 746.14
00016588 00000053 756.23 255.93 511.53 648.35 845.98 450.23 1063.28 489.64 878.56 568.59 809.73 710.67 956.50 747.15
00016589 00000054 758.61 261.07 510.94 647.78 847.55 455.45 1066.34 496.80 880.38 577.21 810.56 714.86 959.23 752.59
00016590 00000055 756.91 260.82 519.10 646.86 844.76 456.01 1069.63 499.68 877.69 586.48 812.88 717.61 980.58 756.06
00016591 00000056 754.52 265.52 529.53 658.71 851.85 455.20 1074.64 502.18 881.15 586.15 817.12 716.81 994.22 756.94
00016592 00000057 752.19 263.52 535.01 657.00 847.90 449.88 1082.24 499.10 885.22 580.25 812.90 712.47 1004.53 754.39
00016593 00000058 755.93 260.31 534.13 643.66 852.67 436.03 1095.31 478.60 899.57 555.06 820.29 701.93 1011.52 738.88
00016594 00000059 759.67 238.36 531.81 648.22 855.74 428.51 1096.67 467.16 904.25 540.42 822.87 691.20 1011.28 726.60
00016595 00000060 761.32 237.93 533.87 649.27 862.82 422.10 1105.49 464.76 910.11 536.16 825.58 686.83 1015.72 725.23
00016596 00000061 762.37 241.28 533.43 648.70 861.84 423.94 1105.91 464.51 910.94 538.31 828.37 689.32 1022.15 725.48
00016597 00000062 761.21 240.03 532.96 655.12 856.16 428.15 1102.05 466.15 908.25 542.85 825.85 697.61 1025.39 731.39
00016598 00000063 759.19 244.89 534.06 654.81 854.20 431.95 1100.56 469.75 905.96 545.73 824.59 699.38 1023.99 732.90
00016599 00000064 757.99 245.73 534.68 655.70 854.84 431.55 1100.30 469.08 903.37 544.20 823.23 698.80 1020.47 732.15
00016600 00000065 756.37 244.96 536.56 660.08 858.39 425.81 1100.01 466.29 900.90 541.73 823.19 696.67 1010.18 732.87
00016601 00000066 755.11 237.64 534.66 662.12 859.20 418.89 1096.60 459.44 894.36 529.95 820.66 683.98 1011.17 720.06
00016602 00000067 747.43 232.26 536.59 667.45 851.68 416.79 1086.05 453.52 882.96 516.21 810.23 673.94 1006.15 706.99
00016603 00000068 747.94 232.35 532.78 668.57 851.42 410.77 1079.45 445.75 868.77 511.41 805.01 673.76 989.50 705.39
00016604 00000069 744.35 233.45 535.68 670.59 849.07 413.71 1074.76 445.21 864.19 509.65 801.17 677.82 981.58 706.77
00016605 00000070 740.01 236.49 533.36 667.56 845.97 416.46 1068.95 446.82 860.15 507.44 796.36 679.39 973.08 707.35
00016606 00000071 738.29 235.53 533.81 664.33 845.20 413.71 1063.68 446.57 855.29 508.54 794.64 677.81 965.77 707.87
00016607 00000072 741.29 233.92 525.46 669.43 843.10 414.59 1058.37 444.70 859.71 517.25 797.71 680.03 967.63 705.68
00016608 00000073 733.03 241.28 526.35 660.57 837.02 426.60 1057.25 446.23 847.92 508.04 782.94 687.89 963.95 706.69
00016609 00000074 742.79 242.54 514.37 642.50 831.14 418.13 1038.21 450.04 840.99 530.93 790.00 677.64 957.43 704.85
00016610 DELETE   729.52 251.62 529.37 625.28 811.74 420.40 1025.14 453.44 819.65 542.31 786.82 682.38 950.24 711.47
00016611 DELETE   734.43 274.47 514.23 609.54 800.47 427.23 997.43 461.48 802.39 568.57 794.69 694.59 948.91 723.03
00016612 DELETE   738.22 295.97 519.32 604.18 791.77 439.04 983.86 476.18 785.53 595.08 799.76 715.91 952.01 745.58
00016613 00000078 748.62 292.76 503.39 616.64 787.97 445.87 972.29 477.56 782.53 604.19 792.49 718.51 944.42 742.18
00016614 00000079 744.63 290.10 506.15 613.50 783.77 437.10 971.38 472.67 774.01 597.47 789.29 710.08 941.80 737.25
00016615 00000080 726.01 288.18 520.63 605.12 769.66 426.58 959.41 456.89 765.32 576.85 786.28 699.89 937.72 723.28
00016616 00000081 720.58 282.23 520.17 609.66 766.77 421.69 957.34 452.68 760.27 572.15 781.65 698.21 932.88 722.37
00016617 00000082 718.09 276.81 522.30 616.05 765.22 422.49 949.30 451.22 754.74 571.15 782.84 699.06 930.56 721.29
00016618 00000083 718.10 274.50 517.87 612.95 763.08 426.26 952.43 450.19 755.13 567.85 776.91 700.05 930.86 718.93
00016619 00000084 717.32 281.74 516.84 604.87 761.73 431.58 950.76 450.77 754.46 565.89 776.72 700.52 933.13 715.24
00016620 00000085 717.71 279.20 519.28 610.01 764.63 425.10 956.63 448.24 762.01 569.44 782.50 700.22 938.82 717.87
00016621 00000086 721.44 281.08 517.58 611.37 772.13 424.88 973.90 454.56 778.44 572.64 786.17 698.42 949.40 721.78
00016622 DELETE   735.85 299.93 514.04 599.13 794.06 439.93 1001.22 461.27 805.71 574.47 793.63 697.43 962.77 713.41
00016623 DELETE   744.58 285.27 523.15 616.89 808.36 438.46 1025.56 456.55 837.63 577.17 814.62 704.91 993.57 718.17
00016624 DELETE   754.64 295.71 524.24 612.14 824.49 440.41 1059.96 463.59 871.13 587.09 833.74 708.05 1017.62 726.65
00016625 00000090 761.93 281.28 521.47 619.59 836.49 447.40 1074.77 462.82 898.39 589.97 847.67 711.33 1035.06 723.95
00016626 00000091 763.50 280.97 524.78 625.91 840.79 448.36 1081.49 462.66 905.54 589.20 850.68 715.98 1040.19 727.80
00016627 00000092 756.07 284.05 530.51 634.18 837.04 444.88 1077.97 459.56 900.67 585.57 848.81 720.46 1036.18 732.47
00016628 00000093 750.87 280.66 531.82 635.41 829.01 442.75 1072.25 454.81 889.87 580.08 842.18 718.34 1029.08 728.14
00016629 00000094 746.84 279.45 531.98 627.39 823.47 441.43 1065.99 453.88 884.17 579.14 837.22 714.80 1021.18 725.27
00016630 00000095 743.68 277.21 531.04 625.40 818.06 441.25 1057.94 457.53 875.13 584.58 831.02 712.14 1016.54 725.77
00016631 00000096 742.83 285.81 529.42 620.35 816.15 444.90 1054.72 461.74 872.66 585.93 829.54 715.99 1012.17 729.95
00016632 00000097 741.96 288.54 529.56 621.94 812.45 446.08 1051.63 461.13 870.36 586.51 828.46 722.18 1013.17 734.60
00016633 00000098 740.05 285.26 529.68 625.23 811.63 446.47 1049.78 462.06 868.67 586.34 826.27 721.06 1014.41 733.95
00016634 00000099 739.10 285.38 528.40 617.04 810.00 446.47 1049.07 462.81 868.53 586.65 824.46 717.25 1014.37 730.73
00016635 00000100 739.27 291.12 527.05 604.53 808.19 447.13 1048.73 463.32 868.51 586.99 823.06 714.72 1014.35 728.09
00016636 00000101 738.50 288.62 525.22 607.95 807.75 446.95 1047.18 463.55 868.57 588.70 823.33 715.34 1013.51 729.03
00016637 00000102 741.16 289.50 530.32 606.39 810.24 452.85 1054.10 461.16 876.83 588.98 824.01 719.31 1012.17 726.30
00016638 00000103 739.08 283.04 525.85 615.94 811.11 446.75 1043.34 461.62 869.08 583.74 824.76 713.30 1011.50 724.19
00016639 00000104 736.99 281.56 524.74 616.72 806.56 446.85 1039.08 461.86 863.01 586.02 820.69 713.43 1007.69 724.40
00016640 00000105 737.58 286.88 524.02 611.75 805.45 450.37 1037.97 463.98 861.55 586.91 819.09 714.36 1007.71 724.12
00016641 00000106 729.45 288.48 526.09 605.88 794.68 450.07 1034.39 463.65 853.83 587.89 811.76 716.28 1002.11 727.79
00016642 00000107 736.33 286.48 521.24 615.52 804.61 448.21 1035.23 464.35 859.67 590.38 816.30 715.06 1002.17 726.97
00016643 00000108 736.41 299.15 523.08 612.56 806.54 459.88 1031.05 478.91 854.80 598.39 818.22 720.67 998.57 734.81
00016644 00000109 741.13 314.78 521.43 601.27 811.35 465.88 1029.79 490.60 849.87 610.47 821.90 724.48 995.60 743.02
00016645 00000110 741.05 311.28 522.39 600.04 811.71 465.79 1031.48 489.42 852.50 608.62 823.34 722.66 996.82 740.33
00016646 00000111 740.50 313.15 522.66 595.79 809.94 466.23 1033.64 485.22 854.71 603.66 821.47 722.54 995.57 736.47
00016647 00000112 741.41 303.62 522.08 604.35 808.58 466.24 1033.17 482.74 856.99 602.59 823.20 724.45 997.09 736.73
00016648 00000113 740.82 304.95 522.85 602.70 808.51 465.12 1032.32 480.96 857.95 600.71 822.65 723.63 996.43 735.32
00016649 00000114 739.91 303.07 525.21 603.65 807.95 464.19 1033.18 480.30 857.44 600.01 822.84 722.05 998.04 733.85
00016650 00000115 738.56 304.73 523.24 603.29 806.07 464.03 1029.66 481.37 854.04 600.23 819.92 721.42 995.31 734.21
00016651 00000116 727.41 307.27 533.14 602.51 789.40 463.30 1025.44 476.77 843.23 604.93 810.17 730.90 991.44 742.51
00016652 DELETE   728.47 300.40 522.65 606.91 788.28 469.67 1004.68 485.64 819.23 604.79 801.37 726.84 970.03 738.94
00016653 DELETE   714.89 304.31 519.20 607.40 766.73 463.87 973.93 480.79 788.61 610.64 783.20 727.66 940.05 740.90
00016654 DELETE   700.89 297.56 509.82 604.83 744.70 457.51 948.67 476.31 758.07 603.53 765.13 727.02 920.50 742.69
00016655 00000120 695.51 299.14 505.94 604.95 738.15 451.42 937.84 474.52 743.21 603.48 756.87 724.56 908.38 743.44
00016656 00000121 689.93 299.02 513.24 602.02 741.52 454.10 934.31 469.47 746.41 602.01 758.46 726.31 894.75 737.95
00016657 00000122 692.35 306.21 515.15 605.13 743.68 458.98 937.42 469.77 752.21 607.34 763.23 733.54 903.73 741.81
00016658 00000123 695.87 302.30 514.85 616.08 743.80 460.30 941.30 468.94 754.51 609.79 764.62 737.15 917.30 743.29
00016659 00000124 697.21 304.76 513.32 615.39 743.99 458.75 944.09 466.32 759.17 610.36 765.44 736.54 923.22 741.49
00016660 00000125 697.79 303.65 514.61 616.22 742.95 458.41 946.66 464.52 760.12 608.24 765.40 736.46 925.72 740.25
00016661 00000126 698.49 304.49 513.33 609.93 744.12 458.07 947.25 465.86 761.15 606.65 765.57 734.04 922.88 739.46
00016662 00000127 692.80 305.30 513.47 608.24 733.65 458.92 939.65 471.73 748.51 607.31 762.16 731.25 925.34 740.51
00016663 00000128 691.99 303.47 513.20 611.09 732.35 458.88 937.71 472.61 744.79 608.59 760.40 732.01 922.79 741.91
00016664 00000129 689.86 299.50 516.10 615.88 729.54 460.36 935.82 473.56 741.73 609.17 758.31 732.17 921.63 741.75
00016665 00000130 690.45 297.27 515.76 616.21 728.30 459.76 937.70 472.68 742.59 608.52 756.72 732.44 921.65 742.26
00016666 00000131 692.61 294.34 512.86 616.18 728.95 459.92 940.91 473.06 746.07 607.93 756.57 732.10 921.55 742.80
00016667 00000132 690.12 290.40 515.06 618.02 726.57 458.39 939.50 469.96 743.20 604.99 755.87 731.93 919.73 741.54
00016668 00000133 692.04 294.34 513.54 611.21 732.82 455.97 940.46 469.57 745.10 600.88 757.90 728.71 917.90 739.84
00016669 00000134 692.63 294.06 510.71 612.81 735.30 457.59 944.80 471.12 749.63 599.84 757.67 732.28 914.01 743.83
00016670 00000135 693.53 292.28 512.60 612.54 738.42 456.15 948.06 470.59 754.48 599.16 759.79 730.49 916.60 742.85
00016671 00000136 705.21 298.32 511.80 599.79 751.53 454.48 962.50 468.33 771.77 597.25 765.14 725.35 917.91 736.51
00016672 00000137 708.35 295.45 514.30 609.18 753.92 455.54 966.52 468.85 777.63 599.39 769.21 726.79 926.72 737.58
00016673 00000138 709.28 290.83 515.16 615.15 752.98 455.24 967.71 468.35 777.91 599.58 768.50 729.20 930.21 739.90
00016674 00000139 712.79 298.27 515.75 607.84 754.52 454.64 968.92 468.49 778.45 599.15 768.02 727.92 930.50 739.13
00016675 00000140 712.13 305.83 514.14 603.04 754.44 453.17 966.55 468.04 773.49 598.13 766.06 727.01 928.21 738.56
00016676 00000141 709.22 303.11 513.58 605.06 752.58 453.02 962.39 467.91 768.32 597.39 763.97 726.47 924.41 737.96
00016677 00000142 701.37 304.18 514.19 605.00 744.31 454.64 951.36 471.46 755.75 596.53 762.33 728.67 924.59 742.01
00016678 00000143 703.05 310.41 514.77 596.26 745.89 452.32 955.33 471.22 761.84 596.92 765.53 726.35 927.10 741.53
00016679 00000144 717.20 308.74 516.79 599.83 761.22 457.28 974.36 470.32 783.75 602.80 774.05 728.14 938.06 738.16
00016680 00000145 721.91 316.21 517.43 594.43 770.52 456.63 986.37 474.53 795.26 606.53 780.93 725.34 950.84 738.93
00016681 00000146 722.94 318.01 513.51 590.96 771.05 455.91 986.75 474.90 795.31 604.17 777.81 725.85 949.20 740.39
00016682 00000147 718.27 313.64 510.73 592.99 766.97 452.27 982.29 473.31 787.87 602.08 771.88 722.20 940.43 738.74
00016683 00000148 715.76 307.45 509.99 599.69 762.05 451.83 974.33 471.50 779.50 602.15 769.61 723.61 933.70 739.04
00016684 00000149 717.69 305.56 511.89 609.09 767.06 452.38 977.33 471.85 785.21 603.40 774.41 725.73 940.83 740.86
00016685 00000150 725.71 313.43 510.75 601.77 776.70 453.41 989.91 475.32 795.17 603.41 778.84 723.71 949.94 740.57
00016686 00000151 729.74 313.84 513.69 601.41 782.92 460.67 996.50 478.65 802.33 600.62 784.33 725.95 956.01 739.42
00016687 00000152 730.63 310.45 516.34 608.00 784.17 460.31 997.33 476.93 802.80 600.91 786.56 728.37 956.89 740.74
00016688 00000153 729.03 311.36 516.51 609.33 782.51 461.05 996.30 477.87 801.26 601.66 784.69 728.71 954.77 741.20
00016689 00000154 729.65 316.01 514.57 600.71 783.86 460.11 996.75 477.62 801.96 601.04 784.88 726.99 953.68 739.99
00016690 DELETE   735.42 309.89 519.32 596.21 798.56 460.15 1014.25 482.26 822.57 594.51 797.41 720.51 965.73 737.29
00016691 DELETE   743.99 288.26 520.42 610.51 812.20 457.89 1040.22 475.69 858.67 594.60 816.63 721.41 987.08 736.23
00016692 DELETE   747.57 283.83 517.09 616.05 822.05 456.58 1062.80 478.37 883.65 600.65 833.53 724.36 1009.27 743.26
00016693 00000158 757.00 280.76 521.11 625.40 838.32 468.55 1081.40 483.26 908.06 601.54 848.24 733.38 1029.62 746.67
00016694 00000159 760.07 297.88 523.94 608.78 846.58 472.04 1095.35 480.36 923.44 599.45 858.57 738.39 1040.01 745.23
00016695 00000160 757.51 295.79 527.47 613.67 848.89 475.01 1094.23 483.54 923.09 599.87 861.98 739.46 1036.63 746.61
00016696 00000161 751.89 281.94 531.69 637.94 847.72 474.41 1090.06 488.97 920.14 602.75 858.56 740.05 1034.58 752.79
00016697 00000162 751.57 285.44 531.75 634.26 845.99 478.28 1087.17 491.47 918.29 605.59 857.83 740.13 1033.77 751.94
00016698 00000163 750.92 290.55 530.75 630.20 843.95 477.69 1083.68 491.26 915.56 609.66 857.04 742.36 1028.44 754.71
00016699 00000164 751.71 297.72 528.47 622.25 844.21 477.09 1081.16 492.11 914.14 612.82 856.12 742.54 1026.12 756.22
00016700 00000165 748.38 297.39 530.24 621.59 837.03 479.02 1081.92 485.94 913.14 609.71 853.22 747.93 1033.44 756.91
00016701 DELETE   753.31 286.07 528.33 634.51 850.10 481.50 1094.20 486.29 934.88 606.55 868.95 747.92 1047.17 754.62
00016702 DELETE   766.39 271.26 536.59 654.42 887.61 482.79 1121.86 491.99 978.63 610.14 909.15 749.38 1062.11 758.13
00016703 DELETE   783.43 289.31 527.85 631.32 919.58 472.11 1163.55 487.06 1028.17 608.42 945.78 744.47 1105.14 755.51
