Video ID: 	PtbN2ky7Ff0
H: 	1080
W: 	1920
FPS: 	23.976023976023978

FRAME INDEX X0 Y0 W H [Landmarks (5 Points)]

00023892 00000000 743.52 203.36 386.83 517.20 853.61 377.20 1032.64 396.97 928.74 479.33 846.75 567.21 1001.09 585.29
00023893 00000001 746.79 206.53 383.58 514.82 855.67 378.55 1035.49 397.32 933.01 480.20 849.68 568.97 1005.31 586.10
00023894 00000002 745.35 204.75 384.59 514.94 853.60 379.07 1033.08 397.42 928.98 480.77 847.48 569.06 1001.47 586.00
00023895 00000003 741.32 203.68 386.20 515.41 846.75 378.49 1027.05 398.55 917.94 483.75 838.65 568.00 994.56 586.56
00023896 00000004 738.00 198.65 386.81 518.05 837.65 377.20 1018.09 398.34 904.23 484.44 828.92 568.53 982.47 588.17
00023897 DELETE   736.40 197.34 386.91 517.23 832.22 377.10 1012.82 399.65 894.19 484.87 822.27 567.69 975.47 588.40
00023898 00000006 736.43 196.88 386.11 515.59 832.06 377.17 1012.72 400.12 893.60 484.45 821.82 566.94 975.54 587.97
00023899 00000007 737.68 198.75 388.10 514.82 837.52 378.93 1019.16 399.90 904.47 484.58 828.70 568.21 984.37 587.55
00023900 00000008 741.23 206.45 387.74 507.07 846.07 382.50 1027.11 399.78 920.23 485.86 840.96 569.66 997.52 585.76
00023901 00000009 752.60 214.48 382.73 508.87 855.10 383.40 1042.72 408.47 940.96 495.14 845.81 579.63 1004.99 600.87
00023902 00000010 755.01 219.49 385.31 515.86 860.87 387.45 1047.09 410.73 947.00 499.77 852.79 585.76 1012.17 605.01
00023903 00000011 754.40 220.47 386.46 520.21 859.49 389.76 1045.81 413.99 943.15 501.81 853.45 593.36 1004.96 613.34
00023904 DELETE   748.43 215.97 386.63 522.86 845.65 389.93 1033.58 408.63 923.18 501.41 845.88 596.53 987.90 612.25
00023905 00000013 745.98 218.10 388.28 523.73 843.65 388.61 1031.32 410.22 917.64 500.48 842.70 598.45 981.38 616.76
00023906 00000014 749.61 218.06 386.34 521.13 847.70 387.30 1034.54 408.93 923.06 499.93 846.68 595.74 984.75 614.13
00023907 00000015 751.90 222.15 387.92 520.72 857.39 386.40 1043.41 415.30 936.10 495.39 848.30 593.79 991.98 618.13
00023908 00000016 753.39 211.42 385.28 519.98 858.46 381.17 1044.82 407.25 941.07 490.72 852.79 586.75 994.89 609.13
00023909 00000017 751.54 209.59 385.14 511.02 860.50 374.72 1045.29 399.31 943.92 482.92 854.11 575.16 998.96 596.33
00023910 00000018 754.40 203.96 381.73 503.40 862.91 366.14 1045.18 392.59 943.48 474.34 852.42 562.40 1002.33 585.23
00023911 00000019 751.75 189.38 385.46 512.98 856.65 364.29 1039.95 381.33 934.46 461.65 853.82 562.08 1005.10 576.98
00023912 00000020 753.40 186.96 384.33 510.26 857.17 362.01 1040.30 378.70 935.36 459.44 854.86 558.15 1006.65 572.93
00023913 00000021 759.77 197.89 378.98 496.57 866.02 356.34 1047.18 383.89 943.54 463.98 854.27 551.71 1004.52 575.68
00023914 00000022 760.77 197.73 377.38 495.87 866.09 356.53 1047.50 384.15 943.66 465.10 853.64 552.25 1004.80 576.32
00023915 00000023 760.31 197.39 376.83 495.59 865.11 356.23 1046.56 384.11 943.40 465.02 851.99 551.24 1004.73 575.49
00023916 00000024 760.97 196.85 376.53 495.08 865.28 355.21 1046.11 383.27 942.45 463.97 852.32 549.98 1004.60 574.42
00023917 00000025 755.81 186.91 382.65 508.82 857.30 361.52 1041.15 378.15 935.55 458.49 853.62 556.47 1008.57 571.47
00023918 00000026 756.60 184.98 383.05 512.90 858.26 361.29 1041.26 376.75 936.37 457.19 854.98 556.60 1009.25 570.51
00023919 00000027 756.46 185.17 382.38 512.74 858.18 360.85 1040.82 376.18 936.01 455.06 854.40 555.41 1008.77 569.26
00023920 00000028 756.13 185.85 381.82 510.22 857.11 360.29 1039.79 375.92 934.79 453.05 853.14 552.86 1009.29 566.92
00023921 00000029 757.64 184.23 379.83 506.58 857.66 359.71 1039.98 375.83 935.53 452.06 854.01 551.17 1008.75 565.81
00023922 00000030 757.85 185.43 379.50 505.51 859.85 358.33 1040.51 374.24 938.04 450.23 857.33 549.50 1009.05 563.68
00023923 00000031 757.51 186.55 381.32 503.59 859.95 358.07 1040.53 373.08 939.47 448.82 859.21 547.60 1011.52 560.92
00023924 00000032 757.79 187.69 382.13 505.32 859.86 357.20 1040.68 373.32 938.17 448.93 858.00 546.42 1011.88 560.73
00023925 00000033 758.33 186.67 382.88 511.59 860.06 358.12 1041.64 373.70 938.43 449.99 858.19 549.17 1013.75 562.97
00023926 00000034 763.12 188.13 379.40 510.04 863.26 359.88 1045.47 379.49 940.67 456.77 859.96 547.62 1011.07 564.05
00023927 00000035 762.34 189.26 380.30 512.08 864.61 360.59 1046.77 379.53 943.75 456.96 859.60 550.57 1011.16 566.54
00023928 00000036 762.11 193.79 380.37 510.36 865.63 361.52 1047.89 380.82 945.31 459.02 857.37 552.53 1013.35 568.81
00023929 00000037 762.90 195.00 380.17 505.30 866.65 362.51 1048.30 381.53 946.44 459.06 855.75 551.30 1014.81 567.25
00023930 00000038 764.48 196.01 379.52 500.73 867.05 362.78 1048.32 380.80 946.77 458.04 857.39 550.98 1015.65 566.04
00023931 00000039 765.50 195.53 378.75 501.44 867.99 362.66 1048.88 381.19 947.69 457.61 857.76 550.89 1016.06 566.37
00023932 00000040 766.84 195.95 377.65 503.10 868.75 362.86 1049.44 381.53 948.14 458.34 858.51 552.16 1016.14 567.86
00023933 00000041 767.38 198.15 376.56 501.32 869.47 362.18 1050.75 381.28 948.40 458.75 858.99 554.18 1014.80 570.21
00023934 00000042 767.81 197.49 376.06 500.94 868.59 360.79 1050.35 380.38 947.76 458.52 859.73 554.33 1011.48 570.70
00023935 00000043 768.28 198.34 377.03 502.71 867.83 360.56 1053.70 379.66 949.05 459.65 863.73 556.28 1012.77 572.14
00023936 00000044 770.70 197.91 375.32 508.53 868.69 361.73 1054.56 380.96 948.84 460.14 863.81 558.63 1013.27 574.74
00023937 00000045 769.52 197.92 378.85 517.10 869.29 362.73 1056.18 382.83 948.05 461.87 864.21 560.46 1014.59 577.33
00023938 00000046 770.14 198.28 378.40 516.95 869.65 363.74 1055.90 383.11 948.58 461.55 865.15 562.04 1013.24 578.34
00023939 00000047 770.27 199.17 379.50 513.05 870.07 363.66 1057.10 382.85 949.78 461.27 865.63 560.78 1014.87 576.87
00023940 00000048 770.51 201.22 377.10 505.13 869.91 361.07 1054.33 379.39 950.48 459.39 865.94 557.07 1015.89 572.29
00023941 00000049 769.82 197.81 378.81 502.38 868.95 361.22 1051.85 378.89 948.37 456.38 862.19 552.16 1017.93 567.03
00023942 00000050 768.87 194.69 378.99 494.59 868.93 361.30 1048.94 379.11 946.71 452.68 859.98 545.38 1017.71 560.16
00023943 00000051 767.38 191.01 380.25 495.52 867.39 358.47 1046.65 377.16 945.71 452.12 859.07 539.93 1016.81 555.39
00023944 00000052 767.58 191.58 379.81 496.22 867.51 359.85 1047.29 378.93 944.51 453.54 859.10 541.73 1016.77 557.46
00023945 00000053 767.33 195.14 379.93 502.94 867.83 362.87 1048.73 380.98 945.76 457.06 858.86 548.39 1017.39 563.56
00023946 00000054 766.52 199.57 380.03 507.06 868.57 363.56 1052.58 383.90 947.45 461.56 860.89 553.86 1017.22 570.71
00023947 00000055 766.66 202.03 380.33 500.95 868.34 364.28 1051.52 384.05 948.24 461.06 862.22 550.69 1018.22 566.86
00023948 00000056 767.40 202.37 379.12 493.30 867.88 362.17 1050.74 381.36 948.38 459.01 862.89 545.94 1017.18 561.64
00023949 00000057 766.23 196.45 379.15 494.98 866.99 360.26 1048.64 379.81 945.87 457.25 861.75 543.02 1015.11 559.06
00023950 00000058 763.44 193.59 381.30 500.32 865.75 360.16 1048.05 379.40 945.07 457.66 859.38 544.09 1014.39 559.99
00023951 00000059 761.47 196.34 383.36 504.38 865.77 362.49 1048.56 382.30 944.91 460.42 857.77 548.24 1014.83 564.67
00023952 00000060 759.38 202.08 386.27 505.46 868.46 362.42 1051.59 389.47 950.36 469.87 856.50 554.39 1014.38 577.64
00023953 00000061 759.65 203.47 383.11 503.85 867.87 365.42 1051.12 392.49 949.45 475.32 854.81 558.22 1012.62 581.50
00023954 00000062 757.60 202.08 384.70 505.06 866.99 365.74 1050.49 392.46 948.85 474.25 855.65 559.26 1011.01 582.22
00023955 00000063 759.52 201.82 380.55 501.33 868.53 362.20 1053.57 389.65 950.42 471.43 857.76 558.89 1013.52 582.28
00023956 00000064 760.92 201.99 381.27 505.53 869.28 358.99 1056.12 387.39 952.42 467.95 856.59 559.25 1014.47 583.49
00023957 00000065 761.04 193.63 380.38 514.10 864.66 364.25 1049.95 383.26 946.62 461.55 860.53 557.28 1015.40 573.25
00023958 00000066 764.06 192.03 378.24 508.39 864.36 363.26 1050.81 380.19 947.99 457.97 863.92 553.34 1017.75 567.61
00023959 00000067 766.05 187.54 377.19 500.05 864.68 358.22 1048.89 374.23 949.24 451.89 865.21 546.52 1017.25 559.65
00023960 00000068 767.28 186.74 376.30 495.98 864.96 356.97 1049.19 372.74 948.31 450.31 865.74 545.42 1016.32 558.22
00023961 00000069 766.89 187.24 376.98 498.81 865.34 360.43 1047.19 376.73 947.16 453.02 862.91 546.40 1018.27 559.69
00023962 00000070 765.14 192.85 378.23 495.24 864.88 364.66 1047.11 379.75 946.89 456.54 862.82 547.24 1020.81 559.54
00023963 00000071 763.50 193.50 379.07 497.15 863.36 365.92 1046.62 380.74 946.78 458.22 861.75 548.17 1019.86 560.35
00023964 00000072 762.02 193.05 379.77 500.14 862.15 365.94 1045.90 380.52 945.77 458.49 861.86 549.96 1019.33 561.98
00023965 00000073 758.98 187.78 380.66 506.61 859.11 365.09 1045.03 376.33 942.72 457.95 860.84 557.98 1018.83 568.54
00023966 00000074 757.24 185.59 380.95 512.92 858.47 365.01 1043.76 376.83 939.91 458.62 859.51 560.17 1015.88 570.99
00023967 00000075 755.21 185.86 382.00 514.03 857.97 365.83 1042.06 377.04 938.84 458.71 859.62 561.88 1013.89 572.09
00023968 00000076 755.74 186.12 380.21 510.35 857.41 365.47 1042.01 377.28 938.19 458.63 858.72 561.24 1013.16 572.01
00023969 00000077 754.89 186.14 380.59 509.58 856.43 365.46 1040.12 376.88 937.00 458.11 858.25 560.23 1012.29 570.57
00023970 00000078 692.57 84.01 494.36 674.67 825.60 314.22 1064.87 334.41 934.36 445.90 828.54 564.98 1027.00 581.23
00023971 00000079 691.14 85.78 495.57 673.79 824.98 315.95 1062.86 336.48 932.54 448.26 829.17 565.90 1022.07 582.59
00023972 00000080 696.24 96.74 487.91 663.50 822.23 321.66 1065.79 335.21 934.93 446.33 832.40 577.26 1019.52 586.17
00023973 00000081 697.58 99.96 486.24 656.04 821.94 323.19 1064.84 337.36 933.60 447.23 833.08 579.86 1017.85 589.23
00023974 00000082 696.07 98.59 488.39 661.79 821.58 320.24 1064.70 334.84 933.65 443.91 830.89 579.23 1017.09 589.17
00023975 00000083 694.17 87.08 493.14 672.26 825.07 310.75 1065.09 331.14 934.86 444.14 829.04 567.98 1021.29 584.64
00023976 00000084 692.77 82.85 494.31 672.25 825.64 304.94 1063.65 324.33 934.05 436.23 830.22 562.73 1020.17 578.50
00023977 00000085 692.12 82.07 494.84 673.16 826.89 302.34 1064.02 321.44 934.98 429.81 833.30 561.45 1019.51 576.97
00023978 00000086 693.95 77.35 494.04 672.40 829.28 301.16 1065.57 321.83 934.57 430.10 831.38 554.71 1020.77 571.48
00023979 00000087 695.03 82.36 494.46 665.64 831.13 300.84 1067.80 323.53 936.83 431.66 831.29 553.03 1021.16 571.45
00023980 00000088 695.43 80.82 494.49 667.95 830.27 301.51 1069.15 324.55 937.47 435.37 831.00 554.33 1025.17 572.77
00023981 00000089 696.94 82.21 491.15 663.33 829.55 302.13 1068.69 325.08 936.73 436.99 827.78 552.87 1028.63 571.13
00023982 00000090 697.00 80.35 491.22 669.90 829.71 301.29 1069.41 323.54 938.06 437.61 828.41 555.75 1030.15 573.46
00023983 00000091 695.64 79.57 492.56 675.22 829.32 301.17 1069.77 323.68 939.58 439.03 827.90 559.00 1029.01 577.03
00023984 00000092 695.11 77.08 491.64 668.77 829.42 304.69 1068.94 325.50 940.26 437.13 832.76 558.84 1027.75 575.61
00023985 00000093 698.36 82.07 489.31 651.90 828.83 308.05 1072.09 329.36 939.06 441.70 832.72 555.82 1030.04 572.66
00023986 00000094 697.94 83.99 488.64 658.29 830.42 310.20 1071.08 331.91 941.15 446.00 831.32 557.39 1031.56 574.72
00023987 00000095 699.84 89.51 486.54 658.62 831.07 312.80 1069.70 335.12 941.09 451.02 831.29 562.06 1029.37 580.17
00023988 00000096 697.36 89.72 488.81 661.38 830.69 313.13 1068.47 335.28 940.56 452.40 830.36 560.56 1030.37 578.41
00023989 00000097 698.22 88.98 487.90 655.89 829.99 312.04 1068.12 334.03 939.55 449.70 828.97 556.52 1031.20 574.07
00023990 00000098 696.49 83.79 489.71 659.72 830.61 310.04 1068.40 333.32 939.03 448.30 829.21 553.34 1032.02 571.83
00023991 00000099 695.75 82.96 490.09 661.23 829.83 309.12 1066.90 331.92 937.68 446.76 828.96 551.82 1031.83 569.86
00023992 00000100 691.98 84.20 493.22 664.25 824.43 308.76 1059.68 331.84 928.57 445.18 824.11 552.65 1024.52 571.02
00023993 00000101 686.82 84.81 497.14 667.79 813.98 308.20 1049.65 331.00 914.93 444.21 813.68 553.91 1013.91 572.05
00023994 00000102 688.71 97.07 488.64 660.42 806.92 313.17 1052.37 335.37 911.62 445.14 802.77 559.33 1010.37 577.13
00023995 00000103 687.65 96.18 487.14 662.28 805.34 312.90 1050.84 336.68 909.57 446.32 801.51 563.18 1005.72 582.48
00023996 00000104 689.68 93.27 486.89 660.41 808.28 315.49 1053.70 337.27 915.43 447.97 807.06 563.62 1009.47 580.82
00023997 00000105 693.33 94.22 484.68 656.72 813.54 319.35 1058.73 338.01 924.10 446.51 815.43 565.16 1018.57 579.49
00023998 00000106 695.19 86.72 484.76 655.49 815.67 313.51 1057.60 333.56 924.75 442.72 817.53 560.15 1025.03 576.50
00023999 00000107 694.67 94.05 485.79 653.58 816.46 317.17 1060.51 334.88 927.79 441.87 820.46 565.18 1018.92 578.65
00024000 00000108 692.18 95.12 486.08 663.88 812.28 316.68 1058.61 333.63 925.60 441.31 819.99 574.33 1015.59 587.07
00024001 00000109 691.44 94.10 487.35 672.14 811.04 316.14 1059.74 336.55 925.64 443.00 812.44 576.06 1015.22 592.09
00024002 00000110 692.64 95.27 487.73 672.96 814.87 317.26 1062.80 335.94 930.41 444.22 819.42 576.68 1019.11 590.88
00024003 00000111 693.87 95.89 486.78 668.51 819.03 315.64 1064.48 334.02 932.98 443.08 821.65 570.40 1020.40 583.93
00024004 00000112 692.40 92.65 487.10 668.23 816.81 313.11 1062.14 333.88 930.13 441.30 816.81 564.62 1016.76 580.29
00024005 00000113 690.24 91.42 488.35 669.68 814.05 310.64 1059.14 331.73 925.62 440.57 813.53 562.49 1013.69 578.52
00024006 00000114 689.34 92.76 489.71 665.74 813.66 310.58 1059.73 330.70 927.38 439.10 817.21 562.83 1017.00 578.20
00024007 00000115 686.02 86.53 498.52 674.11 818.09 308.86 1059.28 329.94 928.36 444.06 820.90 562.54 1023.68 579.28
00024008 00000116 689.79 88.32 495.29 672.39 820.89 311.19 1062.86 331.97 932.49 448.83 822.56 565.94 1026.10 582.67
00024009 00000117 694.67 97.69 487.22 656.07 817.27 319.24 1064.13 335.29 933.29 447.57 820.97 568.99 1025.20 580.85
00024010 00000118 692.94 97.19 487.10 651.36 816.85 319.24 1063.81 338.91 930.63 451.36 817.83 566.03 1023.31 581.15
00024011 00000119 691.84 99.03 488.50 648.80 816.34 322.35 1065.09 341.45 933.04 452.30 818.22 569.98 1024.69 584.61
00024012 00000120 692.86 101.56 489.90 657.61 822.55 322.36 1062.46 343.59 936.52 462.28 823.96 568.94 1028.73 585.82
00024013 00000121 695.52 116.20 485.12 647.22 821.73 329.88 1065.55 348.13 936.63 465.70 824.07 577.04 1026.65 590.91
00024014 00000122 696.16 118.28 481.95 643.01 820.20 332.53 1063.91 351.34 934.13 470.63 822.01 577.32 1027.22 591.86
00024015 00000123 694.82 117.24 483.76 648.23 819.08 333.84 1063.26 354.79 932.63 475.63 818.64 577.42 1026.87 593.79
00024016 00000124 694.42 118.00 484.88 650.97 820.46 335.37 1064.00 354.88 935.01 478.50 821.01 579.53 1028.44 594.67
00024017 00000125 695.83 120.05 481.65 649.79 820.98 337.69 1062.87 354.14 936.76 480.17 825.28 583.74 1029.06 596.31
00024018 00000126 695.89 122.35 482.18 656.88 821.22 337.28 1064.61 353.60 937.03 480.87 824.29 585.05 1033.52 597.67
00024019 00000127 691.29 111.57 486.80 663.34 822.02 331.29 1062.62 354.65 937.24 480.60 818.64 573.57 1033.50 592.14
00024020 00000128 690.01 110.73 488.29 665.49 821.22 330.20 1061.59 354.45 935.42 478.18 813.94 568.21 1036.37 587.11
00024021 00000129 690.16 112.68 488.54 658.35 822.45 330.87 1064.51 354.82 937.72 475.30 813.01 565.17 1039.40 583.65
00024022 00000130 691.52 110.91 487.33 655.71 824.00 330.31 1065.77 353.06 940.19 474.51 815.86 563.58 1043.34 580.93
00024023 00000131 690.91 108.57 488.77 659.01 823.29 330.36 1066.27 352.95 940.60 474.25 814.32 562.94 1045.17 580.04
00024024 00000132 691.31 109.69 488.95 657.85 822.59 330.07 1066.25 352.95 939.63 473.91 812.69 561.41 1045.97 578.72
00024025 00000133 691.26 109.29 489.56 659.08 822.99 329.87 1066.35 352.69 940.18 474.00 812.38 560.01 1047.68 577.15
00024026 00000134 691.19 106.62 490.10 663.90 823.59 330.63 1067.72 353.95 941.23 474.97 811.46 559.18 1050.08 576.63
00024027 00000135 691.29 106.43 489.69 663.51 822.91 331.17 1067.77 354.35 940.83 475.25 810.67 559.04 1050.54 576.37
00024028 00000136 689.96 105.84 490.76 664.42 821.20 329.25 1066.55 353.88 938.83 474.65 807.41 556.58 1049.94 575.06
00024029 00000137 689.70 109.82 491.31 659.56 820.15 328.16 1066.02 352.65 938.27 473.29 807.87 556.01 1049.59 574.29
00024030 00000138 689.93 109.26 491.44 660.96 821.26 328.53 1067.53 351.42 940.10 472.62 810.23 557.21 1050.69 574.15
00024031 00000139 690.89 108.75 490.47 663.47 822.17 328.11 1067.40 350.33 941.46 472.40 810.95 558.27 1050.47 574.66
00024032 00000140 690.93 109.08 489.11 661.04 821.87 327.80 1066.15 349.79 940.92 471.51 811.97 559.24 1048.71 575.60
CROP_BBOX: 288 0 1379 981
