Video ID: 	4vCdXYKx1hk
H: 	1080
W: 	1920
FPS: 	25.0

FRAME INDEX X0 Y0 W H [Landmarks (5 Points)]

00011733 00000000 532.53 172.13 380.76 558.23 628.33 385.33 804.08 388.22 710.40 482.38 643.71 584.69 790.09 588.10
00011734 00000001 529.58 175.23 378.56 547.43 619.69 375.14 794.54 383.86 692.20 480.18 624.96 575.14 770.48 583.49
00011735 00000002 529.36 175.10 378.78 541.94 617.31 369.69 791.55 382.71 683.87 474.97 615.74 569.45 758.95 581.91
00011736 00000003 531.61 177.73 381.16 537.37 625.31 362.09 799.55 381.83 689.54 469.01 617.71 563.43 757.84 581.43
00011737 00000004 541.46 179.29 383.82 533.72 641.62 359.66 813.99 385.18 715.39 466.17 634.02 556.68 773.82 578.08
00011738 DELETE   555.29 170.90 379.51 534.93 660.74 362.01 834.97 390.24 736.11 459.48 648.09 547.53 796.76 571.63
00011739 DELETE   572.53 166.92 373.48 538.52 680.93 360.22 851.52 386.51 758.66 454.26 672.85 547.71 815.17 570.70
00011740 00000007 577.34 163.21 375.55 543.90 686.55 353.42 861.29 374.97 770.28 445.34 685.45 550.45 824.07 569.03
00011741 00000008 579.97 163.68 372.69 546.69 684.66 350.02 859.05 369.53 766.91 444.06 684.50 551.73 823.40 568.92
00011742 DELETE   573.79 163.47 373.64 544.85 671.52 350.25 844.98 368.66 747.86 447.28 672.47 548.00 814.02 564.35
00011743 00000010 567.69 162.10 371.52 539.72 655.89 346.50 828.78 361.92 728.91 441.61 661.30 543.50 797.08 557.45
00011744 DELETE   559.66 157.63 377.18 540.21 644.75 349.98 815.28 366.54 715.69 441.08 648.26 540.93 787.26 555.60
00011745 00000012 555.51 160.38 375.65 534.54 640.36 358.96 806.21 373.08 709.91 443.79 642.02 542.72 780.60 555.48
00011746 00000013 555.62 162.15 375.11 532.74 639.41 357.48 806.82 372.96 708.73 446.71 639.20 544.27 779.15 557.98
00011747 00000014 556.18 165.03 376.71 532.13 641.59 355.22 809.21 372.35 710.52 449.24 640.75 547.53 778.53 562.34
00011748 00000015 556.74 165.85 376.81 533.52 644.58 357.64 812.12 376.39 713.44 451.47 642.66 550.01 780.83 566.14
00011749 00000016 555.61 168.12 378.22 537.13 646.42 360.43 815.65 381.58 717.45 455.63 642.41 551.35 785.21 569.58
00011750 00000017 555.50 172.51 377.96 535.90 646.75 361.78 816.63 382.56 719.56 459.44 644.03 555.54 786.45 573.38
00011751 00000018 552.59 175.30 378.42 535.55 645.12 366.67 816.35 386.81 718.37 465.90 640.93 560.43 785.18 577.79
00011752 00000019 548.58 176.83 379.56 539.85 642.51 371.33 814.65 392.29 716.32 472.48 637.62 565.87 781.54 583.89
00011753 00000020 544.58 174.94 381.02 545.80 637.54 376.77 811.44 391.34 707.77 476.65 637.43 572.15 784.17 585.94
00011754 00000021 539.14 176.26 382.29 551.28 632.60 377.77 808.98 397.43 709.38 483.41 634.18 578.33 775.86 595.42
00011755 00000022 535.74 175.92 383.50 556.43 629.27 380.77 807.57 397.01 708.93 486.39 635.08 584.77 776.46 598.90
00011756 00000023 534.13 180.75 383.93 555.90 628.70 384.16 806.55 398.30 709.41 488.62 636.37 588.12 778.32 600.29
00011757 00000024 534.98 183.54 384.06 552.33 630.13 390.46 803.19 398.17 703.45 489.59 637.40 584.23 785.61 591.85
00011758 00000025 531.93 186.57 383.88 550.18 626.86 392.25 800.21 399.66 699.97 492.57 634.07 585.25 783.70 592.82
00011759 00000026 529.19 186.14 384.83 551.79 622.06 393.87 796.11 401.98 694.19 495.54 627.86 586.95 778.59 595.26
00011760 00000027 525.92 187.85 385.93 550.67 617.84 394.79 792.93 403.83 689.56 497.10 622.51 587.48 774.29 596.57
00011761 00000028 524.75 189.19 384.99 549.21 616.08 394.00 790.92 404.14 686.80 497.20 619.61 586.80 771.79 596.79
00011762 00000029 523.91 189.69 384.67 548.89 614.88 394.80 790.08 404.59 686.84 498.54 619.21 588.36 771.33 598.02
00011763 00000030 523.03 191.84 384.85 547.89 614.18 396.68 789.86 405.26 687.36 501.69 619.89 591.28 770.35 600.03
00011764 00000031 520.96 192.99 385.66 548.01 612.89 398.18 789.32 405.90 687.65 502.97 619.53 593.11 770.65 601.09
00011765 00000032 520.32 193.43 385.23 546.86 612.08 400.13 787.52 407.64 686.67 504.29 619.62 592.99 770.06 600.77
00011766 00000033 518.70 191.71 384.79 548.68 609.30 401.16 784.90 409.34 683.23 506.74 616.21 594.15 767.26 602.40
00011767 00000034 516.54 193.28 385.31 547.72 606.10 402.07 782.35 411.09 679.21 507.32 612.13 594.69 764.66 603.53
00011768 00000035 513.36 194.96 385.16 546.07 603.14 402.20 779.30 412.05 676.42 508.41 609.33 595.15 761.40 604.61
00011769 00000036 512.39 194.72 385.20 546.18 601.76 402.12 777.52 411.06 675.78 507.55 608.98 595.62 760.09 604.28
00011770 00000037 512.21 192.59 385.57 547.99 602.52 401.08 777.42 409.54 676.45 506.09 610.51 594.78 760.52 603.02
00011771 00000038 512.02 192.76 385.28 548.18 602.43 402.01 776.83 408.80 678.62 506.96 613.62 596.00 762.58 602.79
00011772 00000039 511.61 192.88 385.23 549.45 602.87 403.38 776.17 408.93 680.39 508.43 616.43 597.92 762.63 603.60
00011773 00000040 510.72 193.81 385.75 548.90 602.02 404.14 774.46 407.84 680.24 507.08 617.28 598.82 761.84 603.02
00011774 00000041 507.23 193.52 386.37 551.50 596.09 401.08 770.43 404.44 672.93 500.37 610.29 596.01 758.90 599.74
00011775 00000042 498.94 186.12 384.16 557.62 581.94 395.18 755.28 395.35 654.67 493.78 600.88 594.54 746.62 595.38
00011776 00000043 488.17 177.78 381.48 557.95 569.85 389.26 743.58 398.05 640.23 487.23 584.76 588.40 728.18 596.15
00011777 DELETE   470.26 170.87 382.56 557.72 541.75 391.48 714.48 388.46 605.56 482.16 563.49 590.10 699.23 588.12
00011778 DELETE   458.52 175.79 385.23 552.46 522.57 397.38 689.93 386.15 578.61 488.42 545.50 588.37 691.82 580.28
00011779 00000046 448.13 175.37 386.34 557.00 507.55 400.76 671.74 387.75 559.09 488.79 531.66 593.44 677.84 583.10
00011780 00000047 441.63 181.76 384.22 555.35 501.82 405.26 663.42 394.79 553.72 495.77 525.75 598.52 669.73 590.09
00011781 00000048 433.50 188.51 386.99 551.33 496.67 411.90 661.78 404.34 552.01 505.35 522.93 603.69 669.13 596.96
00011782 00000049 429.34 194.18 388.60 550.44 492.74 416.92 658.76 412.09 548.05 515.19 519.50 608.47 665.35 603.54
00011783 00000050 425.65 201.17 390.70 548.16 491.34 424.97 658.37 419.94 550.14 528.62 521.81 613.92 667.48 608.28
00011784 00000051 424.94 207.47 387.02 541.64 489.94 432.25 660.11 427.95 551.86 539.73 521.40 624.48 662.72 619.87
00011785 00000052 427.93 221.97 381.45 556.57 493.21 441.60 659.20 436.38 558.19 552.66 520.55 637.80 666.09 633.04
00011786 00000053 427.38 229.72 388.36 563.29 496.04 450.23 660.99 446.32 561.64 562.77 524.57 652.54 667.88 648.86
00011787 00000054 431.00 239.68 396.24 566.46 500.86 461.06 666.65 452.23 564.67 572.23 533.71 667.59 672.66 660.50
00011788 00000055 439.65 245.55 392.66 562.22 508.34 465.00 675.36 451.30 572.28 576.46 544.28 669.96 685.84 658.02
00011789 00000056 445.71 239.32 392.69 568.96 520.54 464.26 690.40 450.91 589.04 579.58 555.96 671.98 695.90 660.23
00011790 DELETE   455.56 231.14 390.99 574.49 538.54 458.87 713.95 447.56 616.08 575.26 572.43 669.22 714.36 659.67
00011791 00000058 468.02 228.80 394.42 583.87 559.38 448.46 742.31 445.67 654.80 564.48 597.53 665.79 738.19 662.95
00011792 DELETE   480.00 227.08 396.42 582.91 579.53 440.68 761.79 435.30 682.72 557.45 623.05 661.11 762.33 655.78
00011793 00000060 489.75 219.76 395.53 582.52 597.34 432.04 775.70 423.78 703.94 547.59 643.56 653.16 773.33 645.15
00011794 00000061 501.47 207.51 392.52 582.75 609.61 428.72 789.70 412.68 721.92 531.87 654.46 645.68 788.05 631.12
00011795 00000062 503.98 200.89 393.73 585.36 612.18 427.04 793.81 405.56 726.11 526.11 658.83 644.16 793.72 625.09
00011796 00000063 506.37 194.49 390.07 581.14 610.50 426.38 798.25 406.06 726.01 523.39 654.64 640.01 798.13 621.67
00011797 00000064 502.68 191.54 393.48 580.01 610.47 427.76 800.24 413.92 723.81 524.00 651.43 634.31 805.36 622.46
00011798 00000065 504.40 196.02 391.15 575.85 610.05 425.87 795.64 403.20 724.49 518.28 655.41 636.70 795.95 616.19
00011799 00000066 497.88 198.96 394.53 571.86 606.82 423.85 789.10 400.16 722.49 517.94 655.44 634.38 792.79 612.63
00011800 00000067 486.38 199.20 397.08 573.46 597.77 422.41 777.51 399.19 711.87 518.43 650.26 633.80 783.70 612.13
00011801 00000068 467.40 193.18 405.78 579.79 576.66 426.17 757.91 408.76 684.68 522.57 627.96 630.83 774.30 615.97
00011802 00000069 449.29 204.15 403.09 575.14 551.85 434.30 732.76 403.87 665.77 526.87 606.85 644.26 750.94 616.95
00011803 00000070 432.60 208.50 407.32 577.02 532.29 445.71 712.61 415.96 642.87 537.90 586.68 649.72 731.84 622.53
00011804 00000071 422.63 211.91 411.73 577.67 520.49 455.69 700.03 423.83 629.35 551.00 580.86 658.47 725.72 629.80
00011805 00000072 416.74 220.18 412.01 573.63 515.46 460.90 695.63 429.58 625.79 559.08 579.16 665.03 724.27 636.82
00011806 00000073 415.84 223.30 409.79 573.03 513.15 462.44 695.96 432.87 625.78 564.94 575.63 667.92 725.35 640.90
00011807 00000074 413.41 224.91 409.57 570.83 513.41 462.67 697.20 432.54 627.84 565.23 575.30 667.31 726.65 639.90
00011808 00000075 412.08 224.66 408.43 568.43 513.82 461.00 696.26 431.12 628.45 563.06 575.10 664.57 725.22 637.50
00011809 00000076 410.24 225.62 406.91 565.63 514.26 460.09 696.44 430.81 629.72 561.01 575.35 662.97 723.71 636.69
00011810 00000077 408.47 226.06 405.16 563.56 514.03 458.78 695.82 430.61 629.43 558.44 574.04 660.74 722.03 635.54
00011811 00000078 406.72 224.16 403.27 563.11 512.37 457.30 695.01 429.26 628.80 555.07 570.55 658.03 719.91 633.42
00011812 00000079 404.82 223.83 400.64 560.19 509.70 455.54 689.97 428.21 624.30 549.93 566.15 653.32 713.84 629.74
00011813 00000080 392.80 219.13 405.36 559.03 500.75 452.04 686.40 423.46 614.07 547.81 558.02 642.96 713.87 618.85
00011814 00000081 387.62 218.61 403.81 562.24 495.05 450.85 679.63 421.36 609.68 549.55 556.78 644.06 711.09 619.27
00011815 00000082 386.80 222.29 397.88 552.85 488.08 457.37 667.67 417.68 608.14 548.33 549.15 655.52 697.93 620.81
00011816 00000083 383.63 220.33 398.38 552.41 483.54 456.84 663.33 415.11 604.31 544.59 545.95 654.14 695.70 617.24
00011817 00000084 380.35 216.49 397.86 555.24 480.72 454.31 659.17 411.74 602.05 539.67 543.30 651.58 692.41 613.83
00011818 00000085 376.25 210.33 399.25 563.43 479.75 456.82 655.51 411.64 601.26 534.84 542.78 650.79 690.62 610.80
00011819 00000086 372.44 208.54 402.89 567.86 477.35 451.97 652.24 406.50 598.10 529.68 542.41 649.19 688.30 608.49
00011820 00000087 370.87 205.86 405.41 563.55 475.78 446.72 654.68 399.96 599.80 525.17 542.30 644.02 692.68 601.81
00011821 00000088 374.63 205.87 399.98 552.38 478.90 443.83 658.24 394.65 605.46 519.39 546.89 638.35 697.39 594.53
00011822 00000089 372.76 202.87 408.99 550.08 485.20 440.18 665.81 397.50 607.28 518.48 559.37 627.59 713.03 591.51
00011823 00000090 375.42 205.42 408.25 552.01 490.75 446.64 669.78 400.92 616.87 524.50 568.13 633.26 720.27 594.74
00011824 00000091 378.70 210.08 407.43 554.45 497.13 455.88 672.67 406.72 625.53 531.87 580.03 641.56 726.76 600.50
00011825 00000092 384.03 211.80 404.23 554.37 505.12 460.32 678.52 408.09 636.33 532.34 589.07 645.04 733.67 601.32
00011826 00000093 388.21 213.69 406.55 546.74 512.79 454.91 685.39 398.41 649.38 521.03 600.62 640.27 744.34 592.76
00011827 00000094 396.77 209.65 407.00 541.63 522.84 448.54 691.10 390.11 657.05 507.14 607.36 630.21 749.81 580.57
00011828 00000095 408.95 210.16 403.65 542.33 535.55 437.15 701.71 374.63 675.27 498.43 616.95 632.06 757.39 577.77
00011829 00000096 413.65 212.97 401.31 539.00 538.64 437.79 705.02 374.28 678.78 501.83 619.64 632.86 759.85 578.04
00011830 00000097 414.00 220.60 401.68 538.71 537.60 444.49 702.43 380.78 674.42 509.57 617.88 636.35 757.86 581.98
00011831 00000098 410.88 221.82 402.01 543.42 532.71 446.54 701.54 387.91 666.45 516.09 610.06 642.52 752.78 591.79
00011832 00000099 411.29 223.90 400.73 539.84 532.06 443.77 701.11 387.27 664.19 514.30 608.22 640.86 749.38 591.90
00011833 00000100 416.11 219.50 399.25 532.84 536.69 439.65 704.33 381.55 670.93 509.45 615.26 635.25 753.46 585.00
00011834 00000101 422.19 212.00 394.63 534.94 544.30 436.94 712.04 377.96 681.08 504.70 619.94 630.67 759.36 579.49
00011835 00000102 426.36 210.33 392.70 539.18 549.59 434.92 716.75 376.21 687.99 500.53 623.90 628.86 763.10 577.83
00011836 00000103 424.58 208.86 394.04 543.80 549.07 434.92 717.88 377.43 687.66 502.35 621.91 629.27 763.59 579.11
00011837 00000104 423.31 210.73 393.20 542.55 546.77 433.22 716.98 379.45 682.98 503.45 617.78 629.22 758.53 582.11
00011838 00000105 421.05 211.63 392.31 541.07 543.63 432.30 715.74 380.56 679.65 506.18 615.76 631.07 754.89 585.65
00011839 00000106 419.84 211.91 389.76 540.89 541.22 432.50 712.34 380.33 676.93 505.22 616.09 633.49 753.02 587.64
00011840 00000107 416.21 215.90 391.51 546.04 538.40 432.23 709.76 382.08 673.98 507.78 616.09 638.34 749.31 594.35
00011841 00000108 413.18 220.22 392.92 546.44 535.03 431.72 704.19 384.11 665.47 509.40 611.85 638.44 743.15 596.74
00011842 00000109 409.91 221.35 394.14 546.89 533.22 432.44 702.06 385.22 662.74 508.92 608.59 638.32 740.80 597.03
00011843 00000110 406.30 221.53 395.66 547.27 531.63 431.72 700.81 386.63 660.44 510.82 604.74 637.88 737.95 598.30
00011844 00000111 404.27 221.68 396.13 549.23 530.21 430.36 700.97 386.94 659.24 510.99 602.06 638.51 736.78 600.21
00011845 00000112 402.31 220.20 396.11 550.91 528.24 429.76 700.35 386.97 657.43 510.13 598.29 638.17 735.24 600.36
00011846 00000113 401.59 220.59 395.75 552.53 527.25 429.47 700.25 387.90 656.24 510.57 596.74 638.66 734.18 601.98
00011847 00000114 402.91 219.44 396.24 554.67 527.94 430.66 700.97 390.26 656.18 511.70 595.83 639.05 734.13 603.36
00011848 00000115 405.33 219.43 394.50 555.32 529.99 432.13 703.75 393.40 658.61 514.85 596.20 639.64 735.77 605.23
00011849 00000116 409.95 219.85 393.24 556.59 532.86 436.17 707.12 397.50 660.86 518.28 597.51 641.25 739.51 606.72
00011850 00000117 415.45 221.94 392.71 555.01 535.42 441.68 708.00 401.66 661.94 522.84 600.54 644.73 741.27 609.24
00011851 00000118 417.96 223.28 393.02 557.80 536.00 442.14 708.99 401.00 662.95 525.11 600.91 646.79 743.61 610.17
00011852 00000119 420.28 223.98 391.73 555.51 537.28 440.70 712.24 402.83 663.06 527.08 598.39 646.18 742.19 612.21
00011853 00000120 423.04 223.48 389.93 548.45 537.95 438.06 713.78 403.28 660.29 524.26 594.78 642.11 738.54 610.93
00011854 00000121 424.84 220.22 388.81 546.42 537.80 433.61 715.17 400.88 659.15 522.60 592.87 638.66 735.79 609.24
00011855 00000122 429.20 217.29 385.91 548.91 539.23 430.73 715.31 398.76 659.15 518.66 591.81 636.44 733.93 607.89
00011856 00000123 430.65 216.14 386.19 554.96 539.85 427.00 716.57 396.41 659.24 515.74 591.02 634.89 731.61 608.04
00011857 00000124 434.40 216.07 385.14 552.02 542.10 427.34 718.43 396.80 659.62 516.51 590.96 632.62 732.85 605.50
00011858 00000125 437.08 216.71 385.26 548.13 545.73 426.92 723.83 396.39 664.81 517.48 594.18 631.67 737.65 604.50
00011859 00000126 440.21 215.98 384.86 546.76 548.78 425.79 727.42 396.33 669.03 515.64 595.45 629.43 740.80 603.24
00011860 00000127 442.89 216.84 385.15 543.98 552.63 424.97 730.31 396.11 672.83 514.65 598.91 627.65 742.87 602.03
00011861 00000128 446.54 216.68 382.89 542.66 554.90 422.63 733.07 394.61 674.09 510.32 599.90 625.55 743.92 600.65
00011862 00000129 450.07 215.29 381.34 542.51 557.56 420.40 736.60 392.06 678.28 506.49 603.30 624.47 748.11 599.38
00011863 00000130 454.10 210.86 381.63 548.44 561.36 419.42 741.43 390.49 683.25 501.64 607.83 624.62 756.11 598.87
00011864 00000131 460.48 210.65 382.87 554.21 565.66 417.49 745.01 391.50 685.47 499.74 610.23 621.74 761.72 598.60
00011865 00000132 465.91 213.42 383.48 552.10 570.75 416.29 749.32 390.95 689.82 499.10 614.37 617.86 768.18 595.27
00011866 00000133 467.55 205.07 387.31 552.57 578.80 412.56 753.16 397.03 690.83 503.81 623.67 610.68 773.80 597.52
00011867 00000134 473.28 206.09 384.98 546.92 583.33 411.11 756.36 396.52 694.00 502.03 627.97 606.39 776.96 593.86
00011868 00000135 475.91 200.35 387.99 551.27 586.94 408.42 760.52 396.13 696.60 500.57 627.94 602.92 777.90 592.29
00011869 00000136 478.55 197.47 389.36 551.62 590.45 405.85 763.34 393.89 699.41 498.13 630.23 600.81 778.32 590.52
00011870 00000137 479.63 196.36 389.57 551.68 591.67 404.98 764.62 392.17 701.13 496.45 632.45 600.40 779.57 589.46
00011871 00000138 480.00 196.56 389.94 549.54 591.21 405.16 766.18 392.64 700.50 496.29 631.77 600.01 780.25 589.30
00011872 00000139 480.04 197.26 390.03 545.79 590.25 407.48 766.15 394.17 699.26 498.69 633.10 601.49 780.51 589.96
00011873 00000140 478.40 202.50 390.59 540.97 588.86 412.52 763.09 399.39 695.11 505.27 632.12 602.27 778.50 590.87
00011874 00000141 475.10 209.40 390.25 534.77 585.68 415.25 760.01 403.58 690.99 509.91 628.55 604.75 774.19 594.38
00011875 00000142 471.66 209.06 390.75 535.74 582.12 415.06 756.53 403.07 686.22 510.30 625.28 605.68 771.47 595.10
00011876 00000143 469.73 204.31 388.50 538.65 578.55 411.32 752.16 399.26 680.96 505.10 621.88 603.86 766.51 593.58
00011877 00000144 468.36 191.22 385.69 551.08 577.33 409.69 747.43 399.57 677.74 500.22 617.32 602.60 760.42 594.32
00011878 00000145 467.89 195.55 382.97 549.86 577.17 413.79 750.10 397.69 684.94 494.53 615.54 605.90 761.14 592.50
00011879 00000146 468.38 186.88 384.08 552.96 579.90 409.87 747.39 393.21 685.89 492.87 627.52 601.57 768.24 588.11
00011880 00000147 468.03 189.88 385.85 550.30 583.07 408.13 750.41 389.64 693.45 490.92 633.64 600.89 773.91 585.66
00011881 00000148 469.59 189.93 384.56 550.03 584.01 406.95 754.75 386.64 699.08 490.48 636.00 601.26 781.40 584.12
00011882 00000149 469.19 190.29 385.51 550.24 583.54 408.13 754.84 386.89 699.55 491.68 635.05 601.52 781.82 583.69
00011883 00000150 468.94 190.62 385.11 550.15 585.16 408.83 756.16 389.37 700.97 493.80 635.72 602.88 779.92 586.67
00011884 00000151 468.35 189.86 385.18 551.17 585.15 410.38 757.36 392.51 701.16 496.10 634.95 604.97 778.74 590.13
00011885 00000152 469.48 190.34 384.54 552.03 587.79 410.18 756.65 392.48 701.11 495.89 637.12 604.26 777.03 589.71
00011886 00000153 469.90 187.83 385.02 554.06 588.58 410.67 759.76 391.62 704.45 495.25 638.56 604.14 781.38 588.29
00011887 00000154 470.70 187.81 384.65 556.95 588.74 410.10 760.20 390.69 705.36 495.54 638.56 605.36 782.91 589.15
00011888 00000155 471.49 189.18 385.21 557.14 590.03 409.96 758.50 391.04 704.81 497.35 640.12 605.68 781.31 589.84
00011889 00000156 471.65 190.73 384.96 558.27 590.41 410.55 758.38 392.09 705.25 498.23 639.84 606.91 781.12 591.42
00011890 00000157 472.10 191.21 384.77 554.82 590.74 411.76 761.31 393.18 706.83 499.93 639.79 606.63 783.18 591.00
00011891 00000158 471.98 192.77 384.62 552.23 590.45 411.80 762.64 393.83 707.39 500.40 639.31 606.81 783.77 591.68
00011892 00000159 471.39 191.68 384.78 553.81 590.89 411.50 760.26 394.84 705.21 499.95 637.85 605.16 780.29 591.11
00011893 00000160 469.85 189.45 383.83 556.03 588.50 415.34 756.46 400.25 699.15 500.66 632.82 604.20 775.44 591.46
00011894 00000161 467.98 196.72 380.26 548.97 587.05 419.18 759.42 404.46 702.52 497.59 625.52 605.89 772.53 593.13
00011895 00000162 462.62 196.34 383.00 549.19 579.14 417.72 752.69 399.71 695.41 497.42 621.08 607.69 767.81 592.29
00011896 00000163 457.96 199.12 384.77 549.06 573.32 417.03 748.55 398.24 690.45 500.68 616.07 610.16 763.40 594.14
00011897 00000164 455.34 203.12 382.31 549.89 562.58 420.21 742.76 395.08 683.01 503.91 608.27 620.21 756.86 597.48
00011898 00000165 452.87 204.96 382.90 548.14 559.69 422.79 738.86 396.63 679.52 507.57 607.07 622.81 753.36 599.16
00011899 00000166 450.95 204.30 382.11 548.71 557.48 424.40 736.49 397.82 677.88 510.36 606.06 624.70 751.63 600.58
00011900 00000167 446.50 204.60 383.69 549.63 554.33 424.58 733.69 399.32 673.74 512.86 602.20 625.47 745.61 602.41
00011901 00000168 441.49 207.80 386.27 551.45 551.37 424.10 729.52 399.06 669.10 513.05 597.74 625.96 738.99 603.25
00011902 00000169 437.86 207.58 388.09 553.07 549.05 424.81 725.63 399.42 665.40 513.76 595.05 625.75 735.08 602.65
00011903 00000170 435.23 209.19 387.88 552.74 545.71 425.24 722.97 398.70 661.72 512.66 591.04 625.49 733.54 601.59
