Video ID: 	dJduj33CsHk
H: 	1080
W: 	1920
FPS: 	25.0

FRAME INDEX X0 Y0 W H [Landmarks (5 Points)]

00004637 00000000 803.25 223.01 404.49 594.67 870.68 482.10 1044.84 461.50 936.11 571.83 904.60 677.16 1057.89 660.62
00004638 DELETE   803.07 232.27 405.15 586.19 877.83 486.77 1048.85 470.93 945.57 578.42 910.82 676.64 1058.80 663.71
00004639 DELETE   802.53 232.36 403.13 607.73 882.37 492.34 1048.41 476.12 949.69 576.42 916.83 685.00 1059.23 672.42
00004640 00000003 797.83 229.28 402.91 623.55 878.33 494.16 1043.69 467.44 949.35 573.58 919.16 694.97 1060.44 673.72
00004641 DELETE   787.72 231.90 408.41 612.66 867.61 494.46 1033.98 455.58 945.47 563.53 918.57 693.59 1058.26 662.87
00004642 00000005 780.35 233.84 414.33 602.81 863.09 489.33 1032.34 449.86 946.51 561.08 915.87 685.60 1064.20 653.33
00004643 DELETE   775.07 232.64 418.90 609.39 863.02 496.00 1032.55 454.26 953.02 568.21 922.14 692.37 1070.23 657.99
00004644 DELETE   772.57 239.56 420.23 625.41 862.59 508.09 1031.83 468.22 951.43 587.88 920.31 710.49 1067.59 678.04
00004645 00000008 770.97 246.40 427.16 639.02 861.90 522.33 1033.64 482.41 951.05 611.25 920.26 726.56 1073.64 692.63
00004646 00000009 773.67 248.70 429.27 649.21 866.15 525.38 1040.90 490.08 956.67 621.38 921.39 732.48 1077.13 702.07
00004647 00000010 778.76 247.48 426.12 644.13 867.37 522.17 1041.36 488.30 954.93 615.87 919.14 724.83 1077.29 695.40
00004648 00000011 778.86 241.83 424.52 637.92 863.82 513.33 1039.20 480.85 949.30 607.42 914.41 715.85 1073.62 687.66
00004649 00000012 779.48 238.52 419.45 631.11 862.22 506.04 1037.20 477.12 943.70 602.47 908.51 707.92 1068.54 682.93
00004650 00000013 775.63 236.74 421.23 637.73 859.90 504.24 1034.14 475.92 940.20 604.51 906.93 711.16 1065.81 686.70
00004651 00000014 771.97 236.49 420.68 646.39 856.63 506.70 1028.48 476.06 936.68 606.88 907.22 717.38 1063.16 690.65
00004652 00000015 766.47 237.05 423.20 643.56 850.68 509.10 1025.34 477.84 932.84 610.10 903.09 719.54 1060.65 692.46
00004653 00000016 759.82 236.64 421.51 636.47 843.91 511.80 1018.88 482.10 930.57 614.18 896.09 719.27 1052.91 694.36
00004654 00000017 754.58 239.63 423.12 633.06 834.60 517.08 1011.86 488.19 920.78 618.75 882.95 718.42 1047.11 694.33
00004655 00000018 749.00 246.12 423.63 636.84 828.94 520.72 1006.51 492.68 911.49 623.59 877.63 727.00 1039.28 703.46
00004656 00000019 747.77 246.43 424.37 646.00 829.53 523.77 1002.86 493.24 911.62 625.03 884.05 735.45 1036.27 710.44
00004657 00000020 750.45 245.83 422.78 650.85 831.24 523.71 1006.48 491.89 912.41 624.52 883.94 737.04 1039.66 710.75
00004658 00000021 753.75 243.54 426.36 647.75 833.71 524.44 1012.59 489.93 919.41 624.62 886.57 732.48 1049.49 703.60
00004659 00000022 758.15 243.41 424.91 643.73 836.51 522.27 1015.86 490.62 922.14 627.10 887.48 729.88 1051.85 703.24
00004660 00000023 763.86 241.61 423.01 646.43 843.12 521.14 1018.95 489.24 926.56 626.81 894.10 729.31 1055.67 702.22
00004661 00000024 767.31 241.54 424.13 644.93 849.99 518.21 1020.09 487.44 928.78 620.77 901.90 728.69 1052.37 702.44
00004662 00000025 771.96 238.72 424.20 642.02 854.23 512.99 1022.02 484.22 928.47 615.22 905.43 722.81 1052.84 697.97
00004663 00000026 775.19 240.45 422.73 632.23 856.21 508.06 1025.67 481.13 930.11 609.02 904.70 715.48 1054.25 692.19
00004664 00000027 777.34 239.47 421.26 624.39 858.95 502.96 1030.40 478.13 932.87 602.32 905.31 707.97 1056.15 686.61
00004665 00000028 779.95 239.94 419.07 617.71 860.98 501.40 1032.81 475.54 937.68 595.03 907.88 702.95 1058.28 681.17
00004666 00000029 782.17 239.72 416.24 613.74 862.09 496.94 1032.72 473.00 935.85 591.32 907.35 699.34 1055.73 679.18
00004667 00000030 778.56 238.75 419.47 608.16 858.27 495.39 1030.06 471.27 933.45 588.23 904.46 695.66 1054.05 675.49
00004668 00000031 776.14 238.61 419.70 599.75 855.23 493.08 1028.40 469.37 931.69 587.38 900.63 691.46 1051.43 671.47
00004669 00000032 772.61 237.68 418.77 595.14 850.02 493.78 1026.83 468.51 929.92 588.79 894.41 689.15 1052.60 667.65
00004670 00000033 769.50 235.01 416.62 597.42 846.67 493.23 1022.01 466.65 926.24 585.39 890.09 688.40 1049.02 666.05
00004671 00000034 769.42 230.03 412.21 612.82 845.83 489.79 1017.80 464.29 920.52 582.76 889.38 694.89 1041.59 673.18
00004672 00000035 767.41 228.76 411.05 621.78 843.23 488.59 1014.69 461.81 916.10 581.84 887.17 697.76 1041.20 674.75
00004673 00000036 766.77 226.03 410.14 626.94 840.67 489.18 1013.95 460.67 913.82 581.21 884.23 696.62 1043.90 672.04
00004674 00000037 765.59 225.56 409.24 630.21 837.75 488.82 1012.28 459.55 911.10 580.91 880.37 696.39 1044.30 671.13
00004675 00000038 764.19 225.63 405.78 627.21 833.99 489.80 1008.54 460.96 904.80 582.18 876.35 697.22 1039.57 672.16
00004676 00000039 761.55 227.49 405.63 620.72 830.87 489.08 1005.26 461.34 900.45 583.06 872.53 697.17 1033.85 672.65
00004677 00000040 758.06 226.78 405.17 621.36 827.34 489.69 999.55 462.33 896.44 585.85 869.42 698.50 1028.70 674.17
00004678 00000041 756.64 229.50 403.38 618.71 824.42 491.17 993.25 463.66 892.05 586.71 867.14 698.71 1024.19 674.28
00004679 00000042 753.13 228.67 402.13 618.52 821.33 491.94 988.77 463.41 888.42 585.59 864.41 697.80 1019.69 672.64
00004680 00000043 745.57 241.69 402.43 593.92 823.31 499.40 992.54 470.85 895.45 588.36 867.35 691.46 1016.55 667.34
00004681 DELETE   744.20 240.13 405.02 592.37 821.86 501.32 989.50 468.40 894.55 583.40 867.64 688.26 1016.27 660.96
00004682 DELETE   751.59 227.44 403.04 608.99 819.03 492.38 990.25 453.04 895.16 571.11 870.43 691.07 1029.54 657.48
00004683 00000046 756.77 229.19 401.63 603.51 823.12 490.76 994.75 449.08 899.75 564.37 872.74 686.81 1033.59 651.84
00004684 00000047 758.75 226.78 400.63 603.42 823.84 486.03 997.37 443.89 898.90 557.84 871.72 683.61 1034.71 648.17
00004685 DELETE   761.12 225.37 400.66 605.61 826.94 480.77 1000.28 441.75 898.62 555.12 871.79 680.54 1035.68 647.36
00004686 00000049 763.10 224.61 401.34 608.51 828.33 480.62 1001.70 441.91 900.79 556.06 874.61 682.08 1038.20 649.24
00004687 00000050 765.06 227.17 401.62 608.58 829.71 481.92 1005.14 443.96 903.08 559.29 877.46 683.37 1043.40 651.20
00004688 00000051 767.41 225.81 401.95 616.99 832.61 484.39 1010.07 445.87 906.67 563.07 881.50 686.66 1048.88 654.01
00004689 00000052 768.80 227.15 405.62 619.33 837.91 486.23 1014.15 449.46 913.75 567.55 886.57 688.23 1053.97 656.98
00004690 00000053 771.03 228.45 407.57 621.54 842.09 487.26 1016.29 450.69 918.34 569.76 892.38 691.32 1056.30 660.00
00004691 00000054 774.50 229.44 408.30 620.40 846.43 487.67 1019.13 451.70 923.42 571.04 896.83 690.87 1058.48 660.20
00004692 00000055 777.51 228.88 406.83 614.91 848.59 485.93 1020.99 452.49 926.42 571.19 899.19 687.55 1059.19 659.20
00004693 00000056 781.04 231.54 406.30 604.89 853.60 485.17 1022.62 455.04 930.14 571.42 901.12 683.52 1056.06 658.49
00004694 00000057 784.53 232.31 404.23 600.00 857.41 485.42 1025.07 456.97 931.94 569.70 902.35 681.86 1053.37 658.65
00004695 00000058 784.51 232.38 405.90 598.55 857.96 486.29 1024.35 458.72 931.47 571.18 902.58 682.59 1049.88 660.35
00004696 00000059 785.80 235.10 406.22 592.74 859.53 488.52 1026.27 462.56 932.46 573.59 902.64 681.70 1048.57 660.91
00004697 00000060 786.94 239.11 404.32 585.52 859.94 491.60 1027.31 467.76 931.95 578.03 901.36 681.88 1047.38 662.61
00004698 00000061 790.68 240.07 400.59 583.43 863.41 494.67 1027.26 474.15 931.40 583.92 901.58 681.41 1044.20 664.52
00004699 DELETE   792.68 239.98 399.31 584.71 864.73 496.46 1026.49 476.53 931.04 586.54 903.79 684.29 1042.72 667.87
00004700 00000063 793.16 236.90 399.54 590.82 863.37 495.98 1028.32 475.03 929.13 587.67 902.31 687.38 1045.21 670.19
00004701 00000064 794.89 234.61 397.42 592.86 862.49 493.29 1030.89 473.70 927.93 587.37 899.69 687.25 1046.61 671.37
00004702 00000065 794.10 234.60 398.45 594.74 864.24 493.45 1029.47 473.07 929.52 585.57 902.80 687.34 1044.85 670.66
00004703 00000066 793.22 234.21 398.95 598.49 864.40 493.96 1027.37 473.06 928.32 584.97 903.98 688.91 1043.51 671.61
00004704 00000067 791.43 233.99 399.05 599.74 862.56 495.27 1026.30 474.63 927.79 587.70 902.33 691.06 1042.38 673.69
00004705 00000068 788.13 233.42 400.90 603.26 860.18 496.36 1025.28 475.06 928.01 589.68 901.49 693.70 1042.65 675.86
00004706 00000069 784.12 231.82 404.52 606.97 857.60 496.15 1024.81 475.68 927.27 591.63 899.24 695.80 1041.78 678.59
00004707 DELETE   787.22 234.28 401.51 606.06 858.51 500.51 1027.40 480.37 928.16 590.74 897.93 694.74 1043.65 677.94
00004708 DELETE   798.27 234.88 394.86 606.46 867.75 508.00 1030.30 490.95 928.39 590.72 900.43 691.76 1043.85 677.60
00004709 00000072 809.30 233.68 396.99 605.70 881.03 504.30 1050.02 496.23 941.02 595.07 905.07 689.21 1053.92 682.06
00004710 DELETE   825.06 224.59 404.24 629.64 891.10 499.91 1069.60 500.79 950.72 610.87 903.29 696.78 1064.79 697.91
00004711 DELETE   834.35 236.71 402.73 632.27 901.23 510.05 1077.79 517.49 959.89 626.90 915.72 710.28 1077.19 714.95
00004712 DELETE   833.05 242.11 408.47 640.03 904.21 520.18 1085.30 532.95 961.86 645.41 915.86 720.85 1080.68 730.19
00004713 00000076 834.60 253.03 409.50 643.56 905.61 536.12 1087.66 546.53 965.19 662.89 921.21 737.48 1087.42 744.53
00004714 00000077 835.03 262.60 412.49 648.26 906.44 543.46 1090.10 551.69 969.58 677.54 925.01 750.18 1090.21 755.95
00004715 00000078 833.03 265.55 419.10 656.60 907.15 549.23 1092.50 556.64 971.67 685.61 925.68 758.35 1092.10 763.53
00004716 00000079 835.30 267.75 420.00 661.67 910.94 549.15 1097.18 558.71 976.51 688.21 926.97 760.26 1096.02 767.33
00004717 00000080 838.58 268.11 422.64 662.42 913.99 553.04 1099.77 562.61 978.59 692.06 928.07 760.55 1098.98 767.50
00004718 00000081 838.91 274.92 424.39 655.92 915.97 557.30 1102.12 566.59 980.42 695.35 928.77 758.26 1103.84 765.25
00004719 00000082 837.30 270.94 426.37 657.30 916.06 555.95 1100.83 564.45 978.36 690.24 928.41 755.73 1103.84 761.90
00004720 DELETE   839.34 259.02 421.63 655.69 911.80 536.39 1099.81 548.16 972.36 674.70 925.78 743.67 1103.88 751.61
00004721 DELETE   834.48 244.25 423.98 649.15 910.97 518.48 1101.14 529.04 970.61 647.79 922.90 722.84 1101.78 729.71
00004722 DELETE   831.84 236.55 424.01 642.83 909.44 508.20 1101.32 516.64 974.48 630.75 920.95 710.12 1100.77 715.61
00004723 00000086 831.13 232.34 417.55 643.45 905.27 505.21 1097.94 510.51 972.44 623.02 917.36 708.74 1097.03 711.61
00004724 00000087 829.02 229.99 415.60 648.71 903.43 503.23 1093.30 506.97 970.34 621.40 917.06 712.25 1091.89 714.11
00004725 00000088 825.34 226.18 420.67 661.50 901.94 502.77 1089.24 503.83 966.66 619.19 917.45 716.66 1081.60 718.14
00004726 00000089 824.94 229.01 416.23 640.78 902.89 496.09 1089.67 500.64 972.37 615.78 916.02 706.59 1085.23 709.52
00004727 00000090 823.17 227.70 417.34 632.04 901.89 492.31 1091.91 498.22 975.24 615.91 913.67 695.30 1092.42 698.60
00004728 00000091 822.45 224.97 416.35 629.03 898.56 488.82 1087.07 492.37 971.91 614.03 914.41 692.22 1089.73 693.55
00004729 00000092 819.99 221.91 414.63 633.78 894.29 487.32 1081.04 488.40 967.61 613.55 911.59 693.85 1084.04 693.28
00004730 00000093 815.55 219.73 415.81 633.57 887.58 490.85 1070.13 491.67 952.86 611.39 904.81 692.49 1069.99 693.11
00004731 00000094 808.87 230.26 404.52 616.09 883.39 495.01 1059.03 488.46 949.96 610.25 909.77 691.57 1067.94 684.31
00004732 00000095 803.09 233.09 405.36 613.79 878.50 494.46 1051.69 485.86 943.99 606.03 906.57 691.68 1061.98 682.77
00004733 00000096 792.82 232.39 411.13 621.58 871.56 492.42 1044.33 483.18 938.23 604.83 902.44 696.96 1055.22 687.96
00004734 00000097 784.34 236.49 415.85 620.26 861.58 497.94 1038.10 487.24 932.44 611.92 892.70 698.40 1054.91 687.74
00004735 00000098 777.42 241.64 417.95 626.65 855.19 508.42 1029.15 495.68 927.67 621.33 891.23 710.94 1047.98 698.96
00004736 00000099 776.20 242.13 416.15 627.22 852.64 507.01 1025.59 495.67 922.89 621.01 887.34 711.71 1042.31 700.90
00004737 00000100 772.62 234.64 421.09 619.30 847.67 500.39 1021.84 487.81 915.56 607.86 882.12 700.03 1040.72 687.76
00004738 DELETE   780.78 221.37 415.61 616.66 853.99 485.52 1031.66 470.77 924.48 590.78 886.59 687.71 1048.45 674.61
00004739 DELETE   793.03 213.45 412.71 625.68 864.08 478.67 1042.48 459.97 932.50 578.19 896.83 682.75 1058.37 666.88
00004740 00000103 802.13 212.70 407.58 633.27 874.98 479.99 1051.00 464.94 938.42 580.90 904.63 686.40 1061.16 673.16
00004741 00000104 801.50 222.11 410.70 642.31 876.40 489.68 1051.99 471.72 941.76 592.03 912.06 702.38 1065.47 686.19
00004742 00000105 799.56 228.59 413.07 633.47 872.81 492.73 1046.22 474.52 936.42 597.45 907.89 701.03 1062.86 684.15
00004743 00000106 799.17 230.20 414.93 613.15 871.31 492.82 1046.32 477.64 934.64 601.25 903.61 690.87 1062.59 676.62
00004744 00000107 801.72 224.95 413.22 610.90 871.01 490.58 1047.70 476.23 933.54 598.51 902.26 687.57 1061.71 673.83
00004745 00000108 803.13 221.95 413.27 614.79 872.54 490.17 1048.15 475.72 933.71 596.15 904.60 688.25 1060.88 674.32
00004746 00000109 804.36 221.97 411.89 613.76 873.45 490.92 1047.89 475.31 934.19 595.98 906.90 689.04 1060.71 674.16
00004747 00000110 805.01 222.02 409.54 614.31 873.45 489.76 1047.26 474.58 933.93 595.43 906.75 688.72 1060.43 674.23
00004748 00000111 803.90 221.70 408.16 613.71 872.06 489.35 1045.74 472.92 933.23 593.04 905.91 688.40 1059.76 673.15
00004749 00000112 800.16 223.99 407.52 608.18 868.05 489.86 1043.38 473.56 931.49 596.89 902.73 688.11 1059.77 673.26
00004750 00000113 797.42 227.28 405.39 606.75 864.53 490.68 1037.07 474.35 925.84 596.35 900.04 689.38 1054.31 674.53
00004751 00000114 793.45 230.97 408.18 606.79 862.97 490.77 1031.75 475.33 923.14 592.98 897.50 689.53 1046.97 675.50
00004752 00000115 791.53 231.55 409.51 607.21 861.09 489.96 1030.00 474.60 921.31 592.64 895.90 689.51 1045.77 675.69
00004753 00000116 788.04 228.99 410.23 614.05 859.77 488.15 1027.27 472.06 921.14 591.39 895.50 690.61 1043.22 676.40
00004754 00000117 783.43 223.93 411.12 627.06 857.52 486.07 1023.07 466.89 919.85 589.21 897.07 695.05 1042.02 678.07
00004755 00000118 779.87 219.25 411.25 639.65 851.55 484.46 1020.56 463.44 915.50 588.83 892.36 697.52 1045.23 678.74
00004756 00000119 775.27 220.78 415.49 634.97 846.75 485.29 1018.60 464.31 913.12 590.04 888.52 695.27 1046.48 676.23
00004757 00000120 773.39 223.31 415.09 621.47 841.65 489.17 1017.91 468.32 911.91 593.52 882.58 691.18 1046.69 672.22
00004758 00000121 772.57 225.78 415.35 616.39 837.92 492.60 1014.99 471.36 906.43 595.29 878.10 694.93 1041.22 675.62
00004759 00000122 769.97 227.23 416.53 618.90 835.23 494.69 1013.13 473.70 904.02 598.71 875.86 699.34 1039.11 680.04
00004760 00000123 767.95 229.01 414.61 621.78 836.92 494.82 1006.02 474.00 902.34 599.53 880.86 703.51 1031.74 684.72
00004761 00000124 766.91 229.09 413.77 619.95 834.53 494.77 1004.37 473.87 900.20 599.88 878.21 702.90 1030.73 683.91
00004762 00000125 766.26 226.42 414.28 620.37 832.02 493.74 1003.70 471.70 898.17 598.74 876.00 702.65 1030.94 682.57
00004763 00000126 764.31 223.09 416.85 619.99 828.91 492.61 1003.29 469.89 895.89 595.93 871.04 700.06 1031.67 679.07
00004764 00000127 763.81 222.35 415.28 616.32 826.32 491.26 1003.43 468.43 894.38 594.85 868.30 699.33 1030.76 678.12
00004765 00000128 761.27 227.36 418.09 610.15 828.01 494.73 1005.66 470.97 895.76 595.78 867.71 694.06 1022.08 674.04
00004766 00000129 759.42 223.64 417.10 609.28 828.39 492.08 1004.07 473.85 893.08 592.72 863.08 688.17 1013.27 673.06
00004767 00000130 761.05 218.75 412.88 614.68 824.89 486.15 997.06 469.10 888.76 594.80 863.22 694.40 1013.07 678.49
00004768 00000131 761.07 225.34 414.24 618.76 826.78 493.15 997.12 478.34 890.55 605.84 866.00 701.18 1018.08 686.97
00004769 00000132 763.64 227.41 411.44 634.30 829.41 500.91 994.96 484.75 889.88 613.26 868.30 711.42 1018.93 696.71
CROP_BBOX: 504 0 1624 1080
