Video ID: 	cXOATB1v3jM
H: 	1080
W: 	1920
FPS: 	23.976023976023978

FRAME INDEX X0 Y0 W H [Landmarks (5 Points)]

00018902 00000000 513.21 111.33 491.77 765.04 709.32 419.90 926.47 403.24 892.10 548.08 724.95 682.50 930.94 668.74
00018903 00000001 519.96 111.39 490.34 758.25 719.31 421.49 931.34 402.39 899.60 547.58 739.84 677.62 937.98 661.94
00018904 DELETE   519.88 119.14 493.67 744.39 724.39 436.91 943.36 412.49 906.04 550.18 751.28 683.96 949.04 664.08
00018905 DELETE   532.67 120.94 485.61 739.14 727.83 438.49 948.72 414.59 905.58 549.83 757.79 686.96 951.83 667.53
00018906 DELETE   540.40 122.80 479.88 741.44 728.65 432.88 950.45 408.69 907.21 546.67 761.50 688.96 954.15 669.27
00018907 00000005 541.71 124.12 479.10 743.08 729.63 426.03 948.55 404.62 909.03 546.90 763.71 688.79 952.73 671.33
00018908 00000006 539.22 123.43 483.35 744.22 727.40 423.89 949.74 405.45 905.31 548.83 760.54 689.10 951.20 673.88
00018909 00000007 535.73 123.34 488.68 741.63 724.97 419.51 950.18 405.83 900.57 548.00 758.06 685.36 950.36 673.70
00018910 00000008 531.74 124.20 494.76 733.17 722.40 418.81 952.70 407.52 896.49 548.06 752.90 679.37 953.16 669.39
00018911 00000009 530.21 129.05 493.92 737.45 717.83 420.58 947.87 411.14 889.74 551.95 740.82 678.87 946.74 670.55
00018912 00000010 530.10 131.33 492.82 742.92 719.19 424.77 945.90 412.00 893.59 556.12 738.35 683.38 942.48 672.96
00018913 00000011 533.38 135.13 490.84 743.60 726.01 431.72 951.15 412.59 905.49 562.59 744.72 690.58 947.95 675.48
00018914 00000012 538.27 139.40 489.01 736.68 733.77 437.42 957.24 412.60 916.67 565.07 754.86 692.65 956.84 673.06
00018915 00000013 543.90 139.94 484.42 734.99 739.07 440.95 959.78 412.28 922.80 565.00 764.31 694.13 963.11 671.16
00018916 00000014 549.22 140.85 478.86 732.58 742.25 440.39 960.40 410.72 925.39 563.58 769.55 692.83 965.41 669.16
00018917 00000015 552.54 139.84 474.30 734.16 742.11 439.35 957.23 409.14 924.13 560.32 776.82 697.96 963.47 673.69
00018918 00000016 549.65 134.50 474.49 736.80 735.85 436.94 953.34 407.53 916.51 557.07 774.73 696.59 960.03 672.62
00018919 00000017 542.48 124.97 479.63 741.66 729.06 430.04 949.24 404.18 906.57 551.68 765.33 690.17 953.86 668.94
00018920 00000018 535.55 120.41 488.28 742.82 726.99 418.89 947.64 404.37 899.93 548.17 759.90 681.06 948.98 668.47
00018921 00000019 527.19 119.93 495.24 742.60 720.32 414.54 944.68 406.02 891.64 542.91 749.72 675.81 945.60 667.85
00018922 00000020 522.60 121.68 494.75 733.88 715.94 412.18 941.35 399.30 885.71 533.42 744.74 671.45 931.92 660.06
00018923 00000021 515.16 120.62 499.04 731.46 709.55 411.68 935.54 402.58 874.96 534.65 733.68 669.23 921.69 660.82
00018924 00000022 510.82 122.13 501.65 728.76 703.08 413.11 931.36 402.74 868.51 535.56 728.92 670.20 918.86 660.62
00018925 00000023 502.99 128.57 506.62 730.26 693.71 406.59 926.25 402.43 866.01 536.70 735.69 677.76 920.71 671.87
00018926 00000024 504.06 123.39 503.00 729.13 695.87 412.55 922.26 403.44 867.90 539.25 735.89 678.63 922.09 670.87
00018927 00000025 505.85 119.97 503.26 726.74 697.20 411.85 926.98 401.67 864.42 530.23 736.11 674.07 918.15 663.74
00018928 00000026 504.07 116.58 505.84 738.63 698.09 408.77 927.83 401.86 865.83 527.18 738.68 678.06 917.15 670.17
00018929 00000027 506.26 118.56 503.61 735.83 700.55 408.89 928.63 403.72 867.42 527.97 740.97 678.92 916.37 672.63
00018930 00000028 508.04 118.67 503.34 736.30 704.54 409.60 930.03 404.56 870.31 528.64 742.39 677.74 915.82 671.86
00018931 00000029 513.21 119.07 500.00 733.98 708.00 408.94 933.42 402.63 874.70 527.52 746.11 673.91 922.90 666.86
00018932 00000030 516.73 119.56 498.02 729.29 712.23 408.53 936.85 401.31 878.75 529.85 743.08 668.30 925.64 660.82
00018933 00000031 518.32 116.49 497.08 727.53 716.27 409.20 939.64 400.34 884.17 531.96 739.15 662.19 928.23 653.95
00018934 00000032 521.36 116.46 495.56 724.83 719.79 410.22 941.44 398.85 889.11 533.21 737.32 657.63 931.24 647.90
00018935 00000033 523.45 115.47 494.62 733.56 722.15 409.42 942.10 397.99 889.94 532.98 740.37 659.92 932.38 650.08
00018936 00000034 522.96 116.26 494.77 755.08 720.00 407.82 939.79 398.20 889.69 530.05 738.19 669.72 930.72 661.20
00018937 00000035 523.00 131.07 494.84 761.34 720.71 408.45 933.49 404.78 891.11 532.05 734.03 678.09 932.11 673.33
00018938 00000036 521.00 130.51 496.01 764.29 714.70 412.43 928.60 403.95 886.47 536.52 729.91 682.75 931.51 674.05
00018939 00000037 519.46 115.40 497.29 766.87 704.96 415.81 932.67 398.09 876.07 534.36 730.34 681.37 931.56 665.44
00018940 00000038 521.65 118.47 498.26 749.98 701.78 420.31 930.29 403.75 870.70 545.31 726.38 674.14 940.54 659.47
00018941 00000039 527.05 121.21 497.78 744.70 705.24 421.31 935.09 403.35 875.76 544.84 730.81 672.37 946.28 656.55
00018942 00000040 533.15 122.67 495.52 743.06 712.30 418.59 940.71 402.77 884.71 540.12 737.34 670.96 951.47 656.96
00018943 00000041 537.50 124.03 493.13 739.16 718.10 417.00 945.24 403.16 890.31 539.03 745.24 670.68 954.67 658.24
00018944 00000042 536.10 120.37 491.76 721.95 723.29 419.81 952.08 395.33 897.89 535.39 757.90 671.27 949.81 650.59
00018945 00000043 537.34 121.34 491.05 712.33 724.16 418.61 954.81 397.55 897.96 534.37 762.01 671.01 951.05 653.01
00018946 00000044 538.21 121.87 489.48 714.44 727.24 418.84 956.56 399.65 901.62 536.07 764.92 672.82 951.71 656.36
00018947 00000045 534.87 127.80 493.65 734.39 732.65 416.73 955.88 408.93 907.75 541.82 759.34 678.87 955.50 671.62
00018948 00000046 541.92 132.11 492.98 732.72 745.62 417.13 963.34 407.47 925.79 537.98 767.28 677.59 964.46 669.14
00018949 00000047 548.56 130.68 489.41 730.64 755.04 415.10 967.96 401.51 938.53 534.88 777.01 674.04 971.91 662.61
00018950 00000048 548.08 127.56 493.96 723.99 757.74 409.28 972.74 398.78 939.03 531.55 782.35 668.69 975.59 659.30
00018951 00000049 548.54 125.83 493.10 718.31 756.03 405.03 972.95 395.10 936.97 527.98 780.04 663.00 974.42 654.10
00018952 00000050 544.53 124.26 495.65 717.04 754.09 402.11 970.15 398.17 932.48 526.32 775.51 659.00 968.98 654.95
00018953 00000051 543.77 126.45 494.44 717.84 751.92 404.06 968.22 400.91 929.12 530.30 771.73 660.72 964.91 657.47
00018954 00000052 542.19 126.77 491.29 721.44 749.96 407.27 964.67 404.78 925.27 534.11 770.68 664.07 961.91 661.17
00018955 00000053 540.48 125.82 488.08 727.02 744.51 411.01 960.64 406.74 918.92 536.12 768.76 668.94 958.73 664.29
00018956 00000054 536.59 127.16 487.28 726.08 738.06 411.16 954.96 407.77 909.72 535.58 767.60 669.75 954.95 665.57
00018957 00000055 531.25 120.24 489.24 722.05 732.59 412.61 954.95 398.03 909.42 528.86 772.23 668.50 951.21 655.69
00018958 00000056 533.38 118.91 486.43 722.09 729.76 411.22 951.12 393.93 904.45 527.63 768.72 666.10 947.78 651.33
00018959 00000057 527.06 115.95 490.86 723.90 724.61 408.73 947.99 392.91 900.24 524.65 765.05 663.54 946.80 649.49
00018960 00000058 521.25 114.42 494.38 722.70 718.63 403.62 942.64 388.83 894.39 519.50 757.53 658.23 942.02 645.06
00018961 00000059 518.37 109.03 495.56 726.88 712.76 396.61 936.60 382.47 885.96 510.83 751.83 651.89 936.65 638.99
00018962 00000060 507.16 116.46 506.58 722.38 695.53 394.74 926.53 386.44 872.61 503.46 733.81 654.49 929.93 645.38
00018963 00000061 500.81 111.68 510.80 723.55 688.10 392.68 922.41 382.47 865.56 504.02 718.71 647.73 924.60 637.24
00018964 00000062 497.56 98.63 511.40 734.61 689.06 388.25 922.87 374.12 868.26 507.10 714.53 644.93 925.70 633.08
00018965 00000063 496.16 96.00 511.99 732.91 688.12 386.16 922.35 372.85 865.79 503.44 713.37 640.01 924.47 628.55
00018966 00000064 499.69 97.75 510.90 726.04 691.46 386.14 925.38 370.50 870.61 504.16 714.56 635.25 927.26 622.39
00018967 00000065 500.58 100.37 512.79 724.15 696.78 388.59 930.36 371.00 877.41 506.58 720.96 638.07 933.61 623.87
00018968 00000066 510.70 101.50 501.13 723.20 707.98 391.01 933.24 377.81 881.59 507.99 724.53 629.51 933.44 617.88
00018969 00000067 515.88 103.99 498.04 725.80 718.74 392.73 939.16 379.16 897.45 514.35 732.34 634.25 937.70 622.88
00018970 00000068 524.43 106.15 492.60 725.74 727.56 399.11 946.31 382.69 907.15 520.98 742.63 638.92 945.13 625.53
00018971 00000069 530.67 110.47 490.48 719.14 732.32 404.33 951.88 382.55 914.36 523.78 753.56 644.14 954.52 626.29
00018972 00000070 538.01 116.45 491.06 730.90 737.10 408.91 955.31 390.18 918.15 531.26 756.01 658.41 962.33 642.55
00018973 00000071 543.55 116.06 489.58 736.47 738.27 412.04 956.95 390.07 919.88 530.95 768.67 669.10 966.43 650.39
00018974 00000072 548.51 115.52 492.77 735.14 739.28 416.28 962.78 389.43 922.99 531.41 782.04 674.71 980.21 651.51
00018975 00000073 550.97 117.83 493.76 729.66 743.02 420.79 967.10 394.09 924.80 532.05 784.83 674.25 982.14 651.38
00018976 00000074 554.77 121.71 494.40 725.38 742.67 423.93 971.92 396.39 924.57 538.38 781.89 675.80 984.32 652.33
00018977 00000075 552.80 129.49 494.53 728.41 744.12 427.03 972.05 400.40 926.54 544.53 768.87 677.43 977.19 655.59
00018978 00000076 556.59 140.73 491.52 738.12 750.89 432.42 976.37 415.10 932.19 559.80 757.57 685.03 968.11 671.96
00018979 00000077 553.65 148.40 495.49 752.41 753.71 440.41 974.26 429.64 932.20 568.64 769.31 705.32 965.84 697.27
00018980 00000078 549.56 156.38 499.53 751.12 756.32 451.60 977.37 436.16 936.98 581.12 786.59 725.66 967.85 713.96
00018981 00000079 551.32 163.72 497.40 738.18 755.42 460.83 978.62 440.11 936.43 586.92 789.11 728.38 969.46 712.39
00018982 00000080 555.08 170.04 493.31 731.89 755.47 469.03 979.40 443.35 938.83 595.18 791.33 733.16 972.61 713.19
00018983 00000081 553.97 177.54 496.54 735.32 757.93 473.81 982.82 452.29 939.88 610.65 793.58 747.27 981.21 728.82
00018984 00000082 554.95 183.98 495.15 727.89 756.97 477.49 983.45 456.55 936.97 615.97 797.22 752.95 981.41 734.85
00018985 00000083 554.46 187.48 494.50 726.89 756.98 477.99 980.84 461.25 933.33 617.29 798.14 755.49 975.15 740.65
00018986 00000084 553.41 189.13 494.52 726.39 754.85 478.59 976.90 462.74 930.05 618.48 792.88 755.49 967.33 741.79
00018987 00000085 552.63 189.16 495.15 729.44 755.32 477.40 974.43 462.74 929.65 616.35 789.26 752.66 964.79 740.13
00018988 00000086 551.79 188.08 495.18 728.59 754.19 476.50 973.35 462.20 927.65 615.10 786.51 749.83 964.09 737.55
00018989 00000087 550.43 186.80 495.26 727.24 753.77 474.33 972.35 459.33 927.08 613.21 785.99 747.19 964.43 734.17
00018990 00000088 548.11 184.53 495.62 726.19 752.78 471.99 969.68 458.92 923.91 610.87 781.88 741.65 960.72 730.14
00018991 00000089 548.68 181.47 493.17 725.18 749.86 468.66 967.08 456.10 921.20 607.10 777.82 736.33 958.14 725.22
00018992 00000090 542.62 171.66 495.08 731.46 744.80 464.22 963.43 448.30 917.58 602.15 772.77 730.98 956.63 716.95
00018993 00000091 546.06 163.63 483.82 733.99 736.36 464.65 959.05 438.48 911.54 588.93 762.64 718.56 952.07 698.02
00018994 00000092 531.88 145.79 494.73 762.87 726.63 467.66 954.37 438.68 906.27 586.49 745.70 717.82 949.06 694.83
00018995 00000093 517.46 141.21 500.66 763.87 708.66 460.59 938.82 433.90 885.81 576.77 728.83 708.63 938.71 686.89
00018996 00000094 509.48 133.88 503.45 766.61 697.91 450.32 928.24 426.94 870.40 570.87 716.54 700.43 930.27 681.16
00018997 00000095 498.11 136.43 506.75 746.89 689.26 442.37 918.32 417.83 867.09 566.47 717.35 700.25 919.19 679.65
00018998 00000096 497.95 135.38 497.59 731.44 679.92 440.93 912.09 412.01 855.84 562.56 712.09 694.28 914.55 671.04
00018999 00000097 497.63 131.52 496.72 726.11 677.69 434.58 909.32 405.64 853.41 555.30 710.54 686.00 913.42 662.54
00019000 00000098 495.21 128.58 498.79 727.03 679.21 425.56 909.73 396.51 858.33 545.71 712.06 680.77 915.19 657.06
00019001 00000099 492.89 126.75 503.46 734.06 682.13 417.03 909.84 394.48 860.55 533.38 717.64 674.19 915.15 653.38
00019002 00000100 496.03 120.55 502.58 740.48 687.17 412.45 912.70 391.86 868.15 524.19 727.11 672.12 921.48 652.66
00019003 00000101 501.31 121.87 501.50 740.12 694.64 409.95 917.59 390.72 877.92 517.63 734.93 670.38 927.42 652.51
00019004 00000102 505.68 123.84 502.52 728.80 700.97 408.58 925.37 388.13 886.84 515.26 747.37 670.74 937.26 652.00
00019005 00000103 507.49 130.97 506.82 713.64 710.97 405.96 933.12 388.28 896.31 514.55 756.92 666.19 943.84 650.05
00019006 00000104 518.36 118.82 498.29 720.06 725.22 400.52 934.24 380.67 902.58 522.90 754.15 657.25 944.62 640.74
00019007 00000105 527.18 125.57 491.92 731.43 732.99 398.73 939.72 381.91 909.36 521.23 759.65 660.62 949.46 646.31
00019008 00000106 537.11 136.44 482.00 733.18 741.01 401.29 945.21 390.42 914.55 516.12 769.63 663.71 952.43 651.52
00019009 00000107 539.72 138.07 481.36 736.42 741.98 403.17 947.11 390.71 917.50 516.68 773.75 668.92 957.25 655.27
00019010 00000108 541.69 136.90 482.03 726.79 737.40 406.37 948.34 390.38 913.61 521.32 774.88 669.54 959.04 652.67
00019011 00000109 544.93 139.81 487.89 697.78 725.63 421.51 947.84 394.70 901.78 535.86 764.65 666.27 962.04 643.85
00019012 00000110 544.58 142.53 493.08 701.68 725.38 424.00 951.21 399.73 900.40 538.86 761.59 669.25 963.46 648.83
00019013 00000111 544.98 144.37 494.23 706.85 725.80 425.75 954.03 405.29 898.98 544.29 756.22 671.60 961.45 654.35
00019014 00000112 545.30 142.70 493.19 721.85 728.36 429.49 957.50 410.92 901.79 551.47 749.53 676.80 960.58 661.46
00019015 00000113 543.52 148.89 494.26 724.87 732.96 433.35 960.94 414.93 909.83 558.19 746.53 682.93 958.48 668.51
00019016 00000114 548.85 152.60 489.59 724.47 741.97 439.50 967.29 421.26 920.80 563.62 752.72 686.67 962.36 672.56
00019017 00000115 546.24 159.92 497.07 725.10 755.63 443.48 970.74 430.52 930.99 575.16 761.04 693.97 963.77 682.65
00019018 00000116 546.00 164.10 502.29 735.31 761.62 452.96 976.97 434.98 941.90 588.55 764.16 705.79 971.06 691.41
00019019 00000117 549.83 174.73 502.71 737.46 763.19 463.55 980.93 440.32 946.18 600.50 767.96 717.14 978.23 698.54
00019020 00000118 551.01 185.78 503.84 730.61 757.82 470.85 981.51 453.63 936.71 603.67 764.67 720.18 973.02 705.09
00019021 00000119 553.04 185.60 503.67 729.60 758.71 471.81 983.34 455.63 937.55 605.27 765.48 721.34 973.84 707.22
00019022 00000120 557.24 169.40 501.70 738.34 765.77 466.65 987.42 450.07 944.85 602.51 768.87 718.14 978.44 705.47
CROP_BBOX: 195 0 1347 1080
