Video ID: 	ew3WBdV_hAE
H: 	1080
W: 	1920
FPS: 	29.97002997002997

FRAME INDEX X0 Y0 W H [Landmarks (5 Points)]

00011720 00000000 789.48 183.39 383.18 537.53 878.93 406.25 1047.42 402.70 956.23 504.98 906.67 594.93 1041.87 592.78
00011721 DELETE   789.51 183.46 383.14 537.43 878.88 406.18 1047.36 402.65 956.15 504.93 906.65 594.85 1041.80 592.73
00011722 00000002 802.30 180.63 379.25 538.31 889.97 404.40 1057.77 398.02 972.52 502.89 919.69 593.88 1056.78 589.14
00011723 00000003 807.32 178.87 379.15 534.77 895.84 401.74 1067.18 397.46 980.85 496.98 925.27 590.43 1064.84 587.09
00011724 00000004 809.62 175.26 380.66 535.70 897.59 399.40 1071.64 395.66 983.16 495.71 925.69 589.63 1067.72 586.39
00011725 00000005 811.01 172.75 382.08 537.78 899.37 396.42 1074.95 393.92 985.09 496.11 926.84 590.73 1067.84 588.42
00011726 00000006 811.13 172.72 381.95 537.66 899.37 396.47 1074.96 394.02 985.08 496.17 926.86 590.65 1067.82 588.38
00011727 00000007 814.12 168.83 382.11 540.37 902.39 396.10 1079.55 395.34 988.12 496.95 928.40 592.12 1069.94 590.97
00011728 00000008 816.75 168.89 384.39 537.63 908.07 394.64 1085.96 393.59 996.28 498.20 937.38 592.52 1075.64 590.92
00011729 00000009 821.85 163.92 385.79 543.34 915.22 393.55 1094.61 390.79 1004.60 498.20 942.86 591.60 1083.32 589.03
00011730 00000010 826.56 165.54 386.67 542.41 921.56 394.47 1100.57 390.47 1009.66 495.57 947.71 589.56 1090.34 586.21
00011731 00000011 826.56 165.62 386.67 542.31 921.59 394.50 1100.58 390.50 1009.68 495.57 947.71 589.53 1090.34 586.19
00011732 00000012 830.57 165.95 384.26 538.41 924.56 393.08 1103.90 390.50 1012.01 492.28 947.61 584.49 1094.85 582.48
00011733 00000013 834.52 163.47 381.12 535.21 925.76 391.24 1106.16 387.33 1014.59 489.38 948.87 579.74 1098.72 576.63
00011734 00000014 836.21 162.20 379.96 533.39 927.36 388.60 1109.56 383.34 1018.66 486.74 950.94 576.63 1103.04 572.66
00011735 00000015 834.78 153.55 389.21 541.10 935.59 380.73 1117.39 382.47 1024.69 481.05 958.22 560.95 1108.07 562.89
00011736 00000016 834.76 153.50 389.26 541.05 935.59 380.74 1117.33 382.45 1024.64 481.05 958.22 560.97 1107.98 562.88
00011737 00000017 839.75 149.93 390.42 541.14 940.20 374.92 1119.97 375.84 1026.99 478.98 964.32 559.68 1110.07 560.99
00011738 00000018 851.63 149.88 384.31 539.00 945.72 367.87 1123.40 372.52 1035.72 478.12 969.96 565.83 1106.51 569.46
00011739 00000019 856.66 146.76 382.74 539.37 950.15 362.68 1126.78 365.40 1042.05 472.82 979.41 566.00 1110.99 567.90
00011740 00000020 858.75 137.08 386.38 551.08 953.87 355.60 1130.28 355.59 1046.81 463.29 987.66 566.03 1110.93 565.92
00011741 00000021 858.78 137.11 386.39 550.99 953.86 355.59 1130.37 355.55 1046.80 463.31 987.65 566.01 1110.98 565.89
00011742 00000022 860.60 128.96 390.18 555.84 957.84 348.74 1136.61 346.91 1052.50 455.02 991.56 560.51 1114.32 558.79
00011743 00000023 858.65 118.47 391.08 553.63 964.17 348.13 1139.58 351.52 1053.05 451.07 996.01 549.08 1122.95 552.22
00011744 00000024 863.16 117.47 387.69 548.40 966.34 346.74 1141.42 349.88 1055.06 449.96 996.73 545.09 1124.48 548.34
00011745 00000025 867.13 115.89 385.48 546.62 968.28 346.08 1143.44 348.46 1057.61 450.44 998.84 542.26 1129.10 544.86
00011746 00000026 867.50 115.66 385.46 546.89 968.31 345.94 1143.86 348.20 1057.44 450.00 998.71 542.26 1129.49 544.76
00011747 00000027 871.62 115.29 381.29 544.05 970.73 351.67 1143.70 354.47 1057.87 451.08 1001.06 540.24 1132.52 543.08
00011748 00000028 871.71 114.73 381.33 544.97 970.80 351.60 1143.17 354.01 1057.69 451.17 1001.59 540.85 1132.05 543.37
00011749 00000029 869.97 112.88 382.26 549.16 969.34 351.03 1141.59 354.26 1056.29 452.87 999.78 540.99 1130.89 544.06
00011750 00000030 866.42 113.27 384.34 552.57 965.11 352.43 1139.17 356.12 1052.14 454.69 995.55 543.19 1128.27 546.43
00011751 00000031 866.35 113.39 384.32 552.55 965.14 352.60 1139.18 356.22 1052.26 454.77 995.52 543.23 1128.33 546.41
00011752 00000032 860.83 112.29 387.41 557.65 961.43 354.93 1134.37 358.26 1049.32 458.63 994.47 547.51 1125.31 550.31
00011753 00000033 855.70 114.53 390.68 563.47 955.69 359.60 1129.55 361.19 1042.79 463.26 990.12 552.86 1122.97 553.93
00011754 00000034 853.87 123.69 390.21 571.07 950.02 368.15 1122.21 365.85 1033.63 468.47 983.52 559.80 1122.20 557.82
00011755 00000035 851.48 131.07 390.43 562.81 945.56 374.97 1117.53 371.03 1028.84 475.60 981.03 561.82 1120.64 558.54
00011756 00000036 851.62 131.12 390.27 562.69 945.55 374.94 1117.48 371.06 1028.70 475.55 981.01 561.68 1120.64 558.45
00011757 00000037 848.59 136.87 392.60 558.39 943.38 378.51 1113.66 373.27 1026.59 479.00 979.82 565.53 1116.81 561.66
00011758 00000038 846.97 136.15 393.91 560.44 941.14 378.54 1112.66 373.11 1024.75 479.61 978.10 566.01 1117.07 561.80
00011759 00000039 845.43 136.63 394.25 557.81 938.58 378.76 1111.39 372.38 1023.67 478.55 975.37 563.00 1118.80 557.72
00011760 00000040 845.57 136.52 394.20 557.87 938.49 378.67 1111.36 372.21 1023.38 478.49 975.27 563.14 1118.69 557.78
00011761 00000041 842.94 135.72 394.57 554.81 934.83 376.36 1109.18 369.08 1021.29 476.41 972.61 560.61 1116.75 554.43
00011762 00000042 839.42 133.69 396.53 552.93 930.32 373.90 1106.92 364.96 1018.16 473.98 969.89 560.07 1114.33 552.21
00011763 00000043 837.54 131.67 396.72 553.51 926.45 372.38 1103.91 362.53 1014.56 474.21 968.77 560.06 1112.77 551.48
00011764 00000044 835.18 127.40 397.38 558.66 923.29 372.08 1100.86 360.37 1011.74 471.95 966.10 559.82 1111.13 549.63
00011765 00000045 835.17 127.40 397.37 558.55 923.30 372.08 1100.85 360.38 1011.74 471.96 966.11 559.82 1111.09 549.63
00011766 00000046 832.67 127.83 398.98 560.77 920.97 371.27 1098.97 358.83 1009.86 469.30 963.45 559.45 1112.15 548.55
00011767 00000047 829.39 127.59 399.08 559.60 918.71 370.20 1097.85 357.69 1008.79 469.91 960.98 558.30 1111.47 547.37
00011768 00000048 828.04 128.15 399.86 564.58 917.89 370.10 1095.80 357.54 1008.38 470.17 959.59 559.04 1110.97 548.27
00011769 00000049 828.01 128.29 398.62 575.74 917.77 369.69 1092.52 356.57 1007.80 468.69 958.35 560.50 1110.79 549.54
00011770 00000050 827.95 127.81 398.59 576.06 917.73 369.75 1092.83 356.50 1008.02 469.04 958.11 560.53 1111.04 549.49
00011771 00000051 828.57 127.05 398.71 583.71 917.78 369.67 1090.69 354.81 1007.64 468.12 958.22 563.52 1110.62 551.20
00011772 00000052 828.40 127.16 399.06 582.21 917.55 369.50 1091.02 354.25 1007.78 468.36 957.79 562.75 1111.34 550.02
00011773 00000053 828.76 127.72 399.80 572.95 918.12 369.55 1093.41 355.81 1008.09 469.77 957.27 559.68 1111.33 548.07
00011774 00000054 828.84 129.24 400.68 560.64 918.54 370.33 1098.06 357.04 1008.93 471.48 958.33 557.61 1112.67 546.19
00011775 00000055 828.89 128.63 400.80 561.27 918.44 370.26 1097.81 356.95 1008.78 471.15 958.35 557.72 1112.44 546.28
00011776 00000056 830.46 130.37 400.09 552.30 919.58 371.11 1100.73 357.43 1009.70 471.03 959.99 557.61 1113.10 545.59
00011777 00000057 831.63 128.95 399.79 551.39 920.17 371.11 1102.11 357.93 1009.71 469.95 959.68 556.43 1113.46 544.68
00011778 00000058 831.73 128.51 400.14 550.95 920.57 370.30 1102.48 357.43 1009.77 468.85 960.08 556.54 1112.45 545.04
00011779 00000059 831.74 126.98 400.31 553.19 920.97 369.92 1102.41 357.80 1009.80 468.49 960.36 556.67 1111.77 545.81
00011780 00000060 831.71 127.00 400.06 553.18 920.79 369.80 1102.21 357.51 1009.71 468.36 960.32 556.72 1111.78 545.74
00011781 00000061 830.61 125.93 400.70 558.96 920.70 367.86 1100.66 356.38 1009.36 467.37 960.89 558.38 1109.26 548.34
00011782 00000062 831.21 125.41 399.49 556.97 922.46 364.89 1103.63 354.53 1011.88 466.43 960.85 555.92 1111.04 546.75
00011783 00000063 833.07 124.91 398.63 557.99 925.53 362.24 1106.32 352.11 1015.57 465.32 964.14 555.53 1113.95 546.59
00011784 00000064 836.97 122.49 398.05 570.93 930.20 360.13 1107.51 350.77 1019.60 464.34 969.36 557.18 1118.19 548.91
00011785 00000065 836.97 122.44 398.10 570.72 930.16 360.14 1107.52 350.77 1019.60 464.31 969.44 557.14 1118.22 548.86
00011786 00000066 841.23 121.74 396.75 576.98 935.38 359.79 1109.37 349.60 1023.46 463.95 974.66 559.08 1120.07 550.34
00011787 00000067 845.63 123.32 399.50 574.04 939.57 361.99 1115.41 350.84 1028.37 465.65 978.78 560.06 1124.93 550.62
00011788 00000068 854.88 125.21 398.76 562.60 945.81 364.90 1123.39 351.91 1036.10 465.15 988.33 557.54 1135.30 546.11
00011789 00000069 864.03 120.02 395.57 554.41 956.32 358.38 1136.33 348.24 1047.76 460.76 996.37 549.58 1144.04 540.54
00011790 00000070 864.06 119.98 395.53 554.45 956.31 358.37 1136.30 348.22 1047.76 460.73 996.33 549.58 1144.04 540.54
00011791 00000071 867.76 113.97 393.13 555.64 962.88 349.92 1142.85 345.00 1053.97 455.32 997.98 544.27 1143.35 539.97
00011792 00000072 867.48 111.00 392.63 558.47 962.56 348.55 1143.22 343.85 1054.55 455.84 997.87 544.97 1142.19 540.85
00011793 00000073 863.56 110.37 394.84 560.86 960.48 348.50 1140.54 343.14 1053.87 458.34 997.73 547.04 1139.66 542.42
00011794 00000074 858.42 111.52 396.75 560.63 959.65 345.98 1135.92 341.96 1052.51 457.06 999.42 550.16 1130.63 546.75
00011795 00000075 858.49 111.62 396.67 560.49 959.67 345.98 1135.87 341.96 1052.49 456.98 999.47 550.12 1130.63 546.71
00011796 00000076 855.85 113.18 397.01 557.14 957.83 346.54 1133.29 343.45 1051.18 458.32 997.81 550.05 1126.85 547.41
00011797 00000077 853.92 114.58 397.60 553.75 955.97 347.32 1131.25 343.20 1050.03 460.57 996.26 549.91 1125.96 546.42
00011798 00000078 852.16 113.59 398.28 555.08 954.72 346.76 1129.71 342.38 1048.97 458.17 994.63 548.78 1125.41 545.06
00011799 00000079 851.01 112.25 398.97 556.68 954.10 344.91 1128.83 341.63 1047.87 457.21 992.85 548.45 1122.47 545.67
00011800 00000080 850.90 112.10 399.30 556.83 954.11 344.78 1128.84 341.58 1047.76 457.09 992.79 548.35 1122.45 545.61
00011801 00000081 850.10 111.02 401.29 558.74 951.81 344.72 1127.95 341.33 1045.32 455.24 989.76 547.85 1122.26 544.91
00011802 00000082 849.44 112.56 402.48 557.06 949.88 347.63 1129.13 343.63 1044.06 454.94 986.57 545.62 1125.69 541.97
00011803 00000083 850.51 114.72 401.59 556.55 946.77 349.82 1130.39 344.72 1041.29 455.02 982.78 545.03 1132.19 540.11
00011804 00000084 850.05 113.85 400.74 564.52 946.10 348.97 1131.77 344.87 1041.26 454.29 980.22 544.58 1135.91 540.24
00011805 00000085 850.13 113.91 400.73 564.49 946.10 348.96 1131.82 344.90 1041.18 454.38 980.21 544.63 1135.86 540.32
00011806 00000086 849.53 110.48 401.43 572.05 946.90 344.50 1130.27 341.14 1040.98 449.91 980.96 545.58 1131.73 541.97
00011807 00000087 848.21 108.39 400.25 563.41 946.37 342.19 1128.77 338.42 1041.26 446.29 981.95 541.37 1126.94 537.90
00011808 00000088 845.49 105.72 398.60 566.50 942.42 339.56 1125.05 334.72 1036.79 444.99 977.84 539.52 1123.93 535.33
00011809 00000089 842.02 105.18 398.34 565.27 939.45 340.85 1122.42 336.46 1034.31 445.35 974.50 539.11 1120.07 535.56
00011810 00000090 842.05 105.05 398.18 565.46 939.54 340.74 1122.33 336.60 1034.09 445.26 974.35 538.99 1119.56 535.67
00011811 00000091 839.98 107.63 399.08 560.62 937.43 343.31 1121.33 339.87 1031.66 447.31 973.02 539.73 1118.90 536.83
00011812 00000092 839.27 107.56 398.12 560.42 936.14 343.39 1120.27 340.29 1029.96 448.66 972.01 541.02 1117.99 538.37
00011813 00000093 840.27 105.62 395.53 559.98 936.86 350.25 1120.45 349.00 1028.77 453.55 969.08 541.97 1114.57 540.55
00011814 00000094 838.66 106.25 395.63 558.79 936.55 352.40 1116.97 352.64 1025.34 450.98 966.97 542.26 1107.33 542.23
00011815 00000095 838.62 106.29 395.68 558.75 936.54 352.39 1116.96 352.62 1025.31 450.96 966.97 542.27 1107.31 542.22
00011816 00000096 834.64 107.28 396.05 558.48 930.72 345.56 1108.75 346.23 1017.11 451.13 962.17 543.67 1094.93 544.78
00011817 00000097 832.09 105.55 397.82 562.31 923.81 340.54 1104.63 339.26 1009.89 447.39 955.59 542.74 1089.23 542.34
00011818 00000098 829.59 105.82 399.53 565.73 917.48 338.03 1104.05 335.84 1003.56 441.82 946.71 541.32 1088.43 540.13
00011819 00000099 828.65 107.85 399.93 561.52 913.41 337.78 1099.48 335.26 995.33 438.87 941.14 540.70 1084.81 539.00
00011820 00000100 828.65 107.84 399.93 561.57 913.41 337.78 1099.49 335.25 995.36 438.87 941.18 540.70 1084.85 539.00
00011821 00000101 831.30 110.18 395.04 559.26 915.37 342.43 1095.78 337.16 985.59 436.92 940.78 548.39 1074.93 543.91
00011822 00000102 831.26 112.38 394.94 558.02 909.25 340.35 1094.41 339.72 984.49 443.89 934.18 544.26 1073.66 544.22
00011823 00000103 830.93 114.25 393.08 557.87 906.87 339.65 1088.00 340.28 979.52 447.33 932.57 546.67 1062.91 547.99
00011824 00000104 831.54 114.69 391.45 568.55 906.78 339.22 1084.74 340.65 975.84 447.66 931.08 549.03 1060.35 551.21
00011825 00000105 831.54 114.65 391.48 568.58 906.78 339.23 1084.72 340.65 975.83 447.65 931.09 549.03 1060.35 551.19
00011826 00000106 832.30 117.94 391.58 570.26 906.27 340.00 1084.39 342.47 972.14 448.10 926.27 547.93 1062.04 550.73
00011827 00000107 832.45 118.17 390.44 566.80 903.05 339.72 1084.42 343.98 967.66 448.19 919.25 545.20 1064.96 548.60
00011828 00000108 831.48 122.32 388.60 563.95 900.09 341.47 1083.19 345.98 964.63 449.39 913.94 545.05 1065.22 548.35
00011829 00000109 820.93 126.63 390.32 559.72 892.15 351.34 1078.90 349.26 962.11 450.30 909.96 552.18 1065.52 550.42
00011830 00000110 820.86 126.61 390.32 559.67 892.14 351.39 1078.90 349.30 962.10 450.35 909.88 552.13 1065.50 550.38
00011831 00000111 820.17 129.05 388.13 554.70 889.23 353.60 1075.44 352.96 957.06 451.64 904.72 551.20 1062.59 550.44
00011832 00000112 818.60 129.72 388.34 551.31 886.67 354.07 1070.76 354.46 952.55 452.80 901.16 548.52 1058.67 548.39
00011833 00000113 817.28 129.79 388.81 552.26 883.82 354.88 1067.78 355.98 948.76 454.94 896.26 547.11 1056.70 547.61
00011834 00000114 816.88 131.38 388.93 557.44 883.18 356.62 1066.55 356.99 947.05 454.98 895.30 549.99 1055.86 550.17
00011835 00000115 816.76 131.04 388.98 557.91 883.24 356.67 1066.44 357.03 947.16 454.89 895.33 549.99 1055.77 550.18
00011836 00000116 816.81 132.06 388.14 558.88 883.74 357.80 1067.01 357.24 948.31 455.65 895.98 551.86 1056.35 551.38
00011837 00000117 817.70 132.93 387.13 552.10 884.68 358.34 1070.28 357.22 952.81 456.44 900.17 553.86 1059.81 552.80
00011838 00000118 820.72 131.62 383.75 551.46 889.59 364.77 1075.59 362.64 962.36 459.92 906.86 556.52 1068.36 554.35
00011839 00000119 821.07 133.30 388.08 551.12 893.98 365.18 1079.87 361.67 971.60 462.57 915.31 560.43 1070.41 557.07
00011840 00000120 821.12 133.22 387.99 551.13 893.98 365.15 1079.91 361.65 971.59 462.56 915.26 560.41 1070.38 557.07
00011841 00000121 825.16 131.87 391.19 556.04 908.21 360.48 1087.82 360.41 983.53 461.03 929.79 560.99 1066.91 560.99
00011842 00000122 823.50 129.56 393.31 559.88 910.89 353.23 1092.06 356.13 990.98 463.85 935.60 561.16 1071.91 564.52
00011843 00000123 824.55 128.18 396.21 568.35 915.98 353.12 1096.29 354.55 999.57 462.78 941.79 564.50 1075.99 567.13
00011844 00000124 825.67 127.33 398.15 573.43 919.14 354.54 1098.74 354.21 1005.69 460.26 947.34 564.34 1086.55 565.34
00011845 00000125 825.64 126.92 398.41 573.88 919.15 354.64 1098.70 354.22 1005.64 460.21 947.36 564.39 1086.54 565.33
00011846 00000126 825.79 128.08 399.38 571.42 920.23 354.55 1101.77 353.27 1009.42 462.28 949.93 564.16 1092.80 564.07
00011847 00000127 825.49 127.68 399.06 571.59 920.86 355.31 1103.21 353.20 1011.63 463.04 951.91 564.47 1095.76 563.58
00011848 00000128 826.01 128.04 400.07 569.87 922.53 355.83 1104.26 353.40 1013.30 463.37 954.37 563.24 1098.06 561.94
00011849 00000129 826.94 128.31 400.52 569.44 923.77 357.42 1105.60 354.66 1014.46 465.35 955.77 563.28 1100.74 561.58
00011850 00000130 826.93 128.30 400.34 569.45 923.85 357.46 1105.73 354.80 1014.62 465.37 955.68 563.25 1100.70 561.64
00011851 00000131 827.73 128.95 401.29 568.37 925.20 358.62 1107.15 355.17 1016.75 466.32 958.44 563.41 1103.79 561.06
00011852 00000132 827.98 130.43 401.19 566.66 924.88 358.32 1107.31 353.77 1016.84 465.72 959.17 563.34 1104.62 560.12
00011853 00000133 827.91 131.28 401.54 565.10 925.23 358.14 1107.97 353.43 1017.29 466.41 959.18 562.93 1105.00 559.58
00011854 00000134 827.38 132.46 401.82 563.96 924.93 358.58 1107.99 353.44 1017.31 466.75 959.18 563.16 1105.41 559.46
00011855 00000135 827.27 132.60 401.71 564.20 924.82 358.93 1107.51 353.58 1017.16 466.65 959.04 563.52 1104.94 559.72
00011856 00000136 827.36 132.74 401.45 564.59 924.64 358.90 1107.83 353.52 1017.44 467.51 958.57 563.43 1105.80 559.63
00011857 00000137 827.41 133.42 401.42 564.71 924.30 360.08 1107.98 353.89 1017.80 468.74 959.11 564.37 1107.26 559.86
00011858 00000138 827.91 134.29 401.75 566.27 924.68 362.74 1108.12 355.59 1018.86 472.85 959.38 566.25 1108.87 561.10
00011859 00000139 827.83 136.17 402.40 572.93 925.35 368.34 1106.30 359.76 1020.40 475.98 961.01 570.92 1109.81 564.86
00011860 00000140 827.90 136.20 402.31 572.93 925.40 368.24 1106.23 359.66 1020.37 475.81 961.04 570.83 1109.71 564.77
00011861 00000141 829.92 135.39 400.78 575.20 928.70 377.67 1109.59 369.85 1025.20 479.70 963.99 573.87 1112.54 568.37
00011862 00000142 829.78 135.23 402.48 573.61 931.26 378.12 1113.27 369.62 1028.50 481.96 966.73 574.42 1114.16 568.44
00011863 00000143 829.81 135.17 404.41 577.78 931.98 376.35 1113.17 365.45 1032.23 481.22 971.10 577.99 1116.07 570.23
00011864 00000144 831.14 133.11 403.66 579.11 934.70 373.57 1116.99 363.25 1036.65 480.56 975.66 580.06 1117.37 572.96
00011865 00000145 831.39 133.55 403.45 578.68 934.72 373.27 1116.92 362.87 1036.64 480.42 975.74 579.99 1117.21 572.81
00011866 00000146 832.75 133.68 402.67 575.10 936.16 371.50 1119.19 360.80 1039.52 480.03 978.04 578.52 1120.12 571.02
00011867 00000147 833.99 135.13 403.96 571.65 937.74 373.14 1119.33 360.78 1039.19 477.92 980.47 576.20 1123.43 567.01
00011868 00000148 833.51 137.77 404.40 570.77 936.20 374.25 1117.97 362.23 1036.90 479.24 976.50 576.22 1121.87 567.34
00011869 00000149 832.26 143.20 405.16 566.75 935.00 379.18 1117.26 364.64 1037.31 485.99 975.23 578.23 1123.72 567.42
00011870 00000150 832.25 143.05 405.19 566.92 935.08 379.13 1117.11 364.59 1037.29 485.75 975.38 578.16 1123.64 567.36
00011871 00000151 831.50 144.35 406.32 570.17 934.04 382.25 1117.61 367.09 1036.93 490.45 972.80 579.59 1125.18 568.09
00011872 00000152 838.55 154.25 398.87 571.50 935.18 379.87 1119.00 367.19 1041.67 485.94 975.87 591.41 1118.46 580.86
00011873 00000153 838.85 152.61 399.67 580.87 935.08 375.95 1120.25 361.02 1044.29 480.89 977.33 591.52 1126.70 578.98
00011874 00000154 840.53 147.05 399.02 573.29 938.00 372.99 1122.21 361.04 1044.90 478.79 977.49 584.42 1123.48 574.45
00011875 00000155 840.50 147.11 399.02 573.26 937.98 372.99 1122.21 361.03 1044.89 478.81 977.46 584.42 1123.46 574.44
00011876 00000156 834.84 136.90 404.07 571.97 937.50 372.04 1120.65 358.99 1039.78 478.36 979.57 574.72 1127.67 564.75
00011877 00000157 840.84 143.28 399.64 567.92 936.91 369.27 1122.00 360.30 1041.81 477.55 977.70 583.41 1115.23 575.96
00011878 00000158 841.29 142.90 399.49 569.26 936.30 367.99 1122.69 359.73 1041.06 476.34 977.10 583.68 1113.82 576.93
00011879 00000159 841.49 140.59 400.25 574.41 936.80 366.11 1122.46 357.94 1040.42 472.80 978.58 582.61 1114.05 575.78
00011880 00000160 841.48 141.18 400.39 573.81 936.77 366.20 1122.45 358.00 1040.29 472.78 978.47 582.63 1114.09 575.76
00011881 00000161 840.18 139.97 400.33 577.43 937.34 360.44 1123.35 351.28 1040.39 461.64 975.19 578.02 1117.06 570.12
00011882 00000162 839.70 137.06 402.34 575.42 937.09 356.51 1123.50 350.03 1037.08 458.01 969.37 567.98 1119.83 562.12
00011883 00000163 839.75 131.69 402.97 572.67 935.88 353.73 1123.77 346.18 1034.96 451.71 967.32 561.32 1121.33 554.47
00011884 00000164 837.69 119.11 405.80 576.59 934.45 349.36 1123.65 344.45 1029.34 449.68 967.28 551.20 1128.61 546.80
00011885 00000165 837.67 119.17 405.79 576.61 934.57 349.32 1123.78 344.44 1029.54 449.60 967.30 551.17 1128.62 546.82
00011886 00000166 837.59 119.14 406.92 569.90 933.88 349.09 1124.32 343.56 1029.80 447.82 967.20 546.34 1130.77 541.09
