Video ID: 	hdD5WiUSGjM
H: 	1080
W: 	1920
FPS: 	23.976023976023978

FRAME INDEX X0 Y0 W H [Landmarks (5 Points)]

00000252 00000000 1207.07 364.08 378.49 501.83 1300.75 548.07 1462.75 570.03 1368.60 684.16 1298.45 721.99 1440.89 740.40
00000253 00000001 1204.74 358.79 380.89 511.29 1301.20 546.79 1459.02 564.53 1370.35 679.00 1306.99 722.09 1443.66 736.09
00000254 DELETE   1210.24 344.05 376.40 512.54 1309.53 538.01 1467.79 556.84 1375.01 663.55 1311.72 713.64 1450.64 730.45
00000255 DELETE   1211.61 332.64 374.25 508.22 1308.52 533.64 1470.04 546.03 1379.64 657.31 1311.62 709.96 1452.12 721.14
00000256 00000004 1215.09 324.93 372.53 510.76 1309.05 525.59 1470.96 535.85 1381.07 646.50 1312.97 703.27 1451.44 712.74
00000257 00000005 1219.69 319.95 370.30 515.84 1311.03 518.87 1470.89 529.18 1382.55 638.99 1318.94 697.20 1451.64 706.70
00000258 00000006 1222.50 316.61 368.76 517.05 1311.86 515.63 1471.32 525.45 1382.82 633.75 1322.26 696.03 1449.94 704.99
00000259 00000007 1223.69 315.49 368.75 520.60 1313.30 515.31 1471.70 524.82 1384.12 631.99 1324.13 696.00 1451.18 704.74
00000260 00000008 1224.15 316.18 369.62 520.03 1314.02 515.79 1473.10 524.68 1385.34 630.33 1324.28 694.83 1454.36 703.06
00000261 00000009 1222.44 315.40 370.89 519.04 1313.13 513.18 1472.37 523.05 1383.77 628.12 1321.50 688.74 1454.52 697.54
00000262 00000010 1214.27 311.76 374.70 514.82 1309.69 512.16 1470.62 524.85 1378.84 628.46 1313.95 680.62 1455.74 692.66
00000263 00000011 1214.91 310.48 371.19 512.19 1302.66 501.47 1464.41 513.73 1372.70 623.29 1309.41 674.31 1456.25 681.97
00000264 00000012 1208.71 303.81 373.63 515.60 1298.92 494.70 1458.08 507.39 1367.52 616.26 1309.23 668.66 1450.54 676.51
00000265 00000013 1202.66 289.49 376.10 527.73 1296.50 488.26 1449.82 497.06 1367.05 602.01 1313.94 665.97 1444.21 671.10
00000266 DELETE   1195.11 277.19 375.05 533.90 1292.60 480.64 1443.67 488.01 1361.64 585.36 1314.47 664.79 1435.36 669.36
00000267 DELETE   1186.05 266.82 379.20 527.18 1283.09 475.19 1439.02 473.70 1357.10 576.64 1303.41 657.42 1430.86 658.02
00000268 00000016 1181.63 257.59 376.00 523.27 1274.43 470.82 1430.55 468.56 1349.20 567.80 1292.65 648.64 1423.15 648.24
00000269 00000017 1178.69 253.99 373.01 519.67 1266.67 464.15 1422.57 461.24 1341.62 559.01 1284.94 640.08 1419.07 638.63
00000270 00000018 1178.59 252.26 369.58 520.57 1265.04 460.77 1416.03 455.77 1338.46 550.03 1284.81 635.74 1415.52 632.81
00000271 00000019 1176.48 250.74 367.39 516.39 1262.01 458.92 1415.25 453.40 1338.96 548.13 1283.21 633.58 1416.06 630.22
00000272 00000020 1175.23 249.74 366.54 514.67 1258.60 459.76 1413.69 454.36 1335.79 548.74 1277.77 630.91 1417.99 627.66
00000273 00000021 1174.65 250.93 367.01 512.59 1258.74 459.09 1412.52 454.68 1334.83 549.08 1276.99 629.18 1414.23 626.67
00000274 00000022 1174.11 250.95 366.91 512.84 1257.30 457.69 1410.03 453.08 1331.97 548.19 1276.49 629.82 1407.92 627.38
00000275 00000023 1174.22 248.35 366.89 513.59 1257.38 455.17 1409.12 450.30 1331.92 546.20 1276.71 628.00 1406.18 625.40
00000276 00000024 1173.70 243.98 367.54 514.67 1257.07 450.15 1410.18 444.93 1333.00 542.90 1277.09 625.00 1406.06 622.04
00000277 00000025 1174.08 241.55 368.43 516.10 1256.84 446.92 1410.68 440.72 1333.37 538.42 1278.43 623.07 1406.34 619.42
00000278 00000026 1174.49 238.22 369.70 522.30 1257.67 444.75 1412.78 437.55 1335.06 536.53 1280.42 624.50 1407.12 619.84
00000279 00000027 1176.27 236.18 370.14 528.82 1260.11 443.81 1415.76 435.71 1337.08 536.45 1285.42 629.34 1407.95 623.79
00000280 00000028 1176.25 235.83 371.63 531.67 1260.26 446.34 1416.57 437.29 1338.48 537.37 1285.37 630.33 1412.38 623.95
00000281 00000029 1175.44 237.35 372.67 531.26 1260.09 449.91 1416.65 439.28 1340.12 538.92 1285.24 630.56 1418.70 622.89
00000282 00000030 1175.37 238.97 372.24 530.62 1260.18 451.93 1416.43 440.44 1340.71 539.87 1285.71 631.42 1421.39 623.07
00000283 00000031 1176.00 239.71 371.84 532.92 1262.46 450.92 1416.68 438.52 1341.98 538.48 1288.74 632.13 1420.74 622.88
00000284 00000032 1176.16 238.80 371.74 535.03 1262.97 450.21 1416.78 436.09 1342.75 535.02 1289.13 629.40 1424.16 618.80
00000285 00000033 1175.88 239.81 371.58 533.92 1262.35 449.59 1416.08 434.94 1341.45 532.12 1287.80 626.22 1425.18 615.33
00000286 00000034 1178.11 237.28 369.99 530.11 1263.76 444.54 1418.15 430.59 1343.08 526.80 1288.99 620.33 1427.02 609.67
00000287 00000035 1177.80 237.74 369.43 526.67 1262.97 448.78 1418.15 435.32 1343.22 529.48 1287.18 620.99 1428.23 610.69
00000288 00000036 1179.92 239.89 368.28 519.02 1265.24 450.34 1420.77 437.76 1346.83 532.47 1289.49 620.00 1431.07 610.62
00000289 00000037 1181.07 242.14 369.38 518.91 1268.20 452.49 1422.18 442.57 1349.76 535.83 1291.81 622.58 1430.67 615.18
00000290 00000038 1184.37 242.11 371.30 520.97 1272.26 452.90 1427.60 443.70 1355.39 537.63 1296.78 623.97 1437.04 616.93
00000291 00000039 1185.30 242.65 371.24 520.08 1273.30 453.42 1428.54 444.13 1356.28 537.03 1298.41 624.65 1437.56 617.49
00000292 00000040 1185.45 239.91 370.80 525.02 1273.09 449.89 1429.16 441.24 1354.85 533.29 1296.11 623.53 1436.37 616.86
00000293 00000041 1186.42 236.15 371.63 541.76 1275.07 444.31 1430.72 436.20 1354.05 529.16 1296.67 625.51 1436.72 619.30
00000294 00000042 1188.00 230.83 369.25 545.74 1272.54 434.22 1431.65 426.43 1347.09 519.49 1290.09 620.47 1429.20 614.94
00000295 DELETE   1186.24 222.69 370.76 535.19 1267.95 424.23 1429.79 418.72 1340.09 512.59 1283.22 606.38 1420.74 602.71
00000296 DELETE   1183.53 199.19 375.35 538.19 1268.28 410.28 1432.38 411.20 1332.00 499.87 1277.08 588.19 1421.62 590.93
00000297 00000045 1179.78 190.13 377.27 537.44 1260.83 400.50 1422.01 400.10 1320.99 488.15 1266.41 575.80 1415.15 577.32
00000298 00000046 1180.51 182.13 375.55 541.98 1259.50 394.46 1420.48 395.55 1317.58 483.71 1261.35 570.89 1412.51 573.64
00000299 00000047 1179.44 185.78 376.76 536.41 1260.35 394.26 1420.00 396.72 1318.00 485.79 1261.87 570.38 1410.06 574.30
00000300 00000048 1183.10 184.13 375.69 531.33 1261.62 394.97 1423.48 401.23 1317.83 487.48 1260.94 570.23 1408.48 577.30
00000301 00000049 1184.37 186.39 375.63 531.53 1262.71 397.64 1426.16 404.39 1319.85 489.70 1263.48 575.14 1408.66 582.53
00000302 00000050 1184.39 187.38 376.58 543.44 1267.74 397.53 1430.94 403.96 1325.40 492.25 1269.65 581.22 1412.43 588.47
00000303 00000051 1186.92 188.27 375.64 555.38 1272.20 399.59 1437.21 406.18 1331.46 493.86 1273.67 586.81 1418.23 593.90
00000304 00000052 1186.90 189.16 375.90 552.43 1272.90 399.64 1437.05 406.41 1331.59 495.04 1274.54 585.68 1418.93 592.88
00000305 00000053 1184.45 189.52 377.67 547.89 1270.86 398.36 1434.90 405.65 1330.10 494.06 1272.38 582.74 1417.45 590.35
00000306 00000054 1181.58 189.62 379.48 547.06 1268.40 397.94 1431.91 405.04 1326.70 494.00 1270.17 581.82 1414.49 589.39
00000307 00000055 1180.88 191.38 379.06 544.72 1265.95 399.09 1429.77 405.54 1323.97 495.57 1268.59 582.89 1411.99 590.01
00000308 00000056 1180.43 191.93 379.44 540.45 1263.83 402.54 1428.62 408.19 1323.30 498.57 1267.01 585.30 1408.37 592.08
00000309 00000057 1179.09 193.84 380.86 532.75 1260.98 407.35 1427.37 414.35 1320.13 503.00 1263.49 585.67 1404.88 593.50
00000310 00000058 1179.96 200.53 379.10 526.63 1262.44 412.26 1428.69 420.35 1321.21 509.20 1264.21 589.52 1403.38 598.72
00000311 00000059 1181.72 209.21 375.72 525.01 1264.94 415.84 1431.92 425.99 1325.54 517.33 1265.50 596.26 1402.03 607.49
00000312 00000060 1183.94 214.36 370.47 538.95 1273.51 418.89 1430.62 431.89 1335.53 517.11 1276.73 608.52 1402.49 620.34
00000313 00000061 1183.94 215.16 371.18 542.89 1274.19 418.26 1431.83 428.19 1335.77 513.39 1279.75 611.22 1404.58 620.29
00000314 00000062 1183.41 210.24 372.86 538.42 1274.92 413.22 1429.83 422.99 1334.71 509.30 1282.03 604.62 1403.81 613.20
00000315 00000063 1181.80 205.36 376.76 523.19 1268.63 411.84 1433.37 419.25 1334.06 513.28 1274.48 595.49 1406.03 604.14
00000316 00000064 1181.77 206.80 374.84 522.62 1268.21 412.09 1434.14 421.96 1333.28 515.53 1270.76 593.62 1406.98 604.08
00000317 00000065 1182.31 214.27 376.74 534.10 1263.07 415.69 1434.34 421.19 1332.68 516.35 1270.18 604.98 1404.72 610.21
00000318 00000066 1182.80 218.18 377.98 538.97 1263.65 418.39 1436.05 422.57 1336.89 519.27 1274.29 609.62 1409.54 613.43
00000319 00000067 1184.95 220.36 376.73 540.76 1264.84 421.11 1436.04 425.52 1338.37 519.19 1274.33 607.72 1415.57 611.73
00000320 00000068 1190.01 219.23 372.72 544.83 1268.46 422.73 1438.73 425.52 1343.55 519.31 1277.56 607.95 1421.52 610.65
00000321 00000069 1190.02 216.51 374.88 545.57 1272.13 419.61 1442.12 423.60 1346.76 520.11 1281.41 606.68 1424.00 610.61
00000322 00000070 1191.99 214.60 372.22 535.96 1271.65 417.31 1442.43 423.05 1342.34 517.88 1283.40 604.81 1423.41 609.84
00000323 00000071 1191.76 209.09 370.62 539.86 1282.35 412.64 1438.30 425.12 1343.29 515.22 1288.59 597.07 1422.58 606.24
00000324 00000072 1188.57 203.57 371.99 541.41 1281.39 406.06 1436.75 419.11 1341.74 507.53 1285.64 592.01 1419.40 601.97
00000325 00000073 1190.11 189.72 377.98 547.50 1282.56 396.33 1446.74 412.97 1350.09 500.08 1286.33 581.53 1425.98 596.39
00000326 00000074 1188.06 189.03 378.30 542.06 1280.59 398.65 1442.04 404.98 1345.84 493.85 1285.88 578.49 1427.94 585.31
00000327 00000075 1189.23 187.33 378.61 538.40 1280.91 398.12 1442.61 402.69 1347.67 492.39 1287.50 576.64 1430.40 581.97
00000328 00000076 1190.55 184.37 375.23 543.01 1283.16 392.82 1441.58 404.05 1348.38 494.75 1291.11 580.45 1426.65 589.40
00000329 00000077 1188.87 186.46 375.34 546.57 1282.13 395.37 1440.66 407.08 1347.16 498.00 1289.52 584.79 1425.38 594.06
00000330 00000078 1192.32 190.89 377.95 553.56 1283.62 400.16 1449.65 413.95 1352.19 504.31 1290.14 589.25 1432.51 601.56
00000331 00000079 1190.86 202.33 372.48 554.85 1284.25 406.94 1441.26 416.17 1344.80 507.51 1290.23 598.58 1428.13 604.90
00000332 00000080 1191.09 203.87 372.41 549.91 1283.53 408.73 1441.40 418.43 1345.82 509.81 1290.01 600.83 1425.37 607.98
00000333 00000081 1191.36 203.41 369.93 533.23 1280.02 407.25 1441.02 420.46 1345.17 508.71 1282.72 595.58 1418.80 606.81
00000334 00000082 1190.39 202.15 368.99 527.14 1278.46 407.28 1439.62 420.43 1344.53 507.08 1281.48 594.38 1413.51 606.37
00000335 00000083 1189.68 203.60 367.50 524.44 1276.97 409.15 1438.27 421.56 1343.29 507.34 1279.91 595.61 1411.16 607.12
00000336 00000084 1189.95 206.61 365.64 523.89 1278.04 410.72 1437.64 423.08 1344.34 509.84 1280.76 595.14 1412.59 606.23
00000337 00000085 1191.18 211.01 366.18 527.34 1280.15 412.93 1438.55 425.29 1345.43 511.35 1283.59 597.76 1414.70 608.24
00000338 00000086 1194.05 213.10 367.64 530.14 1285.16 417.74 1441.13 426.72 1348.38 512.93 1295.03 604.34 1416.68 611.88
00000339 00000087 1196.45 216.04 366.02 532.84 1287.33 419.28 1442.50 429.99 1349.14 516.46 1296.47 606.62 1418.56 615.43
00000340 00000088 1197.98 217.82 363.32 537.15 1288.08 419.91 1442.28 430.80 1347.97 517.01 1295.99 607.71 1420.22 616.37
00000341 00000089 1199.00 217.19 362.60 534.05 1288.03 420.27 1441.47 431.38 1347.40 516.91 1295.55 606.15 1419.36 615.06
00000342 00000090 1198.74 217.59 362.14 523.02 1287.51 418.65 1438.86 429.35 1346.64 513.45 1294.84 600.09 1415.55 608.89
00000343 00000091 1197.32 211.66 361.23 513.78 1284.17 411.70 1436.22 423.87 1343.72 509.57 1290.59 593.79 1409.66 604.53
00000344 00000092 1193.56 208.81 361.61 511.60 1278.32 406.19 1433.39 418.81 1338.74 503.90 1280.92 589.67 1405.58 601.12
00000345 00000093 1184.40 201.77 372.93 516.27 1272.63 404.56 1432.63 411.58 1335.46 503.73 1277.48 582.29 1410.90 590.73
00000346 00000094 1180.84 196.51 373.05 522.46 1268.89 401.93 1428.59 408.16 1331.47 500.92 1273.39 580.75 1408.49 588.43
00000347 00000095 1179.58 194.16 371.91 523.94 1265.76 399.80 1424.38 405.98 1327.74 496.84 1269.84 576.80 1406.71 584.26
00000348 00000096 1177.89 195.42 370.01 519.74 1262.56 398.40 1419.75 404.40 1324.18 495.52 1266.78 572.76 1405.56 579.85
00000349 00000097 1176.39 192.21 370.84 526.40 1262.07 396.37 1415.94 399.93 1323.21 492.80 1268.03 573.05 1403.31 578.16
00000350 00000098 1177.76 186.60 369.50 535.79 1262.29 392.68 1416.60 394.87 1323.19 490.39 1268.37 574.78 1403.43 578.79
00000351 00000099 1176.88 182.52 368.37 535.64 1259.50 389.12 1414.68 391.50 1321.77 484.73 1266.84 572.14 1401.29 576.35
00000352 00000100 1176.73 180.07 366.18 533.38 1258.22 386.12 1411.65 390.65 1319.19 477.22 1263.40 566.20 1396.81 572.33
00000353 00000101 1174.64 180.61 365.34 527.48 1255.70 384.49 1409.88 390.06 1317.32 476.33 1260.25 563.69 1391.84 570.84
00000354 00000102 1170.51 180.98 367.26 526.66 1252.79 385.30 1407.86 392.10 1315.79 477.52 1256.30 562.39 1391.51 570.37
00000355 00000103 1169.35 180.41 368.52 528.85 1252.87 386.24 1407.38 393.72 1316.25 480.03 1256.42 564.09 1390.64 572.52
00000356 00000104 1169.05 179.73 370.19 532.03 1254.03 388.59 1408.83 394.94 1318.66 484.51 1259.36 568.06 1391.90 575.41
00000357 00000105 1169.11 180.75 370.27 530.11 1253.62 390.47 1411.73 396.97 1319.53 487.29 1257.26 569.27 1396.79 576.65
00000358 00000106 1171.60 183.22 369.83 528.17 1255.52 392.19 1414.45 397.36 1322.17 490.54 1260.84 571.91 1399.58 578.29
00000359 00000107 1173.41 185.58 372.37 530.66 1260.71 392.45 1418.44 396.07 1328.07 490.50 1268.29 572.86 1405.64 577.79
00000360 00000108 1175.48 186.70 374.16 533.24 1265.70 393.94 1423.51 397.65 1333.11 490.40 1273.50 574.81 1411.12 579.73
00000361 00000109 1178.54 187.74 374.01 533.29 1269.81 394.05 1429.03 397.64 1336.86 490.16 1276.11 574.61 1415.70 579.47
00000362 00000110 1181.39 188.43 374.05 529.95 1273.55 394.66 1432.30 398.32 1341.39 491.05 1280.47 574.46 1418.29 579.40
00000363 00000111 1184.24 189.56 375.55 524.87 1276.23 395.07 1435.50 398.91 1344.65 490.67 1283.08 572.57 1421.35 577.65
00000364 00000112 1183.74 189.51 376.09 520.57 1275.40 396.22 1434.77 400.53 1343.75 491.34 1282.42 571.51 1420.36 576.92
00000365 00000113 1183.31 189.73 376.00 518.30 1273.85 397.52 1435.04 402.18 1342.43 492.02 1280.80 571.29 1421.39 576.98
00000366 00000114 1182.56 191.92 375.51 518.99 1273.23 397.74 1433.25 402.37 1341.33 492.04 1279.81 571.16 1420.35 576.78
00000367 00000115 1182.69 191.40 374.01 525.72 1274.85 395.01 1432.95 399.38 1342.46 491.04 1281.60 573.95 1418.27 579.54
00000368 00000116 1186.17 184.39 372.26 532.94 1277.47 389.68 1434.56 392.66 1345.17 485.29 1285.23 572.22 1421.46 576.43
00000369 00000117 1186.30 178.97 370.95 525.31 1274.16 384.93 1429.69 388.12 1340.85 474.26 1282.27 562.21 1417.10 566.29
00000370 00000118 1184.23 175.16 368.81 520.09 1266.10 379.78 1426.34 382.71 1333.45 464.82 1272.53 555.59 1413.67 559.54
CROP_BBOX: 878 0 1863 1010
