Video ID: 	zTxRd0HFGnE
H: 	1080
W: 	1920
FPS: 	29.97002997002997

FRAME INDEX X0 Y0 W H [Landmarks (5 Points)]

00004534 00000000 787.81 162.42 424.24 606.67 921.29 380.91 1120.48 380.10 1046.36 481.57 936.32 586.54 1126.69 585.05
00004535 00000001 785.31 158.90 424.85 605.95 917.34 379.56 1116.83 377.32 1042.25 479.31 934.53 584.70 1123.76 581.71
00004536 00000002 784.41 156.53 424.78 605.11 914.77 378.09 1115.54 375.39 1038.87 477.43 931.75 582.69 1122.46 579.22
00004537 00000003 784.25 157.49 425.90 602.84 913.87 378.68 1114.51 374.58 1037.85 477.30 931.78 582.31 1122.87 577.67
00004538 00000004 787.31 157.84 424.98 602.09 915.40 380.04 1114.50 374.34 1038.21 477.61 933.18 581.97 1124.85 576.19
00004539 00000005 792.14 160.00 421.67 598.16 920.48 379.48 1117.24 375.02 1041.36 478.82 935.45 580.35 1125.96 575.82
00004540 00000006 794.08 162.35 422.13 594.59 922.19 380.67 1120.19 375.05 1045.03 480.09 938.34 580.63 1129.92 575.11
00004541 00000007 795.82 164.82 422.19 593.02 924.38 382.61 1123.64 376.28 1049.00 481.98 939.66 580.61 1134.48 574.67
00004542 00000008 797.89 166.20 423.25 593.84 928.54 382.77 1127.74 377.56 1054.65 482.15 943.96 581.12 1137.68 576.22
00004543 00000009 800.45 166.77 423.76 596.80 930.57 384.45 1130.28 377.17 1057.01 484.87 945.87 583.54 1140.33 577.04
00004544 DELETE   806.51 163.91 422.45 600.32 932.07 382.75 1134.75 382.25 1053.79 481.40 950.25 584.75 1145.08 582.64
00004545 DELETE   807.84 165.50 424.65 603.66 934.13 385.05 1135.42 382.74 1056.47 484.26 954.12 587.36 1149.43 583.65
00004546 00000012 810.94 167.30 425.27 604.80 937.45 385.22 1139.68 382.87 1061.34 485.85 957.40 588.22 1154.69 584.51
00004547 DELETE   817.33 168.30 422.83 605.75 942.37 385.10 1144.59 383.59 1067.95 486.94 961.27 590.01 1158.03 587.07
00004548 00000014 821.69 168.12 422.77 612.15 945.73 385.76 1150.57 384.56 1073.79 489.73 964.14 593.37 1164.38 590.76
00004549 00000015 825.05 163.53 424.07 624.74 949.59 386.96 1155.89 385.60 1078.53 493.27 967.46 599.88 1168.21 597.04
00004550 00000016 833.52 177.27 423.02 620.17 959.26 394.75 1167.87 387.15 1087.26 500.57 976.16 600.33 1173.69 591.33
00004551 00000017 835.36 175.00 425.34 622.96 963.34 395.31 1172.35 387.64 1090.54 505.56 981.24 601.26 1176.87 592.08
00004552 00000018 832.48 159.66 432.18 630.83 964.41 390.95 1174.88 389.12 1096.86 499.83 979.34 603.55 1184.59 600.63
00004553 DELETE   832.01 159.84 436.83 626.36 967.35 392.38 1177.43 389.11 1100.57 500.13 982.75 601.06 1187.33 597.15
00004554 00000020 834.29 160.64 438.30 627.09 970.08 392.14 1179.19 388.58 1102.12 500.56 984.42 600.17 1190.47 595.92
00004555 00000021 837.81 157.87 437.62 634.94 973.48 391.64 1181.17 387.91 1104.63 500.08 987.42 601.29 1194.39 596.59
00004556 00000022 838.96 160.11 439.60 636.38 975.89 391.64 1186.89 387.74 1108.59 500.71 990.06 603.55 1199.01 598.79
00004557 00000023 845.69 169.93 437.17 625.93 981.47 395.58 1191.38 383.82 1113.37 508.31 997.33 603.08 1198.33 591.21
00004558 00000024 851.25 170.13 437.50 626.41 985.32 396.09 1195.16 383.51 1118.08 508.21 1000.34 603.35 1204.23 590.80
00004559 00000025 854.14 169.51 440.48 628.79 988.37 395.75 1198.64 383.71 1120.72 508.16 1002.46 603.09 1208.93 590.89
00004560 DELETE   857.74 166.00 438.99 630.58 990.75 394.96 1201.66 382.97 1122.85 506.99 1005.06 602.44 1213.18 590.41
00004561 00000027 860.35 164.71 440.17 630.21 993.33 394.55 1204.60 383.36 1124.22 506.93 1006.59 601.91 1215.79 590.77
00004562 00000028 861.32 166.00 443.78 629.98 995.02 395.19 1206.48 384.16 1125.13 507.08 1007.59 602.07 1217.37 591.24
00004563 00000029 866.88 159.78 438.93 626.37 1000.47 391.31 1212.04 389.28 1126.93 501.64 1013.49 601.28 1222.95 598.22
00004564 00000030 867.74 161.31 441.73 625.11 1002.51 392.23 1213.92 389.32 1130.39 502.02 1015.90 601.17 1225.00 597.79
00004565 00000031 869.85 160.85 439.80 626.86 1004.50 391.37 1216.14 389.00 1133.05 502.69 1017.58 601.81 1226.66 598.93
00004566 00000032 873.02 157.20 437.83 632.64 1007.96 389.50 1220.94 388.40 1138.32 501.26 1019.95 601.19 1230.45 599.53
00004567 00000033 874.74 156.22 438.34 635.14 1011.81 394.33 1222.68 391.16 1143.37 499.85 1022.48 600.59 1233.59 598.05
00004568 DELETE   877.33 154.26 439.03 635.88 1014.04 391.56 1228.25 391.23 1146.77 496.93 1025.16 600.00 1237.11 599.49
00004569 DELETE   879.21 154.81 440.25 633.08 1016.13 388.55 1232.77 388.99 1151.08 494.91 1028.65 598.68 1241.32 598.08
00004570 00000036 880.04 154.08 441.69 632.18 1018.86 387.04 1234.36 387.58 1154.28 493.44 1032.45 596.75 1243.99 596.20
00004571 00000037 881.49 153.29 442.27 632.63 1021.44 385.33 1236.80 387.29 1156.58 493.93 1033.72 595.84 1245.16 596.55
00004572 00000038 881.96 152.18 442.20 633.28 1023.19 383.57 1237.84 387.33 1157.54 492.51 1034.31 595.89 1243.92 598.09
00004573 00000039 882.78 153.06 440.86 632.59 1023.57 382.88 1237.51 386.91 1158.23 492.40 1035.15 596.90 1242.87 599.30
00004574 00000040 882.14 154.37 440.09 630.65 1025.05 383.19 1236.04 387.70 1158.81 492.63 1036.85 598.18 1238.72 601.01
00004575 00000041 883.48 153.67 437.87 629.90 1023.57 381.78 1238.54 388.54 1158.57 491.66 1038.03 602.39 1236.96 606.92
00004576 00000042 883.18 153.53 435.03 627.52 1023.05 382.12 1240.23 388.99 1160.45 490.76 1039.21 603.32 1237.49 607.79
00004577 00000043 882.98 152.05 432.75 628.67 1022.92 380.88 1239.84 389.24 1160.15 489.77 1039.15 603.91 1235.32 609.58
00004578 00000044 882.79 153.56 428.11 625.76 1021.17 379.63 1236.82 389.49 1157.51 488.94 1037.62 604.30 1229.75 611.23
00004579 00000045 881.97 155.74 426.47 628.88 1020.36 378.35 1229.96 388.00 1154.69 488.05 1038.01 606.71 1223.46 613.59
00004580 00000046 879.62 157.13 424.89 627.34 1018.22 378.31 1227.10 386.99 1151.78 485.68 1037.01 606.16 1221.91 612.13
00004581 00000047 877.24 158.36 422.71 621.01 1017.02 377.13 1222.51 386.92 1147.54 484.35 1033.28 601.29 1216.48 608.32
00004582 00000048 875.08 160.23 421.60 614.69 1015.01 376.61 1218.93 386.36 1142.55 484.00 1029.65 597.66 1212.02 604.76
00004583 00000049 874.42 165.55 417.55 610.56 1009.70 382.93 1212.86 378.73 1142.02 490.20 1027.31 600.53 1210.54 595.79
00004584 00000050 872.95 165.80 416.36 609.17 1008.79 385.09 1210.32 379.92 1140.23 490.86 1025.48 599.56 1209.46 594.04
00004585 00000051 872.67 165.14 416.39 606.32 1009.11 381.40 1212.47 384.61 1141.31 488.69 1025.30 597.16 1211.49 599.55
00004586 00000052 871.47 165.78 414.08 604.73 1007.86 380.38 1211.57 384.58 1140.82 489.15 1024.08 597.64 1209.66 600.85
00004587 00000053 871.58 171.60 411.71 601.05 1004.26 387.16 1206.41 382.68 1136.51 492.69 1022.86 601.30 1205.47 596.14
00004588 00000054 869.95 173.37 411.63 600.97 1004.03 388.45 1204.30 383.72 1136.37 493.10 1023.68 602.97 1203.13 597.54
00004589 00000055 868.92 176.47 412.80 601.20 1004.52 388.38 1203.59 383.69 1137.01 493.44 1024.49 604.20 1202.30 598.79
00004590 00000056 868.38 177.76 412.40 602.97 1005.54 388.70 1202.97 384.38 1136.57 492.73 1026.79 606.49 1199.32 601.27
00004591 00000057 866.56 178.86 413.77 604.02 1004.91 389.60 1203.26 386.75 1137.29 493.13 1025.94 608.67 1198.04 604.65
00004592 00000058 865.90 181.06 413.65 603.22 1004.04 391.22 1202.53 387.80 1136.68 494.05 1026.68 610.98 1196.77 606.38
00004593 00000059 864.66 180.88 414.73 603.92 1001.34 393.55 1201.67 390.34 1135.29 495.32 1025.63 613.40 1194.95 608.78
00004594 00000060 862.32 181.09 416.54 602.47 999.18 393.94 1200.15 389.96 1132.32 496.98 1024.84 614.38 1193.06 608.91
00004595 00000061 861.59 178.08 416.40 603.00 997.86 396.28 1199.86 391.30 1131.97 496.71 1023.31 611.85 1197.60 605.43
00004596 00000062 859.54 175.62 417.84 605.56 997.50 396.25 1200.00 391.69 1131.72 497.47 1022.13 611.16 1197.45 605.00
00004597 00000063 859.96 175.44 418.49 606.75 996.45 395.81 1199.77 390.00 1130.99 496.90 1021.43 611.54 1197.75 604.32
00004598 00000064 858.97 175.43 417.70 603.76 997.22 393.73 1196.71 389.86 1129.30 492.78 1024.98 612.64 1189.37 606.92
00004599 00000065 858.43 177.67 418.17 598.74 997.11 392.34 1196.05 387.85 1128.24 492.54 1026.15 612.94 1186.88 606.68
00004600 00000066 857.82 178.29 419.81 596.27 995.38 393.21 1196.97 388.58 1126.96 495.08 1022.93 613.59 1187.31 607.43
00004601 00000067 858.24 177.56 420.16 600.49 993.66 395.06 1196.89 389.66 1126.19 496.24 1019.11 614.47 1189.00 607.89
00004602 00000068 857.77 178.88 420.28 602.75 991.92 397.11 1195.80 391.98 1123.91 497.27 1016.23 616.76 1187.82 610.60
00004603 00000069 857.78 179.77 422.35 604.39 991.61 398.81 1196.76 393.25 1123.55 499.64 1016.43 618.70 1188.40 612.05
00004604 00000070 858.36 181.31 421.33 605.89 990.41 399.30 1197.03 392.91 1122.80 502.35 1015.68 620.25 1190.33 612.88
00004605 00000071 858.21 181.46 421.78 604.45 991.76 399.23 1197.64 393.18 1123.86 501.34 1016.10 618.28 1191.46 611.08
00004606 00000072 859.08 181.20 420.67 605.07 991.84 399.11 1197.65 392.79 1123.48 501.30 1015.48 618.07 1191.89 610.70
00004607 00000073 860.24 181.49 420.54 603.72 992.88 399.66 1198.59 394.86 1124.31 503.11 1014.57 616.65 1193.74 610.68
00004608 00000074 862.08 183.49 418.65 599.82 993.29 401.21 1200.12 396.22 1125.12 507.05 1017.02 620.66 1193.72 614.68
00004609 00000075 860.75 185.52 421.85 602.91 991.81 402.81 1200.30 397.06 1124.94 515.42 1018.86 627.06 1192.10 620.25
00004610 00000076 857.76 189.33 424.65 609.83 990.31 408.02 1197.64 397.67 1126.09 522.62 1023.37 639.05 1189.95 628.29
00004611 00000077 853.53 187.78 426.88 618.37 988.58 409.71 1194.96 398.03 1125.41 526.22 1025.86 645.82 1185.95 633.91
00004612 00000078 849.83 189.39 428.86 619.75 986.97 407.77 1194.10 397.33 1124.00 525.75 1024.84 646.54 1183.11 635.62
00004613 00000079 847.55 186.21 429.88 621.63 985.17 405.85 1194.10 396.41 1122.79 520.22 1022.04 643.16 1183.73 632.69
00004614 00000080 846.32 183.31 430.34 620.64 985.14 402.56 1194.95 395.21 1122.80 514.38 1019.20 636.18 1185.10 627.47
00004615 00000081 845.58 175.74 431.58 622.71 986.58 397.11 1197.16 392.15 1125.06 508.55 1019.65 629.05 1187.63 622.28
00004616 00000082 843.23 154.88 430.73 637.09 989.18 388.26 1195.84 391.99 1125.53 495.81 1016.01 618.88 1192.10 620.14
00004617 00000083 842.35 160.36 431.56 627.16 989.10 389.04 1195.72 383.40 1126.91 491.68 1023.17 617.59 1183.64 610.04
00004618 00000084 841.28 161.87 431.75 624.56 990.69 384.91 1194.05 380.63 1125.44 485.60 1022.59 612.29 1180.75 606.01
00004619 00000085 840.83 148.60 430.02 635.30 990.08 376.15 1192.77 383.82 1122.83 479.66 1013.90 607.33 1184.60 611.87
00004620 00000086 839.91 148.81 429.82 635.06 988.71 376.95 1192.28 386.20 1121.58 483.92 1008.10 606.85 1182.68 612.55
00004621 00000087 839.52 149.64 429.73 631.50 987.91 378.48 1192.32 388.44 1121.01 486.19 1007.14 607.19 1182.06 613.49
00004622 00000088 838.87 152.29 430.77 629.30 986.54 379.53 1191.85 388.88 1119.78 487.61 1005.33 607.41 1182.93 613.37
00004623 00000089 839.57 150.10 429.95 629.51 986.97 380.16 1192.33 389.46 1119.75 488.66 1004.68 605.62 1184.04 611.53
00004624 00000090 836.66 151.42 433.05 628.31 984.34 379.92 1191.71 388.31 1118.37 487.42 1002.43 605.11 1184.41 610.37
00004625 00000091 835.76 152.60 434.32 626.22 982.20 380.41 1191.20 387.06 1117.19 488.31 1001.74 604.76 1185.66 608.62
00004626 00000092 835.77 154.10 434.58 628.68 982.84 380.91 1191.76 388.19 1117.96 489.69 1000.45 605.50 1186.20 609.97
00004627 00000093 837.71 152.42 433.48 632.38 985.50 382.67 1192.87 390.42 1120.10 491.80 1002.64 606.70 1187.05 611.53
00004628 00000094 839.45 152.14 433.49 632.13 986.91 385.86 1194.86 392.58 1122.05 495.06 1004.91 609.01 1189.43 613.12
00004629 00000095 841.02 153.79 433.54 630.16 987.19 387.59 1196.81 394.61 1122.21 496.76 1005.44 609.75 1191.52 614.18
00004630 00000096 841.10 152.66 433.54 630.79 987.16 387.11 1196.59 394.33 1121.42 496.75 1004.36 609.44 1190.63 614.01
00004631 00000097 840.78 152.80 432.82 628.49 986.77 386.21 1195.88 392.96 1120.98 495.02 1003.84 607.31 1190.35 611.52
00004632 00000098 840.92 153.48 432.73 626.97 986.18 386.45 1195.53 392.18 1120.82 492.72 1003.78 607.04 1191.26 610.43
00004633 00000099 841.26 152.47 432.26 625.75 985.96 384.60 1196.00 390.21 1120.77 492.39 1003.44 605.80 1191.15 609.09
00004634 00000100 841.83 153.10 431.21 624.35 985.85 383.59 1195.35 390.17 1119.56 491.69 1002.71 604.42 1190.11 608.43
00004635 00000101 842.83 153.27 430.28 623.55 985.56 382.92 1194.82 389.57 1118.38 490.11 1002.24 603.90 1189.01 607.89
00004636 00000102 842.14 153.62 430.82 622.23 984.58 381.72 1193.89 388.52 1116.93 489.15 1001.88 603.03 1187.77 607.19
00004637 00000103 841.94 151.99 431.61 624.23 985.55 381.45 1193.65 388.21 1117.22 487.91 1003.32 602.95 1186.95 606.89
00004638 00000104 843.40 153.58 430.97 622.82 988.19 381.17 1193.86 387.48 1118.99 486.40 1005.94 601.41 1187.86 605.12
00004639 00000105 846.23 154.96 429.13 622.04 991.12 381.07 1195.76 387.94 1122.03 484.96 1007.37 599.78 1189.31 604.07
00004640 00000106 848.75 160.19 426.28 615.53 990.95 379.21 1195.88 385.76 1121.47 482.14 1006.07 596.85 1190.06 601.07
00004641 00000107 848.45 169.39 424.69 603.72 990.07 383.21 1192.58 383.22 1122.21 481.28 1009.99 595.69 1184.84 593.14
00004642 00000108 849.07 160.30 424.44 610.73 990.83 376.64 1192.62 383.49 1119.86 474.99 1007.97 593.16 1186.65 597.48
00004643 00000109 849.28 160.50 425.30 605.91 989.62 376.61 1192.21 384.93 1116.65 471.80 1006.46 589.52 1185.83 594.99
00004644 00000110 851.30 161.78 421.09 600.09 988.84 376.02 1192.22 384.01 1115.81 469.96 1006.78 587.53 1186.77 592.75
00004645 00000111 852.09 162.85 418.92 593.59 986.90 375.06 1191.08 383.36 1113.38 467.58 1005.52 584.91 1185.54 590.34
00004646 00000112 852.60 163.28 418.13 586.31 984.45 375.34 1190.51 381.98 1109.31 465.53 1004.23 582.99 1185.65 587.04
00004647 00000113 850.82 165.97 418.37 577.52 981.87 376.04 1187.15 381.59 1104.86 464.64 1000.57 579.16 1183.20 582.65
00004648 00000114 850.39 165.53 416.65 574.99 979.34 376.17 1185.70 381.17 1101.54 462.05 998.98 578.95 1181.57 581.86
00004649 00000115 848.23 165.52 418.63 575.54 976.86 376.42 1183.22 381.46 1098.68 459.61 997.92 578.56 1180.26 581.19
00004650 00000116 847.19 164.57 418.61 575.00 974.60 375.67 1182.08 380.60 1095.78 459.34 995.73 578.74 1178.63 581.32
00004651 00000117 844.94 165.18 419.48 574.70 972.26 374.97 1180.09 380.88 1093.12 458.56 993.63 579.00 1176.31 582.27
00004652 00000118 844.46 166.50 419.41 573.69 971.12 374.00 1178.62 379.78 1090.85 456.68 992.54 578.19 1174.44 581.30
00004653 00000119 844.06 166.69 419.58 573.34 970.15 372.84 1176.56 377.34 1089.26 457.19 992.75 577.69 1173.44 579.60
00004654 00000120 844.24 165.53 419.57 573.74 969.73 373.14 1176.27 376.83 1088.14 456.65 991.86 576.40 1174.07 577.72
00004655 00000121 844.44 165.67 418.45 572.16 970.10 372.97 1175.99 376.92 1088.06 456.18 992.62 576.20 1172.82 577.76
00004656 00000122 843.77 165.75 418.67 573.37 969.23 373.43 1175.58 377.42 1088.03 455.73 992.10 577.09 1172.68 578.67
00004657 00000123 843.95 165.49 416.44 574.80 968.61 373.37 1175.87 378.78 1087.73 455.49 991.18 577.76 1172.04 580.51
00004658 00000124 841.54 164.52 416.90 577.46 967.11 372.91 1175.75 380.21 1088.38 454.93 989.91 579.06 1170.96 583.16
00004659 00000125 839.34 162.58 418.05 581.87 964.03 372.74 1176.03 379.93 1089.01 455.50 988.21 581.28 1172.75 585.10
00004660 00000126 839.97 162.63 416.61 582.23 964.95 373.52 1174.48 378.65 1089.74 453.56 990.44 581.48 1171.40 583.51
00004661 00000127 838.45 163.67 415.59 581.88 963.46 372.17 1171.33 377.46 1087.53 452.80 988.74 581.87 1167.29 584.11
00004662 00000128 837.83 161.78 412.15 585.60 960.88 372.35 1168.72 378.33 1084.89 449.79 985.18 583.58 1163.23 586.78
00004663 00000129 836.83 161.73 411.09 586.54 958.97 370.56 1164.51 375.98 1079.50 452.76 982.78 582.22 1159.38 584.79
00004664 00000130 836.64 160.53 410.74 587.21 958.01 370.34 1162.99 375.96 1077.88 449.32 982.21 581.51 1158.00 584.25
00004665 00000131 834.18 162.15 413.05 584.04 956.51 370.00 1161.99 373.78 1077.15 447.72 983.26 581.90 1157.75 583.08
00004666 00000132 832.86 161.15 412.65 584.52 956.20 369.47 1161.89 374.46 1077.37 448.34 982.88 581.30 1157.66 583.49
00004667 00000133 830.93 160.24 413.46 585.42 955.18 368.84 1162.07 374.58 1077.75 448.75 981.73 582.29 1156.92 585.18
00004668 00000134 828.84 160.66 414.37 587.71 954.35 369.45 1162.41 377.11 1077.68 450.91 979.15 583.89 1155.83 588.46
00004669 00000135 828.68 160.66 414.69 589.09 954.51 369.52 1162.70 378.82 1078.27 452.29 977.73 584.41 1155.16 590.40
00004670 00000136 827.57 161.25 415.24 591.15 954.02 370.60 1163.47 380.03 1079.40 452.11 976.88 586.05 1155.90 592.28
00004671 00000137 827.62 161.64 414.13 590.77 955.10 370.68 1164.55 382.46 1080.32 452.28 975.23 585.66 1154.94 593.97
00004672 00000138 827.20 162.70 414.06 589.54 956.00 370.60 1166.83 383.53 1082.58 453.89 975.02 586.66 1155.24 596.00
00004673 00000139 824.67 160.90 414.70 591.40 958.17 369.14 1167.75 383.67 1084.89 456.32 975.31 586.49 1153.67 597.18
00004674 00000140 821.33 157.82 416.53 593.07 959.34 373.16 1168.22 388.31 1086.72 457.60 975.94 585.97 1153.64 597.26
00004675 00000141 819.00 157.24 418.52 593.63 962.22 374.63 1170.38 392.52 1090.44 460.07 976.66 585.31 1154.47 599.01
00004676 00000142 817.34 155.55 420.08 598.16 964.42 374.28 1172.64 394.80 1093.38 464.27 976.31 585.97 1154.36 601.89
00004677 00000143 816.76 157.07 421.05 598.55 965.03 372.20 1174.37 394.23 1096.09 463.29 976.58 586.79 1155.28 604.04
00004678 00000144 817.19 156.52 420.71 599.37 967.85 369.80 1175.62 394.57 1098.50 463.70 977.69 586.47 1153.90 605.91
00004679 00000145 815.82 156.28 419.29 600.95 969.18 370.41 1175.62 394.90 1100.72 467.77 978.81 588.74 1152.07 608.02
00004680 00000146 813.94 158.01 420.44 601.98 968.49 371.35 1173.83 395.86 1099.74 470.53 977.55 589.86 1151.12 609.22
00004681 00000147 812.23 160.02 419.97 598.80 967.68 373.54 1171.30 397.15 1098.48 472.60 977.21 590.82 1148.91 609.68
00004682 00000148 809.81 163.78 419.28 594.63 965.10 373.72 1169.82 399.10 1094.87 472.98 973.52 590.62 1146.27 611.14
00004683 00000149 807.50 163.78 419.73 593.73 963.59 372.75 1165.38 398.53 1091.67 472.62 970.52 588.93 1141.37 609.84
00004684 00000150 806.17 164.07 418.75 593.20 962.77 373.20 1162.19 400.24 1088.65 472.63 967.26 587.21 1136.98 609.22
00004685 00000151 810.70 162.71 409.01 593.46 963.41 377.09 1160.89 397.74 1095.81 467.51 971.09 590.65 1139.51 608.02
00004686 00000152 810.17 161.19 408.22 593.25 963.98 377.62 1157.16 395.00 1095.06 467.50 976.70 592.15 1137.58 606.34
00004687 00000153 807.63 159.91 406.66 590.47 960.75 378.24 1154.68 392.95 1094.34 463.17 979.74 593.92 1136.89 606.03
00004688 00000154 804.95 158.22 407.67 589.99 956.42 375.28 1148.73 385.56 1088.99 459.46 980.74 592.64 1134.08 601.19
00004689 00000155 804.50 161.08 406.73 583.33 952.43 371.25 1141.90 375.61 1083.18 454.60 980.16 590.14 1131.22 593.94
00004690 00000156 803.59 160.42 409.20 586.23 947.25 368.33 1139.29 370.77 1076.36 454.37 974.24 589.98 1128.47 591.89
00004691 00000157 802.56 160.28 409.87 590.81 942.69 366.94 1137.34 370.86 1070.74 457.69 966.29 588.97 1126.20 592.05
00004692 00000158 804.02 160.87 409.83 592.42 938.94 368.70 1137.56 370.66 1067.15 459.14 964.35 591.62 1128.88 592.90
00004693 00000159 804.41 159.26 409.85 592.75 938.83 369.74 1137.27 371.96 1066.18 459.19 963.05 590.85 1128.54 592.32
00004694 00000160 805.10 160.32 409.93 591.34 939.36 370.03 1137.64 372.02 1066.33 460.66 961.75 589.96 1128.37 591.40
00004695 00000161 806.22 162.48 411.04 589.93 939.40 369.86 1140.88 370.82 1067.59 459.74 961.32 589.95 1132.17 590.50
00004696 00000162 808.34 162.53 410.67 591.22 942.10 369.63 1143.69 370.70 1071.44 458.96 963.26 589.42 1135.77 590.01
00004697 00000163 809.41 160.24 412.24 594.79 945.62 371.75 1146.51 372.42 1076.76 458.78 967.78 590.38 1139.48 590.54
00004698 00000164 809.16 159.94 418.25 592.95 948.94 369.24 1152.32 383.03 1073.67 465.21 967.07 584.65 1141.06 594.93
00004699 00000165 810.62 158.12 418.90 596.07 950.37 370.79 1156.27 385.36 1077.51 466.90 967.98 586.85 1145.17 597.86
