Video ID: 	ChKBhioySAo
H: 	1080
W: 	1920
FPS: 	29.97002997002997

FRAME INDEX X0 Y0 W H [Landmarks (5 Points)]

00012257 00000000 902.39 128.41 400.28 541.63 989.72 294.46 1134.45 361.21 974.79 402.28 924.49 491.67 1044.21 546.89
00012258 DELETE   914.08 113.95 398.87 554.97 992.98 309.80 1144.90 370.37 998.31 420.04 940.29 505.98 1059.16 555.75
00012259 DELETE   923.83 139.76 397.27 555.59 993.31 312.19 1166.55 384.91 1004.97 433.50 945.96 519.10 1073.27 579.65
00012260 00000003 930.29 149.16 400.84 569.11 1014.17 330.99 1177.65 387.91 1028.40 442.48 966.47 537.79 1100.48 585.96
00012261 DELETE   926.07 151.96 398.63 576.79 1011.91 334.25 1171.97 394.01 1023.42 450.46 963.34 540.87 1094.51 591.53
00012262 DELETE   916.63 151.81 402.02 582.96 1002.23 331.27 1161.07 401.20 1004.58 455.29 953.10 535.83 1088.56 594.86
00012263 DELETE   907.44 162.95 394.48 569.99 990.47 320.86 1142.95 391.64 987.25 445.84 939.35 530.63 1072.84 590.31
00012264 00000007 899.17 164.36 406.71 562.53 993.73 320.76 1145.79 391.87 991.12 450.74 940.69 530.54 1067.16 588.94
00012265 00000008 894.62 149.97 410.20 557.39 986.88 313.73 1144.54 385.06 985.39 440.76 934.08 515.93 1067.92 574.89
00012266 00000009 897.30 146.38 417.48 558.05 986.12 314.07 1149.11 379.71 988.35 437.41 937.06 515.44 1080.25 569.30
00012267 00000010 899.09 150.36 422.21 552.99 989.10 316.99 1151.12 381.54 990.80 440.68 940.22 516.31 1081.84 569.12
00012268 00000011 898.29 171.13 410.25 535.18 988.96 319.58 1146.39 386.86 987.17 449.72 937.98 524.75 1068.51 579.48
00012269 00000012 906.21 172.88 398.83 538.04 982.85 324.49 1133.56 393.82 981.08 448.75 935.64 526.47 1060.58 583.64
00012270 00000013 902.08 172.03 401.56 539.50 979.77 324.08 1131.51 393.89 976.72 450.77 932.95 527.74 1058.80 585.59
00012271 00000014 896.42 153.93 405.87 547.30 981.11 316.28 1137.42 387.45 978.67 453.01 930.75 525.31 1055.47 583.10
00012272 00000015 897.34 141.05 408.01 551.85 983.32 314.28 1138.96 378.73 982.75 440.50 931.15 518.84 1055.87 571.63
00012273 00000016 899.75 143.13 406.14 545.98 984.56 312.96 1140.85 375.56 983.95 438.27 932.45 517.37 1057.65 568.50
00012274 00000017 900.26 147.34 405.15 549.95 985.87 315.54 1141.93 377.15 986.38 441.45 935.98 522.54 1061.53 572.86
00012275 00000018 899.53 167.29 402.09 538.60 985.31 314.71 1143.70 382.25 986.35 449.80 934.78 528.27 1062.04 582.95
00012276 00000019 905.65 178.89 398.67 531.07 980.65 317.93 1138.63 384.82 983.26 445.48 934.90 527.41 1066.25 582.31
00012277 00000020 905.49 177.63 398.68 533.99 979.99 318.90 1138.85 383.07 983.18 444.40 936.10 528.81 1069.24 581.56
00012278 00000021 908.90 160.60 396.05 558.64 984.42 319.93 1137.04 380.00 983.29 439.32 941.09 529.60 1071.30 579.82
00012279 00000022 904.25 154.79 404.68 564.76 991.74 319.59 1142.79 384.08 989.78 446.97 945.29 532.97 1068.36 585.60
00012280 00000023 904.92 156.10 403.75 568.20 992.26 320.36 1143.63 384.68 991.53 447.31 946.79 535.61 1071.09 588.15
00012281 00000024 905.00 154.00 403.10 569.72 991.70 319.91 1144.26 384.49 991.99 447.95 947.25 536.15 1071.56 588.92
00012282 00000025 911.24 161.89 395.36 563.67 983.81 320.17 1136.62 378.40 983.34 437.24 943.91 532.67 1077.10 581.51
00012283 00000026 904.16 163.57 398.55 548.95 987.18 319.46 1141.77 384.81 988.31 450.08 940.98 533.49 1064.90 586.23
00012284 00000027 899.91 161.23 407.18 551.03 988.08 318.68 1144.97 384.41 989.84 447.83 939.54 531.97 1063.48 585.31
00012285 00000028 900.30 156.31 411.40 554.63 988.31 318.26 1147.54 380.82 992.37 446.32 940.53 532.76 1063.88 583.56
00012286 00000029 910.54 171.43 397.27 544.39 984.85 322.57 1143.50 381.93 992.16 441.26 938.46 533.86 1067.31 582.96
00012287 00000030 912.89 170.56 396.36 548.69 988.91 330.86 1149.18 391.85 995.61 447.19 942.60 537.58 1079.12 588.36
00012288 00000031 911.15 161.06 402.36 564.28 990.63 342.04 1151.31 405.85 997.87 465.59 942.24 549.12 1078.72 602.59
00012289 00000032 908.42 152.47 402.27 582.22 988.73 346.99 1152.70 415.80 999.11 476.35 940.56 556.29 1079.41 613.44
00012290 00000033 902.97 160.96 397.83 579.27 988.00 351.96 1150.36 421.57 997.18 483.54 934.81 560.55 1069.99 618.87
00012291 00000034 901.44 162.51 399.96 578.80 984.28 353.57 1147.58 421.78 993.23 488.94 931.93 564.49 1063.42 621.92
00012292 00000035 897.83 166.62 400.27 568.01 983.79 352.26 1145.88 422.29 993.15 487.08 930.57 561.04 1060.56 619.88
00012293 00000036 895.74 170.18 401.80 564.30 983.29 353.00 1144.19 421.97 991.54 487.35 928.82 561.14 1057.86 619.30
00012294 00000037 895.77 171.08 402.57 563.02 983.78 351.09 1145.19 422.90 991.37 487.52 929.59 557.66 1060.98 617.88
00012295 00000038 896.74 168.97 405.12 569.35 982.14 355.08 1149.58 423.05 995.30 492.26 930.20 565.02 1065.93 621.70
00012296 00000039 897.73 163.54 411.47 584.64 981.44 360.88 1152.69 428.63 994.58 497.75 930.46 569.79 1072.89 625.72
00012297 00000040 900.29 161.29 414.25 593.92 987.27 367.08 1154.83 437.64 996.48 505.71 934.40 576.53 1067.88 635.04
00012298 00000041 902.62 160.34 414.69 591.96 988.90 363.60 1156.85 435.67 997.77 502.95 936.44 572.11 1072.68 631.60
00012299 00000042 907.99 162.94 400.56 584.71 989.93 352.57 1155.86 422.79 998.46 490.59 940.19 563.39 1081.61 621.74
00012300 00000043 907.61 164.48 403.27 568.74 988.59 344.55 1151.12 408.11 996.02 475.64 941.83 555.04 1076.39 608.08
00012301 00000044 904.33 170.69 406.65 552.85 986.99 336.86 1149.25 398.14 995.26 459.20 941.63 542.06 1078.29 593.22
00012302 00000045 904.31 175.54 400.99 546.43 984.27 332.94 1147.08 392.95 994.58 456.91 939.94 540.90 1077.89 590.87
00012303 00000046 902.49 166.83 404.03 554.61 983.00 333.06 1146.27 394.12 991.88 458.03 938.84 540.52 1077.34 591.47
00012304 00000047 900.00 167.36 406.02 555.16 980.31 328.51 1145.08 390.52 988.81 455.17 937.37 538.15 1077.58 589.97
00012305 00000048 900.70 164.71 403.98 555.11 979.01 325.59 1142.38 386.66 987.28 449.51 937.72 535.58 1077.09 586.63
00012306 00000049 892.33 159.54 406.79 551.98 978.58 324.25 1149.32 385.52 993.92 455.64 934.11 537.66 1071.24 587.66
00012307 00000050 890.58 164.04 415.37 547.66 974.77 323.24 1149.47 383.64 991.01 455.94 934.94 537.00 1073.01 585.91
00012308 00000051 889.60 158.58 419.22 555.72 977.98 326.28 1154.16 385.65 998.03 457.30 936.55 539.93 1076.27 588.17
00012309 00000052 904.45 158.13 399.36 566.25 978.92 344.20 1147.34 391.10 997.70 458.64 944.58 550.57 1082.82 590.19
00012310 00000053 904.96 167.57 402.70 561.15 980.74 343.94 1155.40 386.94 1009.01 460.50 952.42 554.80 1093.86 590.83
00012311 00000054 911.79 160.11 395.17 564.98 984.61 347.74 1158.22 385.42 1017.58 459.99 959.80 557.55 1103.41 589.42
00012312 DELETE   912.14 152.01 392.48 579.59 990.29 341.29 1167.63 377.43 1030.78 452.81 966.20 558.13 1109.57 589.11
00012313 00000056 910.49 136.32 394.53 601.38 991.05 331.50 1168.88 366.24 1033.58 443.45 966.05 553.76 1108.49 584.13
00012314 00000057 912.33 171.53 391.24 559.47 988.72 326.40 1165.47 358.46 1030.19 430.41 964.04 541.05 1119.13 568.11
00012315 00000058 907.97 156.68 395.84 562.30 986.40 332.16 1171.59 359.05 1028.37 423.68 962.68 539.15 1121.35 563.29
00012316 00000059 906.76 168.68 391.72 539.87 986.75 327.99 1169.45 353.55 1028.87 417.46 963.02 530.91 1117.93 554.04
00012317 00000060 908.12 176.29 388.38 526.44 990.28 324.73 1167.81 352.78 1031.21 414.67 964.99 525.65 1114.42 551.36
00012318 00000061 909.24 178.95 386.83 523.19 991.43 319.65 1168.18 350.01 1029.69 413.01 963.75 523.41 1110.38 551.33
00012319 00000062 900.10 168.81 400.64 538.85 1003.11 314.02 1167.25 357.75 1033.16 416.53 962.38 519.48 1104.66 556.14
00012320 00000063 909.96 165.00 390.02 543.60 997.71 314.02 1162.32 351.50 1033.64 409.15 961.98 516.77 1101.72 548.50
00012321 00000064 910.14 160.31 391.21 548.90 1000.46 316.23 1163.23 355.57 1036.33 408.05 961.98 518.25 1095.38 551.77
00012322 00000065 913.31 179.10 397.00 531.09 1004.26 321.48 1168.54 364.54 1036.12 414.06 961.20 523.03 1101.49 559.13
00012323 00000066 914.25 180.60 401.04 528.43 1004.57 323.05 1175.39 377.05 1037.41 429.37 955.43 522.80 1104.12 567.10
00012324 00000067 917.87 185.65 399.67 529.53 1009.17 325.57 1182.00 381.73 1039.19 439.94 960.49 529.88 1108.84 575.93
00012325 00000068 921.19 188.77 397.23 523.96 1015.07 330.38 1187.69 385.50 1043.54 441.21 964.91 532.56 1113.02 577.96
00012326 00000069 922.90 185.63 399.96 532.20 1017.66 332.91 1190.68 387.09 1046.01 446.76 971.78 535.29 1120.66 580.14
00012327 00000070 923.77 190.71 399.08 528.77 1020.48 334.75 1194.24 390.03 1048.76 449.85 973.70 538.16 1119.68 584.04
00012328 00000071 922.90 193.02 402.66 528.72 1022.12 335.68 1195.62 391.66 1048.77 452.13 974.03 539.43 1119.39 585.96
00012329 00000072 925.13 186.53 400.69 533.49 1024.91 336.24 1197.87 392.56 1051.68 451.51 976.78 537.95 1121.31 585.19
00012330 00000073 925.43 192.86 401.50 527.83 1025.09 337.08 1197.49 392.47 1052.12 452.65 977.59 538.75 1121.51 584.96
00012331 00000074 926.80 193.89 400.94 525.47 1025.95 338.00 1198.69 392.43 1053.96 452.54 978.89 538.52 1124.51 583.92
00012332 00000075 926.81 188.43 403.02 529.13 1027.18 335.78 1200.73 391.17 1055.57 450.52 979.26 536.25 1125.87 582.44
00012333 00000076 930.21 175.81 402.78 537.23 1031.47 332.43 1203.11 391.00 1057.38 445.50 979.78 530.58 1126.43 579.55
00012334 00000077 931.95 177.58 404.18 535.08 1034.90 333.14 1205.66 391.07 1060.51 444.89 983.23 529.84 1128.53 578.12
00012335 00000078 934.70 179.15 402.14 535.85 1037.64 335.14 1207.81 394.01 1062.20 446.02 984.70 530.50 1130.81 579.85
00012336 00000079 935.44 183.46 402.08 530.48 1039.20 340.72 1209.97 397.43 1063.40 451.61 987.19 533.91 1134.03 582.03
00012337 00000080 937.75 187.73 401.15 532.15 1040.08 339.07 1211.70 397.32 1064.34 453.44 988.82 534.90 1137.77 584.35
00012338 00000081 932.08 176.98 405.16 545.47 1036.67 339.58 1209.14 398.54 1063.15 453.39 986.18 535.20 1136.83 585.31
00012339 00000082 929.44 175.15 404.90 549.26 1031.96 344.75 1205.53 403.73 1058.51 459.07 983.63 539.68 1133.28 590.12
00012340 00000083 925.06 166.62 408.21 563.98 1027.32 348.86 1199.86 408.86 1052.14 463.39 981.36 545.14 1129.73 596.13
00012341 00000084 915.87 172.24 416.38 567.37 1020.11 347.24 1191.00 413.08 1041.25 470.35 971.82 548.60 1125.27 603.00
00012342 00000085 914.12 169.85 411.32 569.92 1008.69 341.99 1177.45 409.28 1024.36 472.85 961.24 548.29 1111.44 604.03
00012343 00000086 910.84 166.30 408.56 571.89 1004.11 335.68 1170.21 407.46 1015.35 465.97 951.19 543.66 1096.69 603.44
00012344 00000087 911.78 159.37 403.72 569.14 1000.50 331.74 1164.32 403.79 1010.38 461.48 949.16 534.97 1088.25 595.22
00012345 00000088 907.26 151.30 406.61 570.07 1003.75 328.22 1157.70 402.54 1006.28 461.23 952.74 533.86 1074.05 594.52
00012346 00000089 912.43 160.24 392.14 555.92 997.57 328.57 1153.36 402.63 1002.75 454.76 944.30 530.15 1069.77 591.10
00012347 00000090 911.10 163.51 397.41 555.91 998.21 335.14 1157.84 407.67 1005.02 459.90 941.61 538.52 1072.66 598.81
00012348 00000091 910.30 168.10 403.17 552.82 1002.37 338.35 1162.22 417.37 1006.08 469.85 944.13 538.22 1075.05 603.71
00012349 00000092 908.85 166.27 408.38 556.61 1001.08 335.26 1164.37 416.28 1005.09 468.78 943.72 535.94 1082.10 603.16
00012350 00000093 910.10 163.44 408.11 554.46 1002.70 332.63 1164.25 412.52 1006.81 462.35 946.11 529.39 1083.62 595.72
00012351 00000094 916.58 163.69 399.36 550.27 1008.68 331.15 1164.17 408.39 1012.39 455.13 949.76 530.66 1075.50 594.35
00012352 00000095 918.26 166.91 398.52 549.35 1009.87 331.92 1164.18 406.21 1013.40 456.96 948.65 532.44 1072.20 593.85
00012353 00000096 917.05 169.33 402.55 546.32 1010.47 336.00 1166.19 409.78 1014.81 458.95 948.44 534.17 1073.86 595.21
00012354 00000097 917.25 165.85 402.97 554.26 1007.12 337.17 1164.01 414.41 1009.58 469.70 944.33 540.62 1069.96 604.57
00012355 00000098 911.65 172.90 402.33 548.72 1002.87 342.78 1160.49 420.86 1005.55 476.43 941.90 543.68 1071.62 608.11
00012356 00000099 910.22 173.24 402.89 547.86 1002.85 342.17 1160.49 422.72 1005.16 477.13 940.51 541.40 1073.18 607.94
00012357 00000100 910.75 177.28 406.18 543.34 1004.26 338.17 1163.72 420.46 1007.15 475.43 941.19 537.62 1076.72 605.53
00012358 00000101 914.79 177.81 405.76 544.96 1006.13 337.46 1165.55 415.45 1008.19 470.98 944.14 540.38 1079.05 604.89
00012359 00000102 915.86 179.00 405.61 548.91 1006.81 336.74 1166.24 413.00 1009.31 469.68 946.07 543.65 1082.66 606.64
00012360 00000103 914.79 179.35 405.81 555.25 1006.15 336.13 1167.30 412.73 1008.49 471.52 945.63 545.19 1083.54 608.56
00012361 00000104 913.83 174.45 405.78 563.54 1005.98 337.26 1166.89 415.85 1007.14 472.94 945.90 545.55 1085.50 610.55
00012362 00000105 914.48 168.62 401.82 565.66 1005.84 336.19 1166.26 414.74 1008.49 471.06 946.48 543.17 1084.87 608.62
00012363 00000106 914.56 165.11 405.22 567.54 1004.55 333.24 1167.39 408.92 1009.94 465.02 949.14 540.82 1088.10 604.02
00012364 00000107 914.76 164.22 412.29 563.74 1005.35 338.42 1166.30 413.81 1007.90 464.05 954.04 535.79 1088.77 598.45
00012365 00000108 915.07 169.01 409.90 553.19 1004.88 339.32 1167.02 413.20 1012.38 461.78 954.02 534.57 1091.26 595.80
00012366 00000109 914.20 169.31 410.81 551.56 1005.11 339.36 1167.46 409.88 1015.34 458.67 954.24 535.48 1091.55 593.84
00012367 00000110 912.97 163.62 408.47 559.73 1003.74 339.00 1167.13 408.93 1015.72 458.79 953.73 536.34 1091.36 594.57
00012368 00000111 914.57 167.41 405.19 551.83 1004.12 338.91 1168.87 400.33 1021.23 455.63 956.21 537.41 1089.81 588.72
00012369 00000112 919.75 161.58 399.33 559.23 1002.32 331.16 1167.56 386.81 1020.26 447.37 956.91 538.32 1088.60 585.01
00012370 00000113 917.69 161.38 402.33 559.90 1001.71 322.05 1166.19 380.04 1019.07 435.95 953.12 528.88 1084.21 577.38
00012371 00000114 915.52 150.60 408.52 567.22 1009.59 316.33 1169.77 377.01 1025.53 422.64 952.81 520.20 1078.59 570.78
00012372 00000115 916.32 151.79 409.69 558.33 1019.13 312.60 1175.07 372.73 1034.52 414.27 958.24 509.95 1081.15 560.55
00012373 00000116 912.99 140.12 421.73 569.46 1029.97 310.32 1187.88 378.08 1046.91 409.56 961.33 504.61 1085.15 561.57
00012374 00000117 915.61 162.94 425.47 542.28 1035.81 313.76 1193.35 382.95 1048.50 416.56 967.98 507.44 1096.24 565.07
00012375 00000118 918.71 170.67 428.31 539.09 1040.19 318.49 1200.13 382.72 1053.95 427.26 976.89 518.94 1101.15 572.61
00012376 00000119 929.05 169.20 424.24 539.13 1049.57 323.81 1205.60 395.90 1054.72 439.24 979.40 520.98 1101.31 581.04
00012377 00000120 931.76 173.48 424.62 532.11 1059.29 331.96 1215.53 407.43 1060.28 447.14 979.86 526.98 1098.57 589.94
00012378 00000121 935.43 189.38 425.18 524.98 1064.90 338.74 1222.98 414.20 1066.90 453.38 985.09 534.14 1104.50 596.94
00012379 00000122 935.41 185.29 437.30 538.86 1068.47 340.64 1231.19 421.23 1071.00 456.54 990.15 536.09 1115.57 603.10
00012380 DELETE   939.01 182.97 434.93 543.81 1065.10 342.15 1229.15 429.65 1074.04 467.03 995.36 532.59 1128.56 605.76
00012381 00000124 942.43 190.75 442.78 539.16 1070.14 346.49 1236.09 439.38 1074.48 476.62 996.71 535.18 1131.06 612.79
00012382 00000125 948.04 195.28 426.98 534.80 1070.61 355.99 1237.57 459.13 1079.52 497.29 993.10 545.06 1130.22 629.53
00012383 00000126 949.76 198.42 425.53 538.07 1069.19 361.27 1239.03 463.49 1080.38 512.15 990.75 555.65 1128.61 639.71
00012384 00000127 953.76 208.06 428.43 535.43 1076.50 367.36 1247.37 467.27 1087.31 516.17 994.85 566.78 1129.27 648.96
00012385 00000128 956.75 204.00 417.58 542.10 1078.82 366.79 1250.71 464.40 1094.40 520.51 998.74 573.78 1129.44 654.38
00012386 00000129 955.25 205.04 425.58 553.57 1082.44 366.51 1256.04 462.82 1099.11 519.23 1002.54 579.43 1133.60 658.93
00012387 00000130 956.09 201.81 440.49 565.62 1087.14 365.79 1261.26 461.77 1101.77 517.23 1009.08 576.82 1140.63 656.37
00012388 00000131 958.30 201.05 433.55 563.65 1089.20 361.33 1262.91 460.75 1104.27 512.29 1009.99 570.67 1143.78 653.15
00012389 00000132 958.45 192.76 440.59 566.61 1089.76 361.70 1262.82 454.16 1106.78 503.98 1014.48 569.24 1143.87 646.01
00012390 00000133 960.89 195.27 445.73 567.00 1092.23 363.59 1266.10 456.63 1108.12 503.58 1016.77 569.56 1150.01 646.53
00012391 00000134 965.26 205.62 441.03 565.07 1097.57 373.93 1270.64 463.35 1112.44 515.12 1021.37 580.16 1153.00 654.10
00012392 00000135 967.04 220.79 442.08 555.36 1105.28 383.21 1276.87 468.66 1120.05 524.10 1025.49 587.68 1155.67 658.62
00012393 00000136 970.33 222.92 447.80 559.11 1111.59 380.84 1281.85 470.50 1124.04 529.14 1031.90 588.20 1159.23 662.51
00012394 00000137 985.15 224.65 435.67 555.60 1115.03 382.13 1282.39 468.89 1132.22 523.64 1039.11 588.19 1165.81 660.90
00012395 00000138 987.37 228.54 432.80 549.56 1114.60 383.54 1284.40 466.92 1132.49 524.70 1039.34 591.26 1170.86 660.62
00012396 00000139 973.60 219.91 440.89 565.70 1110.03 380.07 1282.32 468.97 1125.30 530.75 1029.38 591.16 1162.49 665.24
00012397 00000140 969.93 215.46 440.85 569.46 1104.11 383.85 1276.65 472.54 1120.53 534.43 1028.19 592.23 1160.82 666.02
00012398 00000141 968.04 205.97 441.48 584.81 1100.52 389.37 1273.41 474.99 1117.61 534.67 1028.06 598.57 1159.97 669.88
00012399 00000142 979.07 208.76 432.27 591.64 1102.88 391.13 1273.91 472.65 1125.31 533.32 1034.73 601.34 1161.19 670.60
00012400 00000143 980.01 215.80 427.29 581.46 1104.51 387.29 1275.10 468.70 1126.36 531.63 1035.13 600.32 1158.46 669.10
00012401 00000144 966.49 204.28 437.36 587.44 1100.43 380.90 1272.89 458.87 1121.20 523.28 1029.32 596.44 1153.53 662.08
CROP_BBOX: 657 0 1637 940
