Video ID: 	726HN4sff5o
H: 	1080
W: 	1920
FPS: 	23.976023976023978

FRAME INDEX X0 Y0 W H [Landmarks (5 Points)]

00004572 00000000 648.15 105.53 336.61 526.31 707.30 309.12 803.08 340.86 661.38 396.17 670.87 495.55 745.99 520.95
00004573 00000001 646.83 104.60 331.91 537.16 706.79 307.82 799.98 341.83 659.66 398.74 673.76 501.54 745.87 528.75
00004574 00000002 648.96 104.79 331.62 551.20 712.34 308.10 800.45 339.00 660.77 399.86 681.28 512.79 748.90 536.76
00004575 00000003 645.65 107.19 344.62 550.58 711.24 308.87 809.43 337.54 662.04 399.89 675.15 515.95 750.49 541.41
00004576 DELETE   653.32 111.33 335.15 542.45 703.99 317.77 808.37 349.04 664.63 409.99 676.76 515.64 755.98 540.73
00004577 DELETE   656.71 116.29 340.94 541.53 702.99 324.66 812.05 352.71 667.74 413.07 676.93 523.36 756.95 545.93
00004578 00000006 661.60 117.78 343.73 539.68 705.66 333.02 810.85 356.78 668.66 418.44 680.55 528.62 757.95 547.92
00004579 00000007 662.66 124.20 341.40 537.09 706.43 336.40 811.94 358.30 670.20 420.76 683.45 533.40 761.42 551.14
00004580 00000008 663.36 125.62 348.71 559.90 711.23 338.27 813.90 359.73 671.78 423.46 691.44 542.89 769.29 559.68
00004581 00000009 662.89 131.73 340.37 536.97 707.63 339.34 811.80 360.77 670.25 422.50 684.54 539.75 758.18 556.90
00004582 00000010 656.32 133.62 340.90 528.86 703.65 337.35 812.18 363.30 672.02 421.59 673.26 531.77 749.50 553.10
00004583 00000011 651.45 132.51 343.51 526.53 702.10 337.89 810.11 364.18 672.28 418.65 666.91 528.72 739.58 550.80
00004584 00000012 647.15 136.04 350.37 515.60 713.60 335.86 807.32 363.82 668.40 415.37 662.23 525.81 724.50 548.65
00004585 00000013 650.25 125.89 357.93 546.31 716.92 334.32 810.38 362.08 667.67 414.52 666.13 530.47 731.35 553.49
00004586 00000014 655.93 129.67 349.54 536.73 718.96 333.26 810.05 358.51 667.14 413.19 671.82 529.30 739.26 549.98
00004587 00000015 655.23 130.37 342.17 541.35 722.65 335.43 814.32 361.87 667.46 415.23 674.16 533.68 736.25 555.10
00004588 00000016 649.66 130.50 344.46 519.13 722.28 335.90 809.28 369.78 664.83 416.74 675.11 528.32 734.32 554.21
00004589 00000017 645.54 132.91 354.17 532.87 710.70 334.11 805.92 369.64 657.69 418.59 669.41 529.18 737.13 556.21
00004590 00000018 643.59 131.71 341.36 526.08 701.78 331.53 803.22 366.90 661.51 415.35 664.77 528.96 730.16 555.77
00004591 00000019 640.07 135.34 352.03 526.41 700.75 331.15 801.63 367.34 660.94 415.35 654.38 530.36 718.70 557.60
00004592 00000020 636.40 139.69 369.62 534.48 699.28 337.72 804.94 370.86 666.58 419.63 653.53 538.33 717.24 564.62
00004593 00000021 636.74 138.49 375.46 531.05 698.83 338.20 806.78 367.80 671.31 417.15 653.07 539.04 716.62 562.53
00004594 00000022 636.99 136.30 377.59 536.24 703.45 340.64 810.02 372.81 673.65 419.64 654.98 539.57 717.41 565.49
00004595 DELETE   644.46 140.66 375.26 525.16 708.83 348.27 810.23 373.67 674.30 423.91 662.99 537.62 730.10 558.77
00004596 00000024 657.23 164.00 343.17 471.17 710.12 329.15 823.42 383.02 688.38 429.99 668.17 510.10 739.56 548.48
00004597 00000025 652.25 154.39 351.95 531.46 726.27 347.69 833.60 386.83 704.46 446.73 684.44 543.31 762.03 575.21
00004598 00000026 671.59 149.15 341.44 541.69 705.05 346.78 835.61 386.50 689.53 440.68 675.51 547.51 769.24 579.80
00004599 00000027 669.08 147.81 342.46 533.19 704.03 343.21 834.66 386.41 687.70 441.01 673.45 541.97 768.83 577.07
00004600 00000028 660.37 146.89 345.64 524.74 697.40 339.95 831.39 382.43 683.94 437.49 665.98 536.28 761.42 570.91
00004601 DELETE   654.85 146.19 349.31 533.97 694.36 340.23 827.81 380.64 679.87 437.11 664.44 542.33 755.94 575.36
00004602 00000030 652.35 154.34 343.62 539.80 691.69 340.79 824.74 380.37 676.63 438.12 664.32 549.77 755.07 581.68
00004603 00000031 648.65 153.32 344.01 536.67 689.78 342.45 818.69 381.28 671.16 438.47 659.85 546.53 746.91 578.02
00004604 00000032 641.53 152.62 351.64 519.71 687.88 336.55 809.26 380.68 666.85 434.71 650.15 535.50 729.24 570.90
00004605 00000033 640.36 153.08 349.89 517.21 687.60 336.26 809.42 377.40 666.66 432.74 649.62 534.52 729.33 567.53
00004606 00000034 641.42 148.95 351.23 516.90 689.98 336.26 807.58 376.34 664.23 430.76 649.96 533.04 726.67 565.19
00004607 00000035 642.40 143.50 347.01 519.50 687.45 336.47 803.68 374.12 662.48 428.64 650.66 531.57 726.65 562.05
00004608 00000036 642.92 145.31 346.91 512.61 687.11 336.54 801.74 370.74 665.02 425.21 650.76 528.27 726.29 556.00
00004609 00000037 643.10 140.48 350.95 520.57 686.51 338.04 800.75 367.95 663.20 424.26 651.96 531.38 726.81 555.53
00004610 00000038 641.37 135.02 349.27 524.02 687.95 336.77 801.13 368.32 663.80 422.88 652.08 528.13 727.45 553.85
00004611 00000039 641.07 134.24 350.32 523.64 690.05 333.89 800.62 366.70 662.02 421.46 652.56 525.48 726.90 551.92
00004612 00000040 639.97 123.61 359.86 536.31 695.18 329.91 799.00 363.16 661.49 417.47 655.19 520.18 728.95 547.03
00004613 00000041 639.07 121.14 361.61 534.88 699.18 328.17 800.05 361.57 661.14 414.57 657.21 516.75 728.49 543.62
00004614 00000042 641.35 128.25 360.29 530.03 700.39 330.54 800.27 361.40 661.02 416.32 658.31 520.77 729.84 545.51
00004615 DELETE   644.91 127.80 355.36 527.00 702.56 332.70 799.90 362.37 663.10 416.39 663.28 521.11 731.56 545.06
00004616 DELETE   651.15 124.78 359.40 531.99 708.38 333.99 815.23 365.31 673.86 414.48 673.19 519.18 748.20 544.66
00004617 DELETE   660.92 125.54 353.94 529.67 716.00 333.47 821.86 362.17 681.77 411.46 682.00 517.35 757.87 540.75
00004618 00000046 667.74 121.12 349.07 534.21 717.67 335.56 823.27 355.48 686.96 406.49 688.28 523.42 764.13 540.08
00004619 00000047 671.41 119.84 347.96 534.50 721.86 332.55 827.35 351.13 690.37 403.30 692.03 522.64 768.48 538.15
00004620 00000048 672.83 118.63 346.94 527.06 724.28 326.71 829.63 346.58 694.82 394.64 692.26 514.67 769.58 531.68
00004621 00000049 674.76 118.17 348.73 524.07 727.46 325.79 829.76 345.20 695.25 391.59 694.35 510.69 769.61 526.90
00004622 00000050 676.58 121.10 345.83 516.95 730.21 323.01 829.21 343.10 695.11 388.43 695.95 506.48 767.44 522.84
00004623 00000051 681.52 119.70 348.96 519.19 737.19 319.41 827.34 337.57 695.45 385.20 701.40 505.10 767.64 519.36
00004624 00000052 688.06 117.26 346.27 530.26 743.22 313.95 832.33 329.46 701.82 378.65 709.14 509.53 775.68 521.45
00004625 00000053 681.86 123.72 348.78 525.35 748.21 316.41 843.78 335.23 699.04 394.31 707.33 512.68 784.27 527.72
00004626 00000054 680.75 123.30 356.84 529.22 748.61 320.50 847.33 338.52 700.11 394.71 708.25 513.57 787.75 527.59
00004627 00000055 681.57 121.96 356.10 528.90 752.04 318.53 852.23 340.00 703.51 394.71 708.90 510.83 790.49 527.95
00004628 00000056 683.61 122.36 356.64 524.87 754.49 318.87 856.01 342.40 709.42 393.81 710.37 505.97 793.93 525.07
00004629 00000057 683.85 121.27 359.28 528.34 753.92 320.80 855.81 341.44 709.47 393.01 711.02 508.20 794.15 524.87
00004630 00000058 684.36 119.50 353.91 535.55 755.47 318.24 856.05 338.78 708.85 392.32 714.40 511.18 795.34 527.44
00004631 00000059 682.31 119.42 359.57 548.26 755.11 318.73 855.91 336.78 707.16 392.84 715.36 517.72 796.37 531.60
00004632 00000060 678.37 122.39 363.68 544.34 752.77 320.45 851.29 337.94 701.10 395.29 709.45 518.44 789.49 531.78
00004633 00000061 677.90 122.04 361.52 540.42 749.90 323.02 847.99 341.12 699.57 397.87 705.94 518.27 784.53 532.25
00004634 00000062 678.74 121.66 360.08 533.95 746.79 323.73 844.36 340.40 697.88 398.24 702.73 517.10 781.10 530.26
00004635 00000063 676.70 120.25 362.03 537.79 745.50 326.42 842.74 341.59 694.93 398.44 700.07 519.44 776.60 531.58
00004636 00000064 675.93 122.51 363.76 537.35 742.55 326.42 842.88 342.38 693.93 400.33 697.79 520.74 775.88 533.61
00004637 00000065 673.95 121.49 363.29 539.54 738.88 328.82 842.04 344.39 693.36 402.09 697.65 522.78 777.65 535.63
00004638 00000066 673.13 120.57 362.82 540.31 738.66 328.61 841.58 343.84 691.72 402.62 695.36 524.08 774.62 536.97
00004639 00000067 670.91 123.87 358.70 538.45 737.04 328.88 840.40 346.30 692.26 405.02 694.32 524.39 776.35 539.43
00004640 00000068 675.57 116.54 356.48 545.31 714.36 331.11 831.97 349.00 692.50 407.94 684.13 527.45 772.64 543.02
00004641 00000069 672.94 116.20 356.93 545.50 711.58 329.42 830.09 351.20 688.14 409.20 681.99 524.48 772.49 543.10
00004642 00000070 671.34 115.52 355.84 546.75 710.27 330.86 829.17 352.49 686.81 410.20 681.23 525.47 771.11 543.97
00004643 00000071 670.97 116.43 363.67 551.80 712.44 332.23 830.50 354.62 686.45 411.24 682.32 526.31 771.39 545.41
00004644 00000072 674.62 119.12 361.26 559.83 713.87 336.02 829.53 354.11 685.97 413.03 684.22 537.19 767.58 552.44
00004645 00000073 676.26 116.59 359.27 560.29 714.44 333.43 828.22 353.29 684.67 411.04 683.11 536.14 764.24 552.83
00004646 00000074 677.04 120.57 349.06 547.21 713.80 330.44 827.73 352.88 683.85 409.55 681.01 535.22 760.70 553.64
00004647 00000075 678.16 118.24 348.61 543.08 714.37 332.39 826.37 352.51 684.63 409.30 682.15 535.54 759.97 552.22
00004648 00000076 667.29 114.54 361.86 569.20 707.56 333.84 831.31 355.57 679.49 411.53 675.33 541.29 762.02 559.47
00004649 00000077 664.05 116.42 358.25 552.42 704.58 335.49 829.80 355.77 680.53 411.18 671.20 537.91 757.38 555.18
00004650 00000078 660.60 117.38 359.52 546.91 699.90 334.01 826.32 354.66 678.79 411.94 668.22 535.14 757.14 553.13
00004651 00000079 655.62 107.29 365.56 562.82 694.52 331.92 823.34 354.95 674.94 413.59 664.67 536.15 752.63 555.75
00004652 00000080 654.36 125.76 348.99 551.01 688.84 334.75 818.67 355.97 664.56 417.85 667.33 535.50 766.09 552.83
00004653 00000081 638.99 127.93 364.85 528.90 704.41 349.42 819.03 355.67 674.80 414.71 660.76 548.79 745.77 557.15
00004654 00000082 652.55 121.21 360.41 555.45 687.34 343.09 821.61 361.31 671.10 420.21 664.15 547.19 755.58 562.25
00004655 00000083 659.61 129.75 357.07 516.56 698.67 352.25 816.33 355.53 679.89 418.64 668.97 549.47 751.20 553.22
00004656 00000084 669.31 129.19 384.94 581.36 711.78 343.01 838.18 348.64 682.50 427.67 701.28 561.47 803.20 564.33
00004657 00000085 668.87 118.88 383.42 588.19 704.68 342.58 838.99 352.86 685.76 420.37 691.21 549.12 799.94 557.88
00004658 00000086 667.26 119.42 361.17 535.13 704.65 339.79 828.32 349.98 693.46 411.73 678.60 536.92 769.21 546.99
00004659 DELETE   661.50 114.66 352.76 523.87 703.97 331.90 822.87 347.12 685.25 402.63 671.34 515.72 749.31 530.45
00004660 00000088 634.17 123.29 365.99 530.74 694.87 308.57 818.68 331.71 660.72 395.20 649.30 517.75 747.44 539.48
00004661 DELETE   620.02 118.99 372.43 525.23 697.52 302.19 808.58 334.20 655.28 391.66 636.07 496.99 722.76 524.90
00004662 00000090 629.19 123.01 360.37 485.11 709.27 316.50 798.43 335.13 653.43 392.91 647.09 494.85 703.58 508.04
00004663 00000091 630.22 119.93 383.73 516.35 706.66 329.12 793.95 329.57 649.44 387.90 649.20 515.41 713.12 514.47
00004664 00000092 624.15 103.10 371.95 535.65 705.45 312.70 809.21 328.79 652.59 377.22 648.21 499.39 726.67 511.90
00004665 00000093 625.69 98.06 376.03 544.49 700.54 308.28 810.54 313.39 666.20 368.88 654.90 502.03 741.27 510.03
00004666 00000094 637.88 94.33 375.31 527.78 714.06 292.07 819.14 301.82 678.00 342.03 658.92 484.02 730.83 490.52
00004667 00000095 636.77 93.98 379.71 526.47 717.82 288.16 824.73 294.81 677.78 336.56 656.68 479.54 731.41 483.64
00004668 00000096 637.06 102.58 389.87 524.21 719.34 292.09 827.29 299.86 680.27 341.69 657.58 481.08 735.21 485.82
00004669 00000097 623.59 102.90 396.43 546.18 709.79 310.05 818.92 315.83 667.32 369.06 654.62 503.47 738.04 510.89
00004670 DELETE   622.08 102.50 390.71 556.79 704.52 315.37 816.90 332.62 659.05 378.38 650.15 511.67 731.22 525.09
00004671 00000099 619.56 100.89 383.46 563.68 693.03 323.73 809.60 340.46 651.95 388.31 643.92 519.51 725.64 532.88
00004672 00000100 614.02 108.97 381.78 549.53 687.83 329.55 804.93 344.40 644.66 392.47 633.72 520.15 722.03 532.00
00004673 00000101 613.07 108.11 385.79 548.08 691.09 328.52 805.55 343.13 644.65 391.12 634.89 517.58 722.04 529.18
00004674 00000102 612.34 104.46 381.45 544.44 692.64 324.38 806.72 346.08 647.98 389.69 635.78 509.72 721.83 527.12
00004675 00000103 610.28 103.68 387.93 548.17 695.28 324.41 806.92 345.62 645.71 389.19 635.27 510.57 719.37 527.23
00004676 00000104 616.39 105.86 385.86 557.06 694.40 326.76 805.22 344.08 642.40 395.20 638.06 520.79 721.22 534.37
00004677 00000105 626.66 105.37 375.95 566.97 690.10 327.89 802.70 342.21 645.90 400.01 643.32 530.25 722.10 540.90
00004678 00000106 629.70 109.67 371.45 564.96 686.35 326.46 805.10 343.06 646.76 402.78 643.41 529.96 730.40 542.70
00004679 00000107 630.01 115.20 368.55 559.21 684.94 328.71 806.31 344.14 647.80 404.11 644.18 532.04 733.86 543.97
00004680 00000108 633.32 114.20 375.62 578.00 685.98 339.97 804.26 351.29 649.55 412.65 652.19 545.15 739.72 554.34
00004681 00000109 636.66 119.86 377.03 584.73 690.05 343.69 805.04 357.21 652.29 419.06 656.53 552.01 742.72 563.25
00004682 00000110 637.85 123.42 376.23 591.49 688.51 347.35 805.87 358.28 653.00 422.61 659.54 559.39 748.65 568.48
00004683 00000111 635.47 124.64 374.73 592.12 687.74 344.73 808.54 355.66 651.79 419.31 656.09 559.43 748.41 568.46
00004684 00000112 637.67 121.28 377.87 592.57 690.20 337.56 815.30 353.51 654.83 416.00 656.56 552.28 753.01 565.37
00004685 00000113 637.95 123.55 379.90 587.93 693.83 339.31 816.87 353.78 656.46 416.58 657.03 551.07 753.10 563.06
00004686 00000114 640.08 125.60 376.03 578.93 694.70 341.46 817.62 357.29 657.91 418.12 657.15 549.58 752.46 562.52
00004687 00000115 643.02 131.04 371.51 567.39 695.07 344.68 815.74 359.21 661.95 419.37 657.67 550.35 747.64 562.27
00004688 00000116 648.04 137.23 365.93 559.91 695.46 345.35 816.15 363.56 662.29 424.81 659.80 552.26 749.83 566.58
00004689 00000117 649.06 139.50 370.08 559.01 697.33 348.04 818.63 366.23 665.65 426.50 662.23 552.96 752.90 567.41
00004690 00000118 649.62 140.37 374.61 557.71 700.25 347.94 820.55 365.21 666.89 425.13 662.87 552.97 753.47 566.71
00004691 00000119 657.78 136.40 377.38 554.34 711.70 344.13 825.37 360.95 671.02 422.78 672.99 551.45 761.12 565.08
00004692 00000120 659.77 136.11 383.22 561.65 714.70 346.49 827.32 361.79 672.08 424.48 678.69 556.82 765.23 569.47
00004693 00000121 661.13 136.16 378.31 562.02 716.31 345.02 827.48 362.09 674.30 425.07 682.00 556.31 766.43 570.50
00004694 00000122 661.56 136.80 379.94 564.29 716.84 345.09 828.33 359.92 674.51 426.23 685.50 558.78 770.87 571.30
00004695 00000123 661.14 137.19 380.89 565.82 717.77 345.12 829.42 358.29 675.87 425.40 688.43 560.30 773.52 571.43
00004696 00000124 664.44 129.72 368.30 567.55 710.28 351.07 823.91 361.88 676.16 422.80 678.23 554.27 762.37 563.19
00004697 00000125 664.86 129.78 369.37 566.39 710.81 351.29 825.45 362.74 676.56 423.16 677.01 553.82 762.52 563.36
00004698 00000126 663.51 130.99 370.67 563.07 711.01 350.76 826.46 362.99 676.34 422.49 675.16 552.35 760.94 562.49
00004699 00000127 662.42 130.87 372.05 558.45 711.39 349.22 826.63 363.65 675.88 422.18 672.99 549.42 757.50 561.23
00004700 00000128 662.46 130.44 375.26 559.72 706.98 351.51 824.09 364.98 675.33 425.27 670.33 552.49 755.88 563.73
00004701 00000129 660.70 130.29 372.28 554.85 705.54 348.27 825.74 363.96 674.35 423.77 668.84 547.75 757.53 560.74
00004702 00000130 663.99 130.98 371.37 560.48 706.77 350.42 824.11 363.94 674.14 425.50 671.95 553.31 758.10 564.38
00004703 00000131 666.91 126.66 374.15 571.64 710.27 351.75 822.77 363.39 675.60 428.05 676.42 558.36 758.45 567.93
00004704 00000132 675.71 126.19 371.87 587.04 717.52 353.34 823.98 363.93 678.77 431.76 690.43 565.51 770.20 573.80
00004705 00000133 676.82 127.32 368.71 586.04 716.17 355.29 826.73 368.61 679.18 433.95 689.60 564.42 774.77 574.82
00004706 00000134 678.99 134.91 368.52 572.34 715.50 358.17 827.87 373.82 679.24 437.63 688.54 563.76 774.83 575.69
00004707 00000135 674.19 138.52 374.19 567.05 718.05 362.32 835.82 376.10 688.83 444.15 697.90 566.42 785.44 577.78
00004708 00000136 679.10 145.43 371.90 561.18 726.85 360.54 841.69 377.55 692.39 443.87 700.32 567.64 792.19 581.98
00004709 00000137 680.47 143.54 377.38 567.56 730.97 362.15 846.39 376.60 693.89 442.58 700.40 569.61 793.21 581.83
00004710 00000138 680.88 143.48 369.55 564.95 728.40 361.71 851.14 376.32 697.81 441.26 697.56 568.86 796.23 581.96
00004711 00000139 681.81 144.84 373.71 562.50 730.42 361.56 855.19 377.78 702.62 441.60 699.83 568.16 798.43 583.02
00004712 00000140 685.54 149.07 379.44 556.61 733.63 365.76 860.05 380.89 707.66 444.08 702.41 569.00 803.35 583.62
00004713 00000141 688.20 149.91 377.50 553.38 734.34 371.42 861.42 383.24 712.22 445.65 705.75 570.75 806.43 583.14
00004714 00000142 688.00 151.11 376.22 553.18 734.76 373.73 860.42 384.19 711.03 446.96 704.69 573.28 803.66 584.82
00004715 00000143 688.79 152.83 374.79 549.45 737.58 374.22 862.00 387.28 713.15 448.00 705.01 572.72 802.97 586.04
00004716 00000144 685.30 149.53 382.82 562.66 737.67 378.90 863.87 394.51 712.36 452.04 703.27 578.75 802.02 594.59
00004717 00000145 685.32 155.01 382.79 558.82 736.16 384.24 869.91 398.85 718.89 453.72 704.26 581.74 808.30 597.18
00004718 00000146 686.42 151.25 385.07 564.39 735.81 385.35 870.69 399.55 719.18 454.66 703.63 584.19 809.02 599.03
00004719 00000147 687.80 145.89 387.43 572.16 734.91 381.69 870.60 396.90 713.61 455.23 702.06 587.38 806.49 602.94
00004720 00000148 689.34 150.66 382.64 571.61 736.42 384.87 873.60 393.35 721.20 458.25 709.24 590.70 812.39 601.68
00004721 00000149 691.08 153.60 384.31 565.27 733.54 385.14 877.83 394.07 719.79 462.90 706.40 594.40 815.43 605.41
00004722 00000150 693.19 151.79 385.96 560.68 733.05 385.61 879.53 394.12 719.52 465.88 706.24 600.23 812.68 611.14
00004723 00000151 691.29 147.10 395.87 608.79 735.90 378.48 877.04 382.42 719.38 468.72 722.83 613.57 822.80 618.66
00004724 00000152 694.15 140.72 389.84 592.10 733.16 382.56 875.26 383.14 723.25 455.34 716.70 588.89 829.65 592.35
00004725 00000153 694.00 140.56 384.85 578.68 732.08 374.85 872.23 379.41 720.04 451.57 717.01 577.17 829.16 585.04
00004726 00000154 692.79 137.36 386.24 571.74 733.20 367.72 872.85 374.20 717.60 446.05 714.21 569.70 826.07 578.42
00004727 00000155 693.84 136.59 383.40 572.68 734.21 362.93 874.32 365.40 721.46 443.28 717.68 570.28 826.78 576.15
00004728 00000156 695.46 142.91 378.87 566.27 734.79 364.63 878.24 370.28 725.27 448.07 717.56 573.11 828.10 581.50
00004729 00000157 693.49 144.04 382.53 569.21 736.08 367.37 878.29 371.96 725.52 447.90 715.66 576.50 824.77 584.15
00004730 00000158 692.73 143.91 382.93 578.46 734.72 371.47 878.27 373.98 725.03 449.04 713.16 583.79 826.40 589.62
00004731 00000159 685.93 142.03 395.96 596.80 730.63 376.71 875.75 378.65 718.50 454.74 710.54 595.40 824.50 599.95
00004732 00000160 683.50 142.29 395.08 586.17 727.03 386.06 873.64 383.45 715.52 452.51 704.30 596.79 816.50 597.81
00004733 00000161 680.55 136.03 394.82 595.74 724.33 386.22 863.71 386.10 707.52 451.39 702.00 592.20 815.12 594.30
00004734 00000162 681.90 133.70 392.22 593.96 728.24 378.15 864.78 379.36 712.68 447.20 706.26 584.94 815.25 588.22
00004735 00000163 685.47 131.29 378.97 594.15 726.18 373.02 866.88 375.24 710.91 445.53 706.14 582.82 820.16 587.25
00004736 00000164 689.79 121.14 384.07 591.08 732.17 362.41 873.67 363.77 716.49 435.63 711.31 570.08 825.25 573.78
00004737 00000165 690.82 122.90 373.15 578.08 730.80 360.88 874.05 364.76 718.42 433.12 710.28 563.09 823.69 570.16
00004738 00000166 690.89 120.71 385.34 582.27 736.10 362.64 872.24 364.07 716.73 432.02 712.31 564.10 822.69 567.78
00004739 00000167 690.16 122.60 382.92 586.23 735.74 363.21 869.75 365.11 712.65 431.94 711.20 566.36 821.34 570.25
00004740 00000168 684.47 129.95 381.43 579.35 731.79 364.12 859.57 370.91 704.41 434.84 702.09 566.32 805.57 574.16
00004741 00000169 683.77 133.82 381.86 577.39 726.87 364.57 854.85 376.63 696.40 441.84 696.66 571.43 797.70 583.79
00004742 00000170 684.77 142.66 371.03 565.23 725.97 364.83 855.93 382.07 699.24 445.38 694.34 569.85 795.41 586.65
