Video ID: 	65qIgbRmzqE
H: 	1080
W: 	1920
FPS: 	29.97002997002997

FRAME INDEX X0 Y0 W H [Landmarks (5 Points)]

00005983 00000000 854.81 312.44 402.60 599.16 993.45 559.15 1162.29 571.83 1084.42 714.08 1004.73 781.33 1117.79 792.39
00005984 DELETE   859.70 308.36 401.41 596.07 996.66 554.47 1164.61 565.96 1089.16 707.90 1008.36 773.93 1124.52 783.72
00005985 00000002 866.08 306.53 398.88 600.38 1003.07 551.75 1169.33 559.10 1097.86 704.77 1018.71 772.35 1138.90 777.93
00005986 00000003 869.19 306.88 397.82 593.55 1007.35 548.12 1174.57 553.64 1105.34 701.78 1024.65 770.41 1143.75 774.42
00005987 00000004 871.72 306.37 397.11 589.98 1013.56 545.38 1180.86 551.23 1114.37 698.81 1030.48 768.16 1149.81 772.30
00005988 00000005 872.76 305.64 397.67 598.49 1020.90 543.89 1184.33 548.48 1123.28 696.30 1035.91 767.91 1153.70 770.69
00005989 00000006 874.62 303.33 395.35 593.74 1022.41 542.47 1187.99 542.37 1128.90 694.67 1041.02 767.44 1158.84 766.38
00005990 00000007 873.71 300.43 394.37 595.95 1025.93 537.40 1189.16 538.30 1131.76 691.46 1040.29 761.24 1160.47 761.17
00005991 00000008 871.34 293.96 398.13 603.01 1025.47 532.87 1190.76 534.34 1131.00 688.59 1037.50 757.60 1161.83 757.87
00005992 00000009 867.92 291.03 399.54 610.38 1024.51 528.60 1190.10 533.06 1128.64 682.89 1032.53 753.48 1160.66 756.02
00005993 00000010 866.95 287.19 398.30 611.99 1021.13 521.47 1186.07 529.70 1124.22 671.00 1029.00 748.95 1153.66 754.25
00005994 DELETE   864.41 289.44 395.68 603.82 1017.92 514.37 1185.61 525.41 1120.83 662.08 1021.81 738.86 1152.73 746.41
00005995 00000012 862.58 281.63 395.60 614.36 1014.92 506.64 1184.64 520.87 1116.47 659.31 1016.25 736.33 1146.66 746.14
00005996 00000013 865.66 277.02 390.30 615.49 1014.50 502.61 1179.38 515.58 1112.05 656.55 1013.62 730.18 1142.89 739.36
00005997 00000014 864.51 276.06 390.27 616.02 1012.91 497.82 1176.89 511.43 1108.55 649.04 1011.95 724.35 1140.11 734.02
00005998 00000015 864.07 275.57 388.81 609.50 1009.95 493.21 1173.81 506.33 1105.98 642.89 1010.80 720.68 1135.22 730.10
00005999 00000016 862.73 270.11 388.76 612.49 1006.83 488.07 1172.33 500.73 1103.75 639.57 1009.18 718.34 1132.58 727.35
00006000 00000017 860.88 268.99 389.83 607.98 1001.88 482.14 1168.91 495.33 1099.00 633.13 1007.02 715.82 1125.65 725.05
00006001 00000018 859.29 263.60 389.66 616.57 998.75 476.75 1168.32 490.94 1096.10 629.28 1001.72 713.26 1124.38 723.10
00006002 00000019 853.85 260.93 392.34 620.82 993.84 475.49 1163.39 489.67 1092.39 626.72 995.93 713.33 1119.78 722.93
00006003 00000020 851.36 260.57 387.86 621.15 989.66 473.93 1159.57 489.93 1087.33 626.44 991.29 712.12 1115.18 723.31
00006004 00000021 845.32 259.52 389.59 616.66 981.93 473.11 1155.63 486.67 1083.48 626.77 987.95 711.41 1110.05 720.86
00006005 00000022 840.89 258.01 390.03 618.40 976.06 471.74 1151.46 484.70 1081.49 622.67 985.60 711.00 1108.79 720.38
00006006 00000023 839.05 253.71 385.93 616.99 970.40 470.42 1145.56 482.71 1077.51 618.84 984.22 708.49 1107.22 717.59
00006007 00000024 830.66 240.90 390.42 625.32 967.59 468.60 1138.17 480.00 1079.35 616.43 984.21 702.30 1122.43 712.68
00006008 00000025 828.60 234.40 387.48 624.55 966.10 465.42 1132.32 478.10 1075.39 613.03 982.86 697.31 1115.12 708.87
00006009 00000026 828.18 235.59 381.87 613.02 961.84 459.54 1129.84 473.19 1070.95 608.70 978.25 692.48 1107.73 704.92
00006010 00000027 826.34 232.67 380.14 612.83 957.59 457.87 1126.55 471.18 1066.69 607.55 972.40 690.36 1100.66 702.81
00006011 00000028 821.30 232.52 384.22 606.78 951.61 456.97 1122.85 470.80 1059.67 606.82 967.16 686.05 1093.64 699.45
00006012 00000029 816.33 228.91 386.25 607.78 947.56 456.42 1117.93 471.22 1052.54 603.15 962.32 683.83 1087.54 698.41
00006013 00000030 810.55 230.26 388.34 605.89 945.73 461.50 1113.87 467.79 1046.18 602.66 964.51 691.16 1092.00 694.98
00006014 00000031 808.43 230.91 384.17 597.67 940.81 461.43 1108.41 466.32 1041.13 603.24 961.41 689.56 1087.05 692.22
00006015 00000032 806.43 230.38 384.67 604.96 941.97 459.67 1107.30 465.11 1040.74 602.05 960.19 689.55 1086.88 692.33
00006016 00000033 806.37 230.59 381.71 603.74 943.17 459.05 1103.75 466.03 1039.45 599.12 961.21 687.97 1082.77 692.13
00006017 00000034 807.07 230.76 380.21 606.09 944.42 459.48 1102.82 466.21 1038.83 601.49 960.68 687.29 1082.17 691.18
00006018 00000035 807.26 233.09 377.80 604.22 943.89 459.11 1102.02 465.40 1039.17 601.40 960.60 687.22 1082.80 690.75
00006019 00000036 807.73 232.87 374.59 602.93 943.21 459.26 1100.54 464.76 1038.74 602.20 961.66 688.37 1081.49 691.21
00006020 00000037 807.70 236.29 373.72 594.62 941.23 460.52 1098.78 465.13 1037.39 604.59 963.15 689.07 1079.58 691.37
00006021 00000038 808.23 235.02 372.57 593.27 941.01 463.71 1097.49 467.33 1037.58 608.71 964.53 689.63 1079.97 691.22
00006022 00000039 810.00 236.54 371.14 592.21 939.22 467.21 1098.86 468.65 1037.32 612.30 967.26 694.99 1082.54 694.77
00006023 00000040 809.04 241.74 370.43 585.08 937.90 469.83 1096.01 469.56 1034.52 617.36 966.15 692.63 1080.89 691.27
00006024 00000041 825.50 241.25 354.84 562.86 934.06 475.69 1094.66 474.37 1031.21 627.68 973.51 697.26 1076.69 696.73
00006025 DELETE   816.13 243.16 363.90 553.55 935.05 475.57 1098.92 476.02 1032.73 632.83 973.98 698.20 1078.21 698.87
00006026 DELETE   807.62 250.97 371.98 542.93 933.18 477.61 1099.12 476.15 1033.42 626.69 971.18 694.59 1079.85 693.75
00006027 00000044 807.69 256.57 375.29 548.87 932.14 479.86 1102.35 479.83 1034.48 627.68 966.99 696.25 1081.94 696.55
00006028 00000045 818.52 259.89 368.27 558.67 932.96 484.58 1101.28 485.00 1032.73 638.91 974.07 709.37 1081.96 710.27
00006029 00000046 825.38 260.76 367.13 565.18 940.41 490.63 1105.31 490.22 1038.18 638.79 979.56 713.41 1083.27 713.40
00006030 00000047 815.72 254.09 377.04 580.06 937.62 487.27 1108.69 486.07 1043.83 628.89 965.86 713.76 1080.26 712.80
00006031 00000048 815.40 252.02 380.68 584.04 936.72 484.29 1111.95 484.30 1045.09 629.26 963.41 712.04 1083.07 711.97
00006032 00000049 823.36 247.26 370.53 577.48 944.67 471.75 1114.32 483.63 1047.92 620.08 972.39 697.28 1087.86 709.49
00006033 00000050 823.91 245.90 375.66 568.42 942.85 477.93 1114.49 479.08 1043.96 630.91 978.19 706.36 1092.12 706.90
00006034 00000051 821.07 244.54 377.65 570.78 944.87 476.56 1116.00 477.32 1048.36 625.35 976.81 703.02 1094.52 703.01
00006035 00000052 821.86 239.40 378.66 601.13 945.22 465.84 1118.11 477.51 1051.16 611.35 962.85 690.74 1093.74 702.59
00006036 00000053 816.31 246.81 387.04 613.52 946.77 469.32 1123.45 470.89 1054.87 609.56 960.25 700.50 1097.02 700.87
00006037 00000054 821.72 236.45 382.01 615.25 944.98 462.81 1116.91 476.02 1051.57 607.64 957.86 689.20 1092.48 702.61
00006038 00000055 811.57 242.98 393.89 618.78 943.78 465.37 1121.60 470.58 1051.71 605.52 956.25 698.25 1092.39 701.43
00006039 00000056 809.89 246.21 396.48 620.48 943.02 467.16 1121.85 473.43 1050.70 609.68 954.67 701.49 1092.51 705.64
00006040 00000057 806.10 249.76 400.11 628.83 942.41 469.12 1121.39 477.14 1048.03 613.83 952.03 705.78 1091.52 711.09
00006041 00000058 804.03 252.02 400.19 627.84 940.97 474.14 1118.93 481.77 1046.41 619.96 951.58 710.76 1089.16 715.45
00006042 00000059 801.54 258.06 398.66 618.78 937.20 476.82 1113.89 485.68 1041.49 624.05 949.51 714.18 1080.30 719.74
00006043 00000060 796.04 262.33 400.11 619.18 936.18 481.97 1108.36 491.51 1038.34 627.60 947.12 718.48 1071.71 724.56
00006044 00000061 791.20 261.40 401.83 626.17 929.50 487.87 1104.36 498.88 1029.63 632.47 940.03 725.01 1064.63 732.16
00006045 00000062 785.77 268.76 400.18 620.41 920.39 493.96 1097.31 503.26 1022.40 640.49 932.03 731.63 1058.79 737.43
00006046 DELETE   778.41 270.93 396.31 622.92 909.14 498.42 1089.01 507.94 1012.30 644.68 924.54 736.43 1054.87 742.28
00006047 DELETE   769.96 274.23 395.50 622.24 896.65 501.23 1074.79 512.26 997.63 652.47 911.77 740.84 1041.42 748.79
00006048 DELETE   759.16 278.55 394.96 613.70 881.83 507.70 1068.47 518.56 987.22 665.67 901.91 747.98 1032.82 756.61
00006049 00000066 748.96 278.73 398.87 618.67 868.56 517.34 1056.03 524.72 977.79 674.76 894.93 756.02 1026.29 762.87
00006050 DELETE   734.34 286.25 402.96 613.35 856.95 531.31 1042.91 529.08 962.48 682.46 890.42 769.82 1025.54 765.69
00006051 00000068 724.38 287.47 406.61 624.18 847.62 532.25 1032.51 528.45 954.58 685.49 885.76 778.78 1016.38 773.24
00006052 00000069 717.22 290.87 409.83 630.33 837.56 536.77 1023.74 529.76 947.16 690.78 882.34 790.22 1010.91 782.21
00006053 00000070 709.54 292.20 412.77 641.33 837.21 537.18 1016.73 533.47 941.45 690.76 879.66 791.91 1003.18 786.78
00006054 00000071 704.75 300.46 410.27 636.88 832.74 544.25 1011.36 541.18 935.94 699.99 875.21 796.25 999.49 791.62
00006055 DELETE   699.17 302.90 411.09 633.22 822.33 548.97 1009.01 542.40 934.19 707.20 868.55 800.37 999.71 793.52
00006056 00000073 695.19 305.18 412.23 641.27 819.94 551.95 1005.10 545.30 932.86 710.68 865.73 804.87 998.30 798.37
00006057 DELETE   688.63 306.07 413.85 643.29 813.14 554.88 1001.27 549.19 929.06 710.94 856.50 804.07 995.41 799.18
00006058 00000075 681.80 305.54 417.78 657.60 808.63 559.32 996.11 552.56 926.50 715.39 849.05 803.84 993.21 798.45
00006059 DELETE   676.00 311.55 419.22 655.18 801.34 570.10 989.30 560.11 920.95 722.23 841.40 806.36 991.05 799.15
00006060 00000077 668.71 316.10 424.06 659.82 794.62 578.94 986.99 568.14 916.66 730.96 832.61 811.15 988.70 803.78
00006061 00000078 665.74 326.31 426.70 653.82 792.23 586.24 987.87 575.30 914.23 739.70 828.54 816.70 986.89 809.55
00006062 00000079 663.04 331.90 428.96 653.00 790.79 589.75 988.98 579.47 913.41 746.84 824.29 821.78 983.36 815.40
00006063 00000080 661.42 331.97 428.03 650.41 788.25 591.99 989.00 581.56 911.82 753.10 821.83 824.40 981.77 818.02
00006064 00000081 659.98 329.01 428.41 660.69 784.49 595.72 985.65 584.14 908.03 759.16 819.82 825.61 984.54 817.84
00006065 00000082 657.54 330.87 426.86 650.77 781.47 598.06 982.92 587.82 905.18 759.58 815.50 826.97 977.08 820.63
00006066 00000083 657.40 331.48 424.96 655.39 778.66 601.27 981.94 590.22 903.44 764.17 813.28 829.36 979.88 821.86
00006067 00000084 654.49 331.89 426.98 665.16 774.08 606.18 982.81 596.14 900.80 772.58 809.44 840.91 976.89 834.39
00006068 00000085 652.31 330.23 427.59 666.25 766.43 611.07 978.65 602.60 892.83 777.16 805.91 854.42 961.48 849.41
00006069 00000086 652.51 329.28 427.67 670.32 758.64 612.22 975.31 602.97 884.91 785.46 805.24 861.46 965.03 855.48
00006070 00000087 637.50 334.50 436.41 661.97 764.18 621.57 969.40 608.35 883.67 783.48 813.30 870.29 960.96 857.26
00006071 00000088 635.80 338.23 435.22 656.99 763.02 629.83 967.93 618.23 881.02 792.83 810.15 874.32 958.07 863.10
00006072 DELETE   636.26 348.35 436.12 646.03 766.04 645.99 970.51 634.18 883.80 804.54 812.69 885.82 953.62 875.46
00006073 DELETE   640.83 342.61 446.15 663.16 760.24 654.57 980.93 644.20 891.17 820.89 806.43 898.43 964.39 891.46
00006074 00000091 642.32 346.26 444.29 667.97 755.91 655.55 979.08 645.67 885.76 829.93 803.88 905.33 962.12 898.64
00006075 00000092 646.48 350.67 440.38 663.92 756.42 655.46 977.42 646.36 883.70 835.03 804.32 909.47 959.34 903.36
00006076 00000093 645.26 356.11 441.55 659.39 753.48 657.43 978.37 646.44 881.98 837.86 801.26 910.19 963.26 902.48
00006077 00000094 646.63 359.69 441.00 660.68 752.83 659.57 977.97 647.61 881.14 844.74 802.95 913.99 965.81 905.45
00006078 00000095 647.94 361.16 440.50 665.35 754.59 660.34 977.72 648.29 882.59 844.27 803.81 914.48 967.47 905.89
00006079 00000096 648.34 361.41 441.76 669.38 756.22 660.42 977.99 648.23 883.47 844.19 805.64 915.36 968.96 906.64
00006080 00000097 650.97 359.85 442.65 667.82 754.08 662.80 979.94 650.75 882.97 850.12 804.20 918.05 969.10 909.42
00006081 00000098 652.92 363.40 444.18 663.96 758.73 664.70 983.98 653.00 887.05 852.12 808.42 918.11 971.67 909.85
00006082 00000099 656.58 362.02 444.08 667.03 762.26 666.17 986.98 654.38 889.90 853.93 812.18 919.68 974.88 911.10
00006083 00000100 661.11 365.41 445.39 661.38 766.94 666.28 990.72 655.04 894.49 855.15 818.10 921.56 977.70 913.44
00006084 00000101 661.82 365.65 448.83 659.35 773.46 665.69 995.99 654.03 902.42 852.89 825.62 919.82 983.32 911.60
00006085 00000102 662.82 366.82 450.51 662.27 776.20 664.02 999.95 650.51 908.80 850.92 827.92 921.21 986.58 911.78
00006086 00000103 665.04 363.60 448.92 660.92 778.21 660.08 1001.99 647.32 911.35 846.37 830.37 918.46 987.49 909.75
00006087 00000104 664.14 360.58 449.60 665.16 779.82 657.87 1002.05 643.69 914.02 840.76 831.82 916.30 989.12 906.57
00006088 00000105 663.41 357.09 449.36 667.34 779.15 655.73 1001.63 641.27 913.90 837.20 831.81 914.23 989.54 904.27
00006089 00000106 662.93 359.50 448.44 662.45 780.71 653.04 1001.64 639.80 913.97 832.98 832.64 909.91 988.88 901.05
00006090 00000107 664.26 358.29 447.02 664.58 783.60 650.68 1001.88 638.19 915.15 830.91 832.98 906.46 988.62 898.20
00006091 00000108 667.83 355.95 445.84 664.70 788.35 647.37 1002.29 635.54 917.49 826.94 836.71 903.35 988.34 895.68
00006092 00000109 669.06 351.51 443.31 666.98 791.81 639.79 1004.67 630.49 919.96 817.04 841.68 898.68 988.90 892.73
00006093 00000110 673.60 341.82 439.89 670.00 795.09 633.81 1008.94 627.50 923.28 816.05 848.18 898.56 990.12 894.45
00006094 00000111 673.59 336.82 437.96 674.49 795.72 624.26 1005.83 617.45 927.27 806.79 851.72 894.91 989.09 890.15
00006095 00000112 672.54 334.59 437.33 678.13 796.59 614.95 1006.86 608.33 930.28 797.50 854.23 888.41 990.70 883.57
00006096 00000113 671.36 329.81 437.93 680.35 794.16 611.10 1003.27 600.07 929.60 790.62 855.18 881.88 995.29 872.77
00006097 00000114 670.45 337.11 436.10 661.82 792.78 605.27 999.88 594.65 924.40 782.58 852.48 875.56 991.99 866.72
00006098 00000115 669.84 339.73 434.69 648.51 790.34 603.02 996.65 590.59 918.97 779.60 848.93 869.09 990.73 858.70
00006099 00000116 670.36 339.71 436.18 653.25 788.88 599.77 996.15 586.42 917.63 775.19 848.07 866.82 991.19 855.91
00006100 00000117 670.76 338.53 436.70 650.53 788.15 598.30 994.69 584.33 916.20 775.02 847.66 863.08 990.75 851.67
00006101 00000118 670.93 336.92 435.82 653.66 787.32 597.84 993.91 583.57 914.78 772.91 846.31 860.63 991.37 848.85
00006102 00000119 672.18 336.77 434.13 643.55 787.79 598.46 994.79 584.53 914.59 770.86 843.03 855.55 988.66 844.45
00006103 00000120 673.44 333.85 432.72 646.29 788.65 598.15 994.80 586.61 913.43 768.83 841.61 853.13 984.36 844.52
00006104 00000121 681.69 323.79 434.10 658.95 776.04 599.97 994.30 586.52 898.90 779.21 831.10 861.72 985.51 851.77
00006105 00000122 678.31 323.60 438.95 664.26 772.08 601.23 994.98 586.76 897.42 786.10 827.96 865.36 988.27 854.51
00006106 00000123 678.84 340.89 430.54 650.34 775.47 606.84 991.91 593.84 893.51 786.16 825.59 864.43 980.96 854.69
00006107 00000124 665.56 337.89 444.85 664.30 768.04 620.25 990.09 608.02 894.98 807.27 829.73 890.76 985.36 880.78
00006108 00000125 668.79 351.71 440.71 654.51 765.66 639.35 987.72 627.66 888.24 825.90 824.54 902.66 981.92 893.75
00006109 00000126 674.83 357.47 434.10 665.85 766.79 648.95 986.34 636.27 887.70 835.16 828.81 918.67 978.05 909.50
00006110 00000127 677.68 361.31 435.50 660.35 770.16 649.20 987.93 636.32 890.67 834.62 832.97 921.59 976.75 912.57
00006111 00000128 671.12 352.76 442.76 676.24 765.99 651.03 994.84 629.20 891.17 839.54 829.40 931.69 985.94 913.93
00006112 00000129 676.57 350.57 440.65 674.88 773.82 648.83 1002.67 630.77 900.47 835.35 832.53 925.80 990.85 911.16
CROP_BBOX: 391 0 1514 1080
