Video ID: 	hbtWwtYk-9c
H: 	2160
W: 	3840
FPS: 	24.0

FRAME INDEX X0 Y0 W H [Landmarks (5 Points)]

00040480 00000000 1055.03 225.42 475.27 623.64 1107.12 491.71 1265.02 469.24 1127.89 565.11 1137.13 698.27 1259.07 681.62
00040481 00000001 1037.86 226.26 472.57 617.44 1088.45 494.33 1245.42 468.59 1112.44 577.22 1120.25 706.27 1254.70 688.60
00040482 00000002 1031.07 234.97 470.64 608.49 1081.21 497.93 1236.27 470.67 1102.03 578.05 1111.52 709.91 1245.66 690.29
00040483 00000003 1029.39 235.19 468.91 611.78 1080.36 502.10 1234.27 475.71 1100.01 581.78 1109.21 712.87 1240.40 693.77
00040484 00000004 1027.90 237.64 467.61 612.04 1079.59 507.28 1233.22 481.54 1100.39 587.22 1112.79 715.99 1240.88 697.10
00040485 00000005 1032.28 234.36 465.52 618.73 1086.31 508.42 1238.23 483.11 1109.03 589.34 1118.10 717.78 1241.48 699.55
00040486 00000006 1041.69 231.18 457.38 630.19 1092.56 510.31 1247.86 491.30 1120.16 599.14 1133.48 721.41 1257.30 708.02
00040487 DELETE   1052.80 244.43 460.37 633.11 1107.46 515.91 1273.19 492.64 1148.38 597.43 1148.31 732.26 1278.53 717.95
00040488 DELETE   1063.13 255.05 464.10 620.27 1130.18 526.96 1323.11 504.00 1201.00 614.51 1182.66 740.82 1325.94 722.48
00040489 DELETE   1066.14 266.31 483.94 616.62 1160.10 531.35 1371.63 501.83 1261.05 614.76 1221.06 751.12 1377.32 727.03
00040490 00000010 1081.13 277.14 489.45 610.51 1202.35 527.96 1413.41 496.38 1315.73 609.98 1263.28 747.88 1421.77 720.53
00040491 00000011 1100.40 263.48 487.99 616.44 1238.43 533.50 1446.05 497.96 1359.65 613.07 1303.00 744.92 1460.53 713.87
00040492 00000012 1114.79 256.40 488.57 619.31 1276.45 515.34 1478.47 484.93 1405.79 601.12 1339.34 733.60 1488.23 706.91
00040493 00000013 1131.26 242.55 487.21 623.79 1300.30 509.43 1501.14 483.74 1435.80 599.81 1355.18 722.93 1512.72 699.63
00040494 00000014 1139.81 228.71 484.53 627.13 1319.57 505.48 1515.78 480.58 1456.06 588.44 1370.04 711.86 1528.64 689.45
00040495 00000015 1146.20 216.55 482.21 629.72 1324.98 505.73 1523.08 472.26 1465.86 579.43 1382.31 705.37 1540.42 676.98
00040496 00000016 1153.56 207.01 478.44 635.12 1328.45 497.44 1534.98 466.84 1472.47 568.65 1387.18 700.11 1547.99 674.25
00040497 00000017 1158.27 199.91 475.97 635.74 1334.00 488.52 1541.03 459.60 1478.12 564.50 1395.00 698.57 1551.04 674.10
00040498 00000018 1160.45 206.45 475.66 625.63 1336.80 486.25 1540.94 456.42 1482.89 557.89 1401.99 694.90 1554.58 669.62
00040499 00000019 1157.77 203.19 478.58 629.94 1335.30 476.29 1540.70 448.16 1482.44 551.86 1400.56 691.88 1552.34 668.07
00040500 00000020 1157.29 202.14 479.97 633.51 1336.01 467.84 1539.99 441.46 1482.70 547.47 1400.81 689.46 1550.32 666.96
00040501 00000021 1158.21 197.17 478.51 636.59 1338.54 464.80 1540.03 439.26 1485.97 542.75 1401.43 685.01 1552.10 663.47
00040502 00000022 1157.10 195.91 478.03 635.69 1342.69 456.59 1540.84 434.05 1488.62 538.81 1403.85 678.65 1552.90 659.30
00040503 00000023 1156.75 195.09 477.94 639.35 1344.77 454.58 1541.07 432.31 1490.56 535.13 1409.89 676.54 1552.27 657.34
00040504 00000024 1154.24 197.62 478.33 642.07 1344.22 450.01 1539.03 429.78 1488.15 530.94 1407.19 673.59 1547.60 656.17
00040505 00000025 1152.70 193.32 478.49 636.90 1344.14 451.74 1538.67 432.96 1488.91 528.39 1405.52 669.19 1548.82 653.13
00040506 00000026 1150.95 192.94 476.87 632.46 1342.38 452.27 1534.12 431.37 1488.35 526.38 1406.59 667.00 1548.41 649.29
00040507 00000027 1152.86 190.38 474.51 632.82 1341.44 454.19 1531.78 429.90 1486.91 526.13 1408.42 665.26 1549.34 645.09
00040508 00000028 1150.90 194.34 475.48 630.54 1339.24 456.29 1530.73 431.45 1486.70 525.65 1407.83 666.71 1549.18 646.11
00040509 00000029 1151.99 199.14 473.46 630.10 1341.19 457.20 1530.61 431.40 1489.98 525.09 1412.16 669.10 1550.82 647.85
00040510 00000030 1153.36 198.45 470.91 632.71 1343.64 458.10 1528.80 429.59 1492.34 526.91 1416.61 671.39 1551.48 648.08
00040511 00000031 1157.49 200.13 468.97 629.92 1347.47 460.19 1532.61 430.45 1497.41 527.55 1420.83 671.08 1556.71 646.93
00040512 00000032 1159.34 201.15 468.95 620.65 1350.48 462.13 1532.61 427.92 1502.57 529.40 1425.77 670.30 1563.96 642.72
00040513 00000033 1162.88 201.93 467.93 613.29 1353.37 464.68 1532.61 429.00 1505.04 527.19 1433.79 668.37 1569.26 639.69
00040514 00000034 1164.93 203.39 464.25 610.40 1359.39 461.73 1534.36 427.42 1511.98 522.10 1440.83 666.03 1571.97 638.46
00040515 00000035 1166.12 202.85 459.92 611.60 1364.16 456.77 1532.33 423.16 1514.09 517.77 1446.66 660.03 1569.64 633.01
00040516 00000036 1165.20 202.92 460.82 613.72 1366.52 454.66 1534.28 421.15 1517.79 515.14 1448.73 658.53 1571.78 631.59
00040517 00000037 1167.51 203.93 457.90 619.08 1369.77 455.54 1533.51 421.81 1520.82 511.99 1453.74 658.04 1572.78 631.12
00040518 00000038 1166.83 203.82 456.16 623.60 1370.36 459.21 1531.30 423.61 1522.85 512.02 1456.52 661.17 1573.09 633.19
00040519 00000039 1164.65 200.48 458.35 632.16 1368.65 458.38 1530.75 419.84 1522.74 513.46 1458.20 665.07 1574.11 635.05
00040520 00000040 1161.14 200.56 455.55 632.17 1364.93 460.70 1523.90 419.08 1519.17 519.62 1455.84 670.91 1568.60 638.89
00040521 00000041 1154.96 199.30 459.21 634.17 1364.66 468.10 1525.25 425.20 1517.33 529.72 1450.00 679.31 1563.49 647.08
00040522 00000042 1148.63 213.64 469.22 614.44 1344.37 484.67 1517.53 435.94 1503.47 546.09 1436.26 691.85 1563.56 654.58
00040523 00000043 1138.00 216.95 481.73 613.62 1337.64 490.17 1514.55 440.21 1501.77 550.79 1426.32 692.84 1561.64 654.73
00040524 00000044 1128.87 220.67 486.88 613.70 1328.05 492.19 1507.05 439.78 1494.32 556.04 1416.78 695.13 1556.54 655.48
00040525 00000045 1123.49 228.84 480.96 604.98 1323.03 492.91 1497.88 441.91 1490.92 558.00 1413.25 694.52 1552.07 656.13
00040526 00000046 1125.97 236.29 476.35 596.03 1322.79 495.59 1497.21 444.70 1491.32 560.98 1410.90 695.84 1553.45 657.58
00040527 00000047 1127.83 233.41 478.54 600.11 1326.57 495.49 1500.48 444.73 1493.87 560.32 1411.69 697.17 1554.83 659.21
00040528 00000048 1134.89 232.77 479.23 601.92 1331.92 499.31 1506.15 446.06 1497.27 564.62 1417.57 700.18 1560.17 660.39
00040529 00000049 1140.44 226.48 479.73 610.03 1340.87 501.05 1515.87 450.49 1502.82 565.30 1422.18 702.10 1562.62 663.19
00040530 00000050 1147.54 222.08 471.40 615.33 1350.14 501.57 1522.16 447.42 1511.18 566.37 1430.38 704.84 1568.01 663.72
00040531 00000051 1154.64 222.35 464.88 597.44 1358.80 496.47 1531.97 447.66 1520.10 562.00 1442.15 704.03 1573.65 666.26
00040532 00000052 1158.74 223.71 456.63 588.52 1370.91 491.57 1536.76 445.33 1532.11 557.14 1454.52 701.54 1576.03 665.79
00040533 00000053 1168.48 223.31 454.02 592.88 1380.99 488.99 1545.82 442.71 1542.47 554.55 1465.59 702.59 1586.95 666.74
00040534 00000054 1170.79 216.79 455.13 610.42 1393.56 491.73 1554.47 443.89 1555.49 556.67 1463.97 706.12 1592.22 669.65
00040535 00000055 1173.31 217.70 455.08 609.20 1396.83 490.03 1560.66 444.33 1559.78 555.41 1461.01 705.49 1594.03 670.73
00040536 00000056 1170.99 221.41 457.45 607.22 1394.74 489.59 1561.70 449.94 1556.16 553.31 1452.08 701.83 1590.76 671.23
00040537 00000057 1165.77 225.66 459.59 607.76 1385.99 484.81 1556.05 453.95 1545.37 552.24 1436.24 697.23 1582.21 672.77
00040538 00000058 1159.79 225.72 458.51 599.09 1371.86 479.12 1544.92 450.88 1532.97 548.86 1426.86 695.57 1574.02 672.90
00040539 00000059 1160.54 231.62 456.53 585.12 1369.88 474.92 1541.56 450.27 1527.66 544.35 1423.63 689.28 1568.95 668.77
00040540 00000060 1161.99 236.42 451.31 571.24 1365.83 469.93 1538.66 447.77 1518.84 539.95 1419.67 682.62 1561.52 663.32
00040541 00000061 1160.65 236.17 447.11 570.24 1364.17 467.85 1534.61 448.22 1512.81 538.43 1415.82 679.19 1554.81 661.85
00040542 00000062 1161.69 234.16 444.75 569.08 1361.03 467.10 1532.82 449.06 1508.06 538.13 1413.64 678.62 1550.94 662.31
00040543 00000063 1161.19 231.28 441.64 573.61 1359.64 462.04 1529.46 442.47 1506.99 532.73 1413.41 675.58 1549.82 658.74
00040544 00000064 1159.73 228.74 441.01 576.91 1362.35 457.39 1527.66 437.97 1509.14 527.82 1415.95 669.48 1549.50 653.32
00040545 00000065 1159.62 222.86 443.99 591.14 1365.82 456.53 1530.39 438.13 1513.43 524.09 1421.14 669.10 1551.07 653.95
00040546 00000066 1160.20 221.41 439.98 591.37 1367.10 453.26 1527.82 433.49 1515.20 520.99 1422.45 667.02 1550.69 651.12
00040547 00000067 1161.34 218.39 438.89 594.06 1368.64 452.85 1529.84 434.25 1516.77 519.10 1422.33 664.68 1550.51 649.96
00040548 00000068 1159.60 209.01 437.18 587.90 1367.63 455.08 1526.69 427.87 1519.01 519.17 1424.28 658.34 1553.82 638.47
00040549 00000069 1158.86 207.56 428.86 578.32 1362.20 459.08 1519.11 421.60 1516.93 518.02 1425.94 656.67 1551.14 630.05
00040550 00000070 1152.61 201.29 430.37 580.65 1356.28 458.27 1512.79 415.71 1512.19 519.73 1420.38 654.24 1546.01 624.43
00040551 00000071 1147.60 205.93 442.90 586.69 1351.91 455.87 1507.32 412.95 1507.38 519.80 1414.11 652.49 1545.94 621.90
00040552 00000072 1141.41 216.76 449.78 583.30 1346.79 454.19 1503.45 417.25 1504.33 519.40 1412.43 653.00 1545.69 625.88
00040553 00000073 1136.91 218.48 454.79 599.55 1345.53 464.12 1502.41 423.56 1503.24 525.15 1417.86 664.31 1545.09 634.16
00040554 00000074 1136.91 227.39 451.44 601.16 1341.98 480.95 1498.60 438.16 1499.25 538.70 1419.37 682.34 1541.65 650.07
00040555 00000075 1126.76 231.30 455.85 594.47 1330.69 489.47 1494.27 444.53 1491.36 550.97 1415.86 691.50 1539.66 657.40
00040556 00000076 1115.45 230.01 459.06 592.80 1321.02 491.73 1488.26 442.49 1484.06 551.43 1412.66 694.26 1536.65 656.88
00040557 00000077 1108.35 226.72 461.90 594.98 1311.73 491.28 1484.10 444.81 1476.94 551.33 1407.39 693.87 1533.58 658.23
00040558 00000078 1102.61 227.39 463.68 598.89 1307.78 490.33 1478.67 446.22 1472.51 552.26 1405.95 695.59 1529.02 661.28
00040559 00000079 1103.87 228.42 460.81 603.68 1308.31 488.67 1479.26 445.15 1473.50 551.29 1404.52 698.01 1527.92 664.05
00040560 00000080 1105.69 231.23 463.28 602.37 1307.12 490.58 1479.49 439.18 1473.75 552.28 1397.08 696.08 1530.65 656.96
00040561 00000081 1110.34 233.90 463.61 598.41 1308.04 489.05 1482.21 440.00 1473.45 549.07 1400.28 693.56 1532.22 656.09
00040562 00000082 1115.57 232.32 460.63 595.38 1311.73 487.63 1482.03 441.06 1474.75 545.99 1404.00 688.78 1533.14 652.95
00040563 00000083 1126.12 224.42 464.16 605.14 1321.97 485.41 1492.33 442.87 1483.68 550.26 1407.60 687.89 1541.01 655.11
00040564 00000084 1136.56 221.85 468.44 608.83 1332.89 483.84 1507.66 441.06 1491.72 550.09 1412.05 689.16 1547.36 655.66
00040565 00000085 1139.31 221.19 469.25 604.71 1341.93 483.35 1510.72 437.83 1502.77 547.50 1420.91 684.33 1554.01 649.63
00040566 00000086 1144.51 218.16 469.21 603.17 1343.75 481.44 1511.41 433.16 1502.29 543.21 1426.06 678.51 1557.33 641.73
00040567 00000087 1149.66 218.35 464.56 599.96 1351.12 476.99 1517.03 432.68 1506.48 540.59 1429.75 675.74 1558.50 641.50
00040568 00000088 1148.40 219.29 463.38 600.96 1354.34 470.95 1515.50 428.40 1510.29 535.53 1431.00 672.44 1558.99 639.91
00040569 00000089 1150.45 217.00 460.72 605.50 1356.82 473.05 1517.98 429.85 1511.21 535.19 1431.93 672.30 1558.63 639.45
00040570 00000090 1149.45 218.17 457.37 605.96 1358.22 472.32 1516.55 429.51 1512.40 535.60 1431.81 673.82 1555.86 641.37
00040571 00000091 1147.74 220.76 457.30 606.37 1355.77 472.83 1511.49 428.72 1511.16 535.78 1432.16 675.99 1554.73 642.59
00040572 00000092 1147.64 223.58 457.51 608.70 1354.71 477.19 1512.65 430.67 1509.51 535.74 1432.82 680.17 1553.62 644.68
00040573 00000093 1144.27 223.59 459.49 611.12 1351.14 477.73 1511.38 431.49 1507.42 536.13 1429.48 682.95 1551.08 647.66
00040574 00000094 1141.61 220.22 459.97 616.38 1347.82 479.30 1508.75 430.98 1506.11 538.62 1425.89 684.85 1549.76 648.57
00040575 00000095 1140.64 225.81 462.36 610.75 1343.83 483.69 1508.15 433.11 1504.19 544.30 1425.30 689.49 1549.53 651.29
00040576 00000096 1139.46 224.51 464.45 613.76 1341.98 485.20 1506.52 432.59 1502.40 545.61 1424.42 690.57 1549.41 650.82
00040577 00000097 1137.96 215.29 463.94 625.13 1344.81 492.19 1508.39 437.17 1503.46 549.80 1428.90 694.77 1549.94 653.60
00040578 00000098 1134.57 222.88 464.86 622.61 1345.26 494.84 1506.36 444.76 1503.17 554.54 1429.95 699.97 1548.89 661.56
00040579 00000099 1130.26 219.04 466.73 630.91 1338.49 493.57 1504.01 443.91 1498.77 558.05 1427.23 704.12 1549.30 665.78
00040580 00000100 1131.88 220.69 467.07 625.86 1336.89 498.21 1507.91 449.83 1495.88 562.99 1418.50 705.86 1549.33 668.38
00040581 00000101 1130.46 214.73 470.09 630.94 1336.10 500.22 1506.92 450.43 1493.28 565.07 1414.06 705.05 1547.29 667.00
00040582 00000102 1129.43 221.93 471.55 623.67 1332.72 498.63 1503.21 450.59 1489.84 564.27 1410.34 701.33 1546.57 664.47
00040583 00000103 1122.53 227.29 471.55 619.53 1323.83 500.17 1497.60 453.40 1486.11 564.28 1398.21 700.56 1544.96 665.31
00040584 00000104 1108.83 230.80 467.78 609.49 1314.98 500.72 1486.48 447.24 1480.64 565.27 1400.19 704.94 1534.96 665.02
00040585 00000105 1117.54 242.57 460.48 608.74 1326.45 515.24 1491.69 463.99 1482.63 575.69 1406.35 715.70 1532.81 677.36
00040586 00000106 1118.94 248.81 472.99 619.84 1334.92 530.74 1507.13 478.99 1492.03 594.94 1415.55 730.08 1542.86 692.62
00040587 00000107 1136.10 244.96 467.47 622.76 1344.49 530.02 1525.24 476.53 1504.43 598.66 1419.49 735.06 1557.77 696.63
00040588 00000108 1145.40 234.27 464.99 624.55 1356.07 527.35 1528.55 470.86 1518.72 591.01 1432.14 730.48 1566.89 687.73
00040589 00000109 1144.66 225.62 463.06 625.99 1362.39 517.06 1529.30 463.94 1524.02 577.77 1436.98 721.18 1566.56 681.26
00040590 00000110 1144.89 208.51 462.48 634.42 1366.76 508.98 1529.51 452.95 1527.99 571.55 1437.67 710.92 1567.57 670.01
00040591 00000111 1141.24 202.20 467.78 637.38 1364.14 506.94 1524.44 448.38 1528.20 567.07 1435.34 704.58 1569.47 662.81
00040592 00000112 1143.85 208.27 465.85 628.00 1363.74 504.94 1522.02 448.05 1526.37 565.75 1441.03 702.66 1569.45 661.34
00040593 00000113 1141.74 206.03 469.90 629.07 1366.95 507.03 1524.66 447.86 1532.90 564.99 1444.39 702.82 1573.68 660.60
00040594 00000114 1140.96 203.55 470.18 632.34 1374.82 503.72 1530.07 445.30 1542.80 563.64 1449.44 700.49 1575.76 659.58
00040595 00000115 1142.70 201.67 469.24 636.56 1375.92 502.94 1534.36 443.90 1543.59 561.86 1447.40 699.52 1576.15 657.81
00040596 00000116 1142.52 200.72 473.09 640.23 1375.25 502.32 1539.51 442.39 1544.23 561.91 1444.38 700.30 1578.18 657.79
00040597 00000117 1141.55 203.55 472.48 636.87 1374.34 500.12 1534.88 440.89 1544.49 558.44 1446.41 697.48 1576.87 655.59
CROP_BBOX: 864 0 1841 1027
