Video ID: 	U0Nkvp8nULw
H: 	1080
W: 	1920
FPS: 	25.0

FRAME INDEX X0 Y0 W H [Landmarks (5 Points)]

00028948 00000000 841.28 122.70 355.27 606.17 902.88 390.95 1057.68 383.99 959.66 500.04 927.70 589.17 1061.94 583.01
00028949 DELETE   841.13 126.47 356.16 604.07 902.98 399.73 1054.27 393.91 958.16 515.23 929.59 596.40 1059.48 590.72
00028950 00000002 841.31 126.18 355.63 601.38 902.77 399.94 1054.99 395.18 959.11 515.91 928.18 595.69 1058.39 590.94
00028951 DELETE   848.18 123.39 352.09 606.22 907.09 390.26 1060.28 397.98 962.77 491.72 928.75 583.99 1053.94 590.93
00028952 DELETE   848.76 118.31 353.48 596.62 909.32 382.79 1064.90 392.54 964.12 480.18 927.32 571.18 1058.24 579.29
00028953 DELETE   850.58 117.84 351.86 588.72 909.72 375.93 1065.55 387.08 965.61 476.96 927.11 565.16 1059.12 574.24
00028954 00000006 850.18 116.85 351.58 588.31 907.82 376.78 1060.45 385.73 963.86 475.15 927.58 565.71 1056.71 572.97
00028955 00000007 847.13 114.72 351.21 592.65 905.33 377.22 1057.49 385.87 962.55 477.35 926.73 567.44 1055.09 574.51
00028956 00000008 842.57 115.81 354.50 595.22 902.83 379.05 1054.71 385.68 961.50 477.95 925.51 569.51 1052.80 575.01
00028957 00000009 841.25 112.91 354.22 597.41 900.74 376.69 1052.65 382.30 959.20 475.28 921.72 568.60 1048.93 573.31
00028958 00000010 840.16 112.58 352.71 593.01 899.53 373.24 1052.45 377.87 958.49 471.16 920.31 563.77 1049.79 567.67
00028959 00000011 838.08 119.64 354.08 578.16 899.13 370.83 1050.85 368.08 955.93 470.15 925.20 559.68 1049.88 558.23
00028960 00000012 836.37 115.53 356.26 580.13 898.03 364.64 1047.81 357.84 954.38 463.38 928.27 559.86 1046.62 555.92
00028961 00000013 834.64 110.84 358.79 568.97 896.91 363.70 1046.97 355.48 953.49 462.35 928.58 551.46 1049.32 545.82
00028962 00000014 833.69 109.00 359.51 556.41 893.49 360.74 1045.19 350.22 949.28 456.55 924.67 543.60 1049.23 536.04
00028963 00000015 835.04 102.90 357.27 558.90 891.85 359.00 1041.92 346.41 944.25 451.54 923.18 541.13 1048.94 531.55
00028964 00000016 835.63 101.34 357.06 558.33 891.23 357.92 1040.62 342.28 941.66 444.75 921.84 538.52 1048.36 526.48
00028965 00000017 838.16 97.45 354.61 561.85 891.23 354.64 1041.98 338.12 940.82 437.59 919.94 535.25 1048.69 522.61
00028966 00000018 835.88 104.97 356.15 554.20 890.83 352.97 1039.44 333.55 942.05 434.31 922.26 534.64 1048.58 519.87
00028967 00000019 835.64 99.93 356.80 561.21 891.02 353.95 1037.84 332.74 943.05 433.66 925.01 535.41 1048.84 519.03
00028968 00000020 834.26 98.50 357.55 564.80 890.01 354.08 1035.18 331.07 941.78 432.43 926.39 537.10 1048.20 519.20
00028969 00000021 831.95 95.25 359.50 569.61 889.73 355.35 1034.26 329.87 943.61 432.46 929.93 539.66 1049.84 519.73
00028970 00000022 831.16 98.32 358.69 569.68 890.69 357.04 1033.90 327.39 945.24 431.88 934.76 543.82 1052.40 520.62
00028971 00000023 832.64 97.96 357.78 574.41 893.16 356.74 1037.27 326.76 950.09 431.99 939.83 547.16 1057.21 523.68
00028972 00000024 836.40 100.02 355.73 570.30 897.16 357.15 1043.02 327.56 955.40 432.84 942.78 546.79 1062.03 523.69
00028973 00000025 838.83 100.83 356.63 564.05 902.34 358.95 1051.99 329.75 965.40 434.20 947.16 545.60 1069.31 522.99
00028974 00000026 841.19 102.91 359.22 562.96 909.90 358.04 1061.60 327.84 977.94 432.86 955.78 546.58 1078.34 523.43
00028975 00000027 847.03 101.05 360.19 567.45 920.84 354.07 1069.97 328.35 993.85 423.73 970.49 547.06 1091.11 527.09
00028976 00000028 848.50 102.33 369.48 570.10 928.26 356.65 1079.26 330.00 1008.71 430.29 982.74 549.70 1105.56 528.19
00028977 00000029 855.10 97.09 367.26 582.93 935.13 360.65 1087.23 333.52 1017.85 431.66 988.07 554.19 1112.21 532.61
00028978 00000030 857.69 98.65 366.41 582.44 938.96 362.45 1093.50 335.06 1025.19 431.63 993.62 553.98 1121.22 532.10
00028979 00000031 857.51 101.61 367.16 578.98 939.21 363.60 1094.95 336.65 1026.42 432.51 994.16 554.42 1122.58 532.56
00028980 00000032 854.16 100.69 369.19 578.72 935.17 361.91 1090.09 336.53 1020.52 435.99 989.47 553.30 1117.38 532.63
00028981 00000033 848.96 99.29 369.50 579.00 927.33 360.61 1079.22 337.10 1006.87 439.18 980.82 553.73 1104.81 534.67
00028982 DELETE   847.73 107.17 359.79 569.57 916.47 358.05 1066.00 339.42 983.11 437.22 961.42 550.93 1082.63 536.17
00028983 DELETE   842.41 109.02 355.32 564.67 903.81 365.89 1053.34 344.64 964.14 450.85 943.13 553.78 1062.32 537.82
00028984 00000036 838.54 116.99 354.57 559.37 895.66 363.57 1040.94 347.63 946.34 452.67 929.79 550.66 1047.19 538.98
00028985 00000037 833.72 111.38 356.23 571.74 894.76 361.93 1034.53 353.02 934.14 447.07 923.41 549.51 1027.39 540.72
00028986 00000038 835.56 109.26 355.48 572.94 895.39 362.26 1033.10 355.61 932.20 449.38 919.29 548.90 1020.88 542.19
00028987 00000039 839.75 103.52 354.35 579.92 897.23 360.42 1041.14 353.75 937.01 446.24 921.82 550.21 1027.10 543.55
00028988 00000040 851.35 87.83 355.11 597.26 910.49 354.18 1053.27 350.92 958.78 439.94 933.09 552.59 1046.98 550.29
00028989 00000041 856.81 95.72 355.17 587.53 921.31 351.08 1068.27 343.39 975.24 439.41 950.88 555.88 1064.55 550.57
00028990 DELETE   862.81 110.51 363.25 566.07 937.99 353.55 1094.87 349.37 1005.00 443.96 967.34 544.14 1096.58 541.52
00028991 DELETE   875.63 109.15 360.33 568.58 951.57 354.23 1112.18 347.15 1024.69 438.62 981.46 541.63 1116.67 536.75
00028992 00000044 885.43 111.87 360.85 565.78 964.46 353.18 1126.31 344.79 1042.53 439.00 995.18 544.12 1130.25 538.20
00028993 00000045 888.86 101.97 364.64 578.33 973.00 353.96 1136.44 348.99 1051.11 443.36 1000.53 545.45 1137.83 542.02
00028994 00000046 890.24 98.83 361.35 577.29 972.45 352.12 1137.73 351.56 1048.98 445.15 996.91 541.94 1135.98 542.00
00028995 00000047 888.78 96.83 360.17 578.52 968.24 349.74 1130.39 351.15 1039.46 443.06 988.91 539.62 1125.46 541.48
00028996 00000048 888.01 97.44 357.06 582.88 964.17 345.86 1120.98 347.37 1024.87 437.78 978.62 539.52 1110.04 542.57
00028997 00000049 887.51 98.51 350.12 577.06 957.51 340.55 1111.65 348.17 1007.87 434.30 963.71 530.31 1094.14 539.22
00028998 00000050 885.03 98.52 347.01 563.97 952.91 338.32 1107.95 351.82 1000.22 430.79 953.73 523.93 1083.00 537.76
00028999 DELETE   883.41 95.99 348.43 553.62 950.46 332.05 1104.10 350.84 994.66 420.23 946.67 512.55 1077.22 530.20
00029000 00000052 886.09 88.94 347.96 559.14 949.79 323.92 1104.48 341.33 992.48 410.08 946.17 508.11 1081.31 524.35
00029001 00000053 890.88 86.91 345.51 561.89 955.19 318.14 1104.72 332.32 996.66 403.97 952.14 506.09 1083.85 520.08
00029002 00000054 892.50 93.38 349.55 552.63 960.02 317.29 1110.48 325.22 1005.18 398.13 959.16 503.23 1092.04 512.23
00029003 00000055 900.55 94.18 350.97 548.71 968.12 315.69 1124.47 320.02 1019.67 395.29 968.74 498.64 1109.62 504.36
00029004 00000056 903.33 96.15 351.10 540.10 976.81 309.18 1134.13 316.33 1030.93 390.75 975.51 494.36 1113.46 502.47
00029005 00000057 903.96 97.16 354.49 534.84 980.13 305.78 1140.65 314.93 1036.82 387.82 978.43 492.83 1116.97 502.61
00029006 00000058 906.56 87.72 352.73 537.89 980.84 300.19 1143.27 311.92 1034.89 381.13 977.49 487.16 1115.55 498.95
00029007 00000059 907.10 96.35 353.69 522.67 983.78 294.93 1144.24 307.47 1035.21 370.70 973.62 477.05 1110.84 490.28
00029008 00000060 908.76 89.77 354.33 519.92 982.96 289.82 1144.38 301.43 1034.06 364.28 972.90 469.35 1110.00 482.15
00029009 00000061 910.60 92.80 355.61 512.73 984.27 289.77 1147.53 299.58 1036.68 360.57 974.35 466.35 1113.30 478.26
00029010 00000062 918.06 95.15 349.97 510.14 989.31 289.35 1153.53 300.88 1042.79 361.19 980.70 466.78 1119.89 480.10
00029011 00000063 924.33 93.74 347.82 513.50 997.06 291.63 1161.44 306.02 1055.77 366.82 991.13 471.58 1128.36 486.92
00029012 00000064 926.14 97.29 355.29 518.84 1014.70 296.02 1168.54 319.58 1073.00 379.48 1004.75 473.15 1134.04 494.14
00029013 00000065 931.26 100.93 356.79 519.42 1021.99 297.96 1175.21 322.12 1081.22 383.51 1011.61 477.52 1139.27 499.50
00029014 00000066 939.35 102.35 355.57 524.59 1026.90 300.63 1182.13 325.95 1084.50 386.57 1018.02 482.62 1144.94 505.97
00029015 00000067 945.50 100.07 354.63 535.46 1034.73 301.46 1188.49 330.36 1089.34 389.63 1023.90 485.25 1148.81 512.01
00029016 00000068 952.88 102.35 353.27 536.75 1043.32 303.12 1195.71 334.69 1096.71 395.80 1027.78 486.87 1154.32 515.72
00029017 00000069 956.59 98.36 353.59 545.68 1051.47 304.57 1200.83 341.98 1103.18 405.00 1031.42 488.98 1156.83 522.00
00029018 00000070 959.08 97.05 354.59 551.16 1056.50 308.02 1202.49 346.86 1107.71 410.07 1035.17 492.04 1157.70 525.73
00029019 00000071 959.13 95.96 356.39 554.53 1056.91 308.78 1199.04 347.30 1105.16 409.03 1035.67 494.33 1149.83 528.16
00029020 00000072 958.17 95.07 355.34 555.67 1053.05 305.58 1196.14 344.25 1097.26 405.71 1030.59 493.32 1141.06 527.91
00029021 00000073 945.56 99.04 362.75 547.98 1036.53 301.53 1186.45 338.47 1080.18 397.69 1017.44 487.51 1133.56 520.75
00029022 00000074 929.43 94.14 375.25 547.49 1023.57 295.73 1181.75 337.01 1066.82 389.42 996.60 479.90 1124.41 515.77
00029023 00000075 928.52 89.22 369.28 550.93 1015.86 291.47 1173.83 329.12 1051.68 378.93 985.86 479.23 1109.96 511.74
00029024 00000076 932.06 83.45 355.45 554.39 1009.12 286.27 1159.56 321.02 1038.96 374.19 980.84 479.93 1093.72 510.30
00029025 00000077 929.36 85.53 350.64 565.59 999.69 284.38 1152.09 311.03 1030.48 369.94 981.49 485.14 1103.08 509.45
00029026 00000078 927.98 86.63 349.32 567.12 999.79 286.86 1152.78 311.00 1032.21 374.51 985.17 488.64 1108.72 510.88
00029027 00000079 929.59 88.65 349.46 563.42 1006.90 291.93 1159.21 316.78 1046.16 385.61 993.19 492.76 1116.07 515.27
00029028 00000080 928.94 94.09 352.80 553.05 1013.50 294.86 1166.31 321.46 1063.61 387.79 1002.57 491.62 1126.94 515.60
00029029 00000081 932.63 98.08 353.40 548.88 1020.70 298.56 1175.82 322.68 1077.30 390.40 1013.07 494.03 1138.09 516.62
00029030 00000082 935.98 100.79 352.77 553.80 1026.60 305.12 1183.51 330.31 1088.36 397.95 1021.51 502.87 1149.06 526.40
00029031 00000083 937.64 100.65 353.08 565.54 1033.46 316.69 1189.75 346.04 1096.48 414.76 1024.57 513.61 1153.20 539.97
00029032 00000084 937.87 101.12 353.88 573.30 1036.19 331.02 1190.87 360.68 1102.44 432.79 1028.69 523.93 1155.62 550.25
00029033 00000085 937.48 103.12 354.09 575.33 1034.79 342.30 1186.64 370.80 1099.69 448.39 1029.95 530.44 1154.23 555.30
00029034 00000086 937.04 104.94 352.62 578.76 1032.07 346.54 1182.00 379.82 1094.43 457.93 1023.30 534.98 1146.05 563.55
00029035 00000087 934.02 103.82 355.85 587.01 1027.46 348.49 1177.89 384.46 1088.63 462.94 1017.70 539.06 1140.78 569.68
00029036 00000088 929.60 99.47 356.62 591.51 1019.67 346.10 1166.91 383.68 1076.81 463.03 1010.69 541.31 1129.90 572.76
00029037 00000089 926.60 100.70 353.93 590.47 1012.69 346.31 1159.51 383.92 1063.87 461.01 1000.82 540.16 1120.80 571.44
00029038 00000090 919.99 98.22 353.78 601.78 1003.60 350.30 1154.05 386.24 1054.86 464.05 988.47 548.03 1111.48 578.36
00029039 00000091 910.67 104.97 356.16 604.12 993.58 355.90 1147.60 392.21 1046.38 472.92 978.59 555.12 1107.08 585.41
00029040 00000092 909.30 106.97 355.63 611.42 986.56 359.65 1142.34 394.26 1036.85 479.82 974.02 561.87 1103.20 590.70
00029041 00000093 910.45 109.95 353.41 614.23 986.55 364.01 1142.44 398.10 1039.11 486.65 977.21 567.16 1105.26 595.71
00029042 00000094 917.07 115.33 348.34 611.13 992.64 368.86 1146.86 401.60 1048.34 488.75 985.70 569.74 1110.88 597.55
00029043 00000095 920.19 120.81 348.70 600.36 1002.97 369.85 1156.00 401.70 1064.39 483.66 998.02 567.44 1119.72 594.98
00029044 00000096 922.14 118.51 352.37 600.03 1011.19 365.01 1163.69 394.27 1081.61 476.98 1009.08 562.06 1133.40 587.24
00029045 00000097 917.70 120.10 359.89 595.42 1021.25 358.79 1176.65 383.36 1099.32 472.80 1021.41 560.79 1147.52 582.48
00029046 00000098 924.88 112.58 360.71 585.08 1032.73 353.25 1186.08 384.41 1109.84 461.61 1033.43 546.06 1157.33 572.41
00029047 00000099 928.47 110.64 360.17 580.44 1040.46 347.88 1193.13 377.47 1120.54 456.75 1041.54 540.60 1165.47 565.73
00029048 00000100 930.57 108.80 358.33 578.22 1046.61 343.07 1198.23 373.19 1127.51 450.96 1046.17 537.11 1168.84 562.84
00029049 00000101 933.80 107.29 354.73 572.56 1048.81 340.37 1199.95 370.78 1128.54 446.29 1048.00 532.67 1168.92 558.89
00029050 00000102 931.43 105.11 355.39 568.13 1045.48 336.62 1198.44 368.33 1123.38 440.33 1040.96 526.09 1165.29 553.50
00029051 00000103 928.20 102.41 353.71 566.39 1039.75 332.25 1190.78 364.26 1113.07 433.09 1032.95 520.31 1155.79 548.21
00029052 00000104 924.54 101.15 355.01 562.35 1032.15 324.37 1183.94 358.03 1099.88 424.78 1021.38 515.26 1141.33 545.11
00029053 00000105 921.07 99.20 355.18 557.69 1021.58 317.64 1170.26 349.76 1082.56 422.81 1008.19 510.18 1120.06 539.58
00029054 00000106 916.74 103.59 356.92 544.58 1009.39 312.48 1160.42 340.43 1064.85 412.35 994.57 500.43 1108.40 526.33
00029055 00000107 913.88 103.32 358.25 537.16 1005.81 306.39 1153.69 334.21 1058.21 399.40 991.64 490.09 1101.01 516.00
00029056 00000108 918.64 99.83 351.85 535.46 1005.57 300.78 1157.21 326.81 1055.35 384.71 985.57 483.90 1108.52 508.14
00029057 00000109 917.80 98.32 354.66 532.08 1006.83 297.69 1159.32 323.18 1057.78 380.04 987.74 480.56 1109.21 504.31
00029058 00000110 915.63 99.07 361.30 539.95 1012.51 302.98 1158.32 333.07 1065.53 393.16 999.02 484.41 1105.90 511.58
00029059 00000111 918.86 102.50 361.26 544.71 1013.97 310.09 1163.35 340.77 1064.12 405.54 997.03 496.38 1108.94 524.38
00029060 00000112 922.23 95.26 358.21 567.94 1013.51 319.44 1163.05 351.00 1061.54 421.32 996.42 516.91 1108.58 545.43
00029061 00000113 924.20 94.42 357.45 582.13 1010.16 328.27 1160.58 362.39 1052.16 434.72 991.93 527.93 1107.83 557.49
00029062 00000114 924.84 99.86 357.63 607.29 1005.26 338.16 1153.90 373.50 1047.74 447.91 987.16 546.77 1103.10 577.32
00029063 00000115 923.38 100.70 355.30 618.68 1004.97 346.70 1152.77 386.40 1048.33 459.79 986.61 557.14 1098.76 591.20
00029064 00000116 917.22 104.29 358.92 619.27 999.15 354.67 1151.18 399.20 1042.69 475.12 977.63 560.53 1097.43 598.15
00029065 00000117 915.58 103.01 357.53 620.40 992.47 362.43 1145.59 402.70 1038.84 485.63 975.50 563.42 1101.32 596.86
00029066 00000118 914.84 110.31 357.79 613.34 991.73 370.72 1142.80 408.40 1039.30 494.39 977.59 565.53 1101.64 596.90
00029067 00000119 914.01 111.91 357.02 611.33 991.43 371.44 1142.89 409.26 1040.33 495.75 976.32 565.42 1100.15 597.11
00029068 00000120 912.82 109.30 358.88 611.37 993.08 368.26 1145.41 405.25 1044.56 490.78 978.01 562.66 1102.82 593.65
00029069 00000121 910.87 105.75 359.68 607.81 996.74 360.50 1148.77 400.06 1046.39 480.06 978.03 554.11 1104.85 587.06
00029070 00000122 906.00 103.92 363.94 598.15 997.87 351.86 1149.41 392.35 1047.92 465.69 975.25 545.54 1095.41 579.69
00029071 00000123 903.82 106.27 363.58 579.57 995.28 342.25 1144.17 379.36 1044.55 450.90 978.57 534.63 1089.61 566.43
00029072 00000124 900.50 108.71 363.20 566.80 987.85 339.43 1140.74 370.31 1034.35 447.44 972.59 527.32 1092.12 554.86
00029073 00000125 900.57 106.70 363.57 566.87 987.82 335.39 1140.87 365.75 1033.64 442.14 971.99 525.47 1091.30 552.99
00029074 00000126 898.20 109.67 364.25 567.10 985.37 336.96 1138.35 367.79 1030.57 445.04 969.66 527.92 1088.07 555.77
00029075 00000127 892.66 106.27 369.39 584.54 980.68 337.93 1138.93 374.85 1030.26 449.78 960.45 533.53 1080.64 565.41
00029076 00000128 892.31 103.83 366.42 593.45 975.99 343.98 1134.51 384.56 1021.34 458.93 952.97 541.29 1079.69 575.80
00029077 00000129 890.40 101.20 365.72 614.05 969.18 353.08 1130.22 397.64 1011.06 473.29 946.02 551.72 1080.75 588.91
00029078 00000130 892.24 106.01 359.05 613.54 962.85 361.85 1118.70 403.12 1005.60 483.23 946.58 559.99 1076.81 594.09
00029079 00000131 893.00 108.11 356.05 615.99 963.83 363.27 1120.12 398.43 1007.54 479.66 949.94 561.77 1082.09 591.39
00029080 DELETE   895.33 113.71 350.83 600.07 961.91 360.36 1124.56 379.63 1014.14 470.15 956.12 562.27 1093.72 579.61
00029081 DELETE   884.52 102.19 356.81 600.08 957.93 358.39 1119.55 371.68 1020.05 459.38 966.18 549.10 1107.38 560.72
00029082 00000134 878.08 108.82 355.77 574.28 948.84 362.33 1108.31 363.14 1014.78 451.09 971.32 544.08 1108.05 545.12
00029083 00000135 865.54 105.61 359.99 570.49 939.07 359.16 1099.36 356.91 1010.02 447.15 967.49 543.01 1102.83 541.47
00029084 00000136 854.07 104.69 363.90 578.05 925.81 359.72 1082.64 350.83 995.17 447.35 962.93 547.96 1096.35 539.96
00029085 00000137 848.88 116.44 356.18 575.10 912.82 361.68 1064.54 350.14 980.31 450.31 953.43 558.46 1079.23 548.87
00029086 DELETE   846.20 110.93 353.39 596.40 907.01 372.12 1058.18 359.66 973.19 456.30 945.94 569.39 1072.18 559.65
00029087 00000139 835.73 118.01 356.44 597.93 897.90 386.51 1050.18 369.86 964.83 475.34 939.11 578.69 1066.40 564.68
CROP_BBOX: 564 0 1547 924
