Video ID: 	m_V9fXh9VPE
H: 	2160
W: 	3840
FPS: 	25.0

FRAME INDEX X0 Y0 W H [Landmarks (5 Points)]

00000997 00000000 1402.64 305.44 745.17 1153.41 1817.13 808.32 2062.52 739.57 2130.03 970.97 1877.21 1202.75 2079.21 1149.73
00000998 00000001 1399.57 284.84 752.69 1162.17 1813.76 805.59 2054.88 723.46 2126.94 954.25 1887.00 1194.20 2089.04 1130.27
00000999 00000002 1418.17 276.57 744.26 1153.48 1828.16 789.89 2064.62 711.65 2141.45 931.76 1916.89 1182.26 2110.85 1121.30
00001000 DELETE   1444.77 276.67 721.82 1134.82 1853.74 759.01 2068.69 697.90 2159.15 909.73 1941.97 1160.57 2114.61 1114.80
00001001 00000004 1454.47 276.18 719.97 1126.65 1858.38 744.46 2072.71 685.96 2164.37 898.20 1943.73 1148.04 2117.40 1104.74
00001002 00000005 1451.21 268.46 719.58 1129.92 1857.25 732.10 2060.54 670.85 2162.89 892.87 1943.90 1144.49 2103.88 1100.12
00001003 00000006 1437.91 265.51 724.13 1133.14 1851.94 727.11 2052.04 660.37 2159.64 890.49 1944.14 1144.45 2098.90 1095.00
00001004 00000007 1423.19 274.51 721.40 1119.39 1837.85 729.19 2031.38 661.82 2140.35 886.94 1948.02 1144.81 2092.16 1093.79
00001005 00000008 1405.92 265.27 728.27 1130.52 1820.68 738.28 2023.41 668.13 2121.62 887.89 1930.80 1146.18 2083.36 1091.23
00001006 00000009 1393.17 253.95 731.66 1137.80 1810.33 741.21 2024.36 676.18 2110.73 892.93 1925.45 1149.44 2081.85 1098.05
00001007 00000010 1383.78 254.96 734.73 1136.29 1801.47 747.99 2015.43 684.35 2101.19 897.32 1920.07 1149.22 2077.49 1098.93
00001008 00000011 1381.08 261.32 734.09 1129.30 1794.90 752.30 2011.96 691.16 2094.44 902.63 1919.92 1155.33 2077.07 1106.68
00001009 00000012 1383.41 260.78 729.52 1149.21 1792.59 750.30 1999.99 697.34 2083.06 904.11 1925.51 1161.94 2073.39 1120.17
00001010 00000013 1383.96 272.58 728.62 1159.54 1788.61 747.67 1996.84 700.34 2080.59 910.40 1916.90 1175.08 2062.61 1139.12
00001011 00000014 1377.07 273.82 724.15 1160.86 1782.00 753.75 1997.00 702.03 2078.30 914.80 1893.51 1174.53 2048.08 1135.04
00001012 00000015 1369.25 278.11 728.98 1158.95 1778.04 770.50 2016.70 711.11 2077.11 927.38 1855.45 1176.77 2057.12 1130.89
00001013 00000016 1361.44 282.83 727.83 1170.60 1763.21 782.19 2010.62 725.76 2063.36 942.47 1834.51 1186.71 2048.54 1143.14
00001014 00000017 1352.69 294.91 732.25 1183.68 1755.73 793.04 2006.54 744.71 2060.87 960.45 1815.30 1195.05 2038.86 1157.23
00001015 00000018 1353.47 302.24 729.88 1174.41 1756.04 794.52 2008.01 744.25 2062.91 964.85 1805.74 1193.51 2033.30 1155.22
00001016 00000019 1352.23 302.91 729.63 1160.77 1751.54 793.28 2004.30 738.52 2059.57 956.08 1799.63 1185.27 2028.99 1143.91
00001017 00000020 1349.85 286.22 728.49 1150.85 1743.80 793.68 2002.79 733.19 2052.51 953.48 1790.80 1175.29 2025.21 1129.98
00001018 00000021 1343.03 280.81 728.61 1142.58 1729.48 790.17 1993.95 720.60 2041.29 945.36 1783.94 1171.63 2022.77 1119.72
00001019 00000022 1329.76 282.61 724.17 1134.22 1713.28 788.35 1977.88 710.96 2035.11 941.40 1770.75 1170.87 2010.46 1113.58
00001020 00000023 1324.17 286.79 724.83 1137.69 1699.92 790.40 1962.36 703.27 2025.78 939.81 1760.81 1172.30 2001.51 1107.35
00001021 00000024 1317.75 289.09 726.24 1139.90 1692.61 784.91 1956.49 704.81 2017.01 936.57 1751.46 1172.00 1989.78 1112.28
00001022 00000025 1313.67 286.83 725.52 1140.90 1688.14 781.29 1950.54 700.99 2015.19 930.12 1743.99 1165.71 1984.01 1106.00
00001023 00000026 1310.69 289.22 725.19 1136.33 1681.71 781.00 1942.56 697.15 2008.53 923.50 1741.38 1160.97 1982.43 1098.02
00001024 00000027 1305.64 287.93 729.35 1133.92 1677.84 780.33 1939.07 692.32 2007.76 922.19 1736.42 1158.80 1976.95 1092.94
00001025 00000028 1306.84 284.66 726.55 1129.95 1677.85 778.92 1937.52 689.26 2006.46 920.24 1738.44 1155.97 1976.24 1088.78
00001026 00000029 1321.86 277.79 716.63 1126.76 1683.21 779.90 1945.94 693.34 2006.85 921.02 1746.72 1155.48 1984.52 1090.39
00001027 00000030 1331.05 276.75 711.19 1125.51 1693.22 778.86 1954.95 696.72 2013.00 922.88 1756.00 1153.99 1994.66 1092.53
00001028 00000031 1334.16 271.22 714.72 1127.62 1702.77 780.48 1962.60 696.23 2022.81 926.65 1759.12 1151.67 1999.42 1089.19
00001029 00000032 1339.36 274.80 713.07 1118.47 1709.52 785.21 1970.52 700.35 2025.32 930.45 1768.40 1154.80 2005.36 1091.78
00001030 00000033 1342.86 277.96 715.05 1116.37 1707.68 790.36 1973.55 697.93 2023.22 936.24 1767.16 1156.68 2011.62 1088.08
00001031 00000034 1345.43 275.67 715.30 1126.17 1707.59 797.73 1972.39 698.44 2021.68 942.48 1766.33 1163.13 2013.31 1089.27
00001032 00000035 1350.18 281.72 710.53 1119.70 1704.35 807.30 1965.66 701.37 2016.79 952.05 1767.24 1170.32 2009.95 1091.39
00001033 00000036 1343.96 297.44 716.78 1108.46 1690.40 818.14 1958.19 701.00 2007.42 953.97 1762.21 1176.69 2013.35 1087.73
00001034 00000037 1345.64 302.45 715.71 1105.10 1695.61 820.19 1959.03 704.32 2006.85 952.41 1771.96 1179.48 2016.72 1090.96
00001035 00000038 1356.67 303.59 708.21 1104.73 1710.90 818.74 1967.79 712.58 2012.60 948.29 1786.58 1177.71 2022.79 1096.75
00001036 DELETE   1366.62 300.23 711.82 1105.74 1737.40 811.04 1987.84 723.31 2029.12 944.78 1812.63 1172.29 2037.50 1104.43
00001037 00000040 1387.47 284.96 684.47 1113.08 1741.10 804.55 1977.83 716.74 2064.45 930.45 1882.40 1175.23 2059.21 1110.69
00001038 00000041 1393.03 287.32 676.32 1122.65 1755.69 803.65 1979.16 717.34 2075.00 935.86 1893.58 1183.02 2055.85 1121.25
00001039 00000042 1386.58 294.87 700.07 1124.78 1767.70 800.26 2001.27 736.41 2050.23 942.15 1835.42 1169.32 2044.55 1120.03
00001040 00000043 1372.43 293.08 710.16 1122.28 1751.23 802.46 1998.22 731.53 2043.91 948.69 1806.20 1165.81 2031.99 1112.47
00001041 00000044 1361.30 303.80 706.62 1114.02 1732.19 812.26 1987.53 727.97 2027.38 955.55 1781.20 1169.23 2020.21 1105.87
00001042 00000045 1355.22 314.82 703.19 1099.93 1718.48 818.82 1970.85 722.66 2017.89 962.06 1770.91 1174.54 2006.50 1102.60
00001043 00000046 1357.29 309.45 697.76 1106.06 1721.47 818.83 1977.26 728.67 2015.40 965.48 1769.00 1174.87 2005.89 1108.09
00001044 DELETE   1368.39 296.10 678.25 1109.42 1730.39 820.06 1977.99 750.04 2032.71 955.86 1818.95 1163.41 2016.53 1115.99
00001045 DELETE   1382.85 299.13 671.70 1105.95 1748.79 813.11 1982.78 751.31 2055.25 954.12 1840.38 1168.19 2024.96 1127.01
00001046 00000049 1375.46 309.14 699.80 1109.34 1771.15 801.10 2005.76 749.50 2047.90 956.13 1806.48 1163.33 2017.34 1125.51
00001047 00000050 1371.57 300.51 695.78 1114.05 1762.77 798.62 2006.39 749.68 2042.77 954.39 1794.95 1160.09 2015.36 1125.17
00001048 00000051 1366.09 295.74 693.34 1119.07 1736.52 797.97 2005.34 746.23 2022.71 951.83 1781.01 1165.43 2019.99 1127.17
00001049 00000052 1357.84 303.27 697.28 1118.24 1724.95 803.81 1988.89 742.30 2009.25 954.05 1779.33 1173.80 2011.62 1127.67
00001050 00000053 1358.39 305.79 700.70 1122.15 1722.89 804.97 1993.83 746.27 2011.36 959.58 1782.15 1181.13 2017.91 1136.39
00001051 00000054 1362.60 308.77 701.58 1125.64 1733.70 806.86 2004.43 753.48 2018.77 965.09 1785.55 1183.01 2020.95 1142.42
00001052 00000055 1368.86 318.36 696.91 1125.20 1739.40 818.95 2010.62 780.21 2011.59 974.26 1778.17 1185.72 2015.59 1156.39
00001053 00000056 1365.59 320.07 699.38 1130.63 1737.40 825.62 2007.98 792.21 2005.28 978.91 1778.39 1192.76 2014.55 1166.76
00001054 00000057 1365.70 318.65 699.47 1133.41 1724.38 822.63 2003.38 779.26 1994.76 973.93 1779.09 1199.62 2018.45 1165.80
00001055 00000058 1363.94 317.57 698.09 1138.96 1716.84 818.56 1991.67 764.00 1987.67 971.45 1788.27 1207.49 2021.41 1164.39
00001056 00000059 1365.60 315.15 703.37 1139.70 1721.66 813.23 1995.12 757.24 1995.99 969.45 1802.66 1209.59 2030.30 1164.67
00001057 00000060 1380.79 311.16 696.44 1126.48 1735.38 808.01 2003.85 754.25 2006.16 962.50 1815.45 1199.23 2039.73 1155.49
00001058 00000061 1389.96 306.66 703.17 1106.95 1753.92 801.95 2021.15 749.54 2028.92 956.42 1825.98 1184.60 2046.07 1142.86
00001059 00000062 1380.38 308.35 710.49 1090.26 1748.29 796.48 2005.41 739.73 2041.30 951.92 1862.82 1176.81 2049.60 1132.33
00001060 00000063 1380.44 312.39 713.44 1091.87 1744.73 803.54 2006.68 742.34 2042.36 959.64 1858.45 1185.30 2049.96 1137.44
00001061 00000064 1383.65 313.79 710.77 1105.70 1735.47 810.34 2004.57 748.35 2025.69 970.06 1857.11 1194.79 2051.19 1144.76
00001062 00000065 1387.13 324.91 706.21 1097.55 1726.26 819.23 2002.41 755.32 2016.98 981.45 1855.57 1206.91 2050.84 1155.14
00001063 00000066 1386.99 329.17 707.32 1094.44 1719.32 827.12 2004.91 757.63 2012.67 989.53 1848.87 1212.19 2052.55 1156.22
00001064 00000067 1381.92 334.19 716.61 1096.56 1710.02 833.04 2002.70 757.91 2008.39 992.70 1842.60 1218.68 2054.61 1158.38
00001065 00000068 1380.35 340.58 718.58 1096.14 1701.47 837.58 1999.60 757.36 1998.44 997.99 1832.15 1221.89 2052.57 1157.90
00001066 00000069 1379.29 343.48 722.41 1096.34 1698.01 840.45 2001.39 758.50 1995.58 1002.33 1827.75 1223.79 2054.86 1158.26
00001067 00000070 1380.30 347.40 724.14 1096.56 1698.55 840.78 2005.27 760.72 1995.41 1008.55 1824.30 1227.52 2053.34 1163.32
00001068 00000071 1379.33 347.78 728.20 1102.71 1702.24 840.59 2010.67 761.75 2001.78 1010.43 1817.97 1227.65 2050.63 1164.75
00001069 00000072 1379.49 348.58 733.61 1108.01 1710.55 844.68 2015.51 762.06 2013.78 1009.54 1809.90 1225.42 2046.87 1160.49
00001070 00000073 1381.65 349.60 734.44 1109.20 1714.67 845.02 2019.03 762.47 2018.98 1009.66 1807.44 1222.79 2047.27 1158.18
00001071 00000074 1390.64 350.81 733.69 1108.36 1728.26 847.89 2024.08 762.58 2032.04 1009.22 1812.08 1219.82 2051.57 1153.17
00001072 00000075 1404.67 346.13 726.09 1106.21 1742.81 849.24 2029.71 760.22 2040.55 1006.77 1823.45 1216.75 2059.23 1147.14
00001073 00000076 1410.45 350.90 723.95 1096.92 1750.79 849.51 2036.43 757.22 2050.50 1006.65 1828.26 1216.47 2063.75 1144.71
00001074 00000077 1412.90 354.11 723.33 1095.05 1753.40 849.48 2038.76 756.88 2053.29 1009.25 1828.94 1218.10 2064.88 1145.97
00001075 00000078 1413.33 355.27 724.15 1099.59 1754.22 850.21 2042.39 761.02 2056.55 1011.86 1829.52 1222.16 2067.59 1152.36
00001076 00000079 1417.42 354.19 725.34 1105.32 1764.96 846.86 2053.77 762.01 2068.61 1014.93 1836.17 1225.95 2073.92 1159.20
00001077 00000080 1423.10 346.23 722.44 1114.46 1780.13 842.61 2060.40 760.15 2081.61 1011.42 1848.25 1223.73 2078.02 1159.08
00001078 00000081 1430.17 341.88 716.93 1120.76 1793.22 839.02 2069.33 763.33 2096.87 1009.85 1860.23 1224.30 2081.86 1165.04
00001079 00000082 1434.10 342.81 717.31 1120.83 1796.72 838.68 2076.97 763.19 2101.93 1012.73 1862.05 1227.13 2084.74 1168.15
00001080 00000083 1433.64 341.31 718.04 1118.55 1795.64 840.44 2079.56 766.13 2098.71 1015.03 1865.46 1229.17 2087.60 1170.41
00001081 00000084 1433.96 343.59 720.58 1115.75 1794.56 842.88 2084.02 767.77 2098.29 1020.81 1866.08 1234.47 2089.32 1174.91
00001082 00000085 1436.76 342.41 719.56 1112.47 1796.47 844.29 2090.72 767.59 2101.98 1020.79 1866.60 1233.90 2092.58 1173.22
00001083 00000086 1440.16 335.26 721.77 1109.51 1811.83 856.30 2110.54 782.48 2112.73 1019.49 1877.75 1232.03 2108.35 1173.49
00001084 00000087 1445.04 331.41 718.44 1112.73 1819.49 857.81 2113.92 781.26 2121.74 1022.77 1891.60 1236.82 2115.36 1175.86
00001085 00000088 1449.23 331.41 716.55 1113.66 1824.00 850.42 2113.09 776.42 2124.59 1019.98 1902.17 1236.41 2119.32 1176.94
00001086 00000089 1451.55 326.83 717.67 1120.30 1823.72 838.65 2113.06 765.75 2128.06 1016.93 1900.93 1234.95 2119.03 1176.58
00001087 00000090 1453.32 325.03 716.14 1123.99 1823.08 828.93 2108.46 765.81 2121.88 1010.60 1897.61 1228.89 2114.21 1178.55
00001088 00000091 1449.37 320.58 713.82 1127.27 1820.72 819.74 2099.43 761.52 2117.05 1003.63 1894.59 1220.24 2107.27 1173.98
00001089 00000092 1446.73 324.86 708.23 1122.63 1815.67 813.58 2090.86 761.47 2109.80 988.84 1881.26 1203.71 2100.20 1163.24
00001090 00000093 1439.00 324.37 711.29 1121.09 1813.99 812.72 2091.33 776.60 2102.28 976.67 1879.89 1194.75 2098.44 1166.78
00001091 00000094 1430.67 318.89 714.47 1109.61 1813.82 802.66 2081.94 771.12 2102.03 959.87 1886.69 1180.64 2096.72 1156.73
00001092 00000095 1428.02 309.77 706.79 1099.93 1808.65 785.64 2065.51 755.50 2094.79 942.21 1901.19 1169.86 2094.89 1146.47
00001093 00000096 1421.62 293.47 711.14 1108.19 1801.72 769.41 2054.82 735.97 2082.45 929.04 1902.25 1160.83 2088.92 1133.86
00001094 00000097 1407.61 292.64 711.27 1109.28 1785.40 769.83 2039.76 737.27 2062.29 933.18 1888.54 1163.51 2072.13 1137.36
00001095 00000098 1398.23 304.96 710.81 1101.86 1770.50 778.35 2029.59 744.93 2046.72 945.67 1870.45 1171.05 2056.42 1144.93
00001096 00000099 1398.53 297.15 711.70 1096.71 1775.29 771.46 2032.91 740.34 2049.74 933.61 1870.65 1158.92 2059.21 1135.00
00001097 00000100 1397.32 279.19 708.85 1083.87 1775.52 765.00 2041.63 723.39 2064.17 920.22 1882.94 1144.61 2081.55 1114.30
00001098 DELETE   1377.72 242.64 728.72 1078.25 1743.38 745.17 2033.17 719.91 2040.94 858.35 1863.86 1090.92 2082.94 1069.09
00001099 00000102 1367.53 243.03 728.66 1066.19 1718.52 727.74 2002.24 707.21 2010.54 830.81 1846.26 1068.20 2070.46 1049.55
00001100 00000103 1365.21 242.56 719.55 1068.56 1711.34 710.54 1989.36 695.31 2004.19 818.94 1831.87 1057.73 2057.32 1044.61
00001101 00000104 1364.80 241.13 712.57 1070.80 1706.32 702.83 1981.32 687.28 1998.09 817.93 1826.60 1055.97 2049.87 1042.84
00001102 00000105 1361.43 239.54 710.48 1076.04 1708.00 711.14 1980.70 693.36 1997.83 830.11 1826.41 1063.34 2047.69 1048.12
00001103 00000106 1359.90 245.94 705.89 1082.37 1707.41 720.50 1983.51 700.59 1998.58 849.46 1822.38 1079.71 2042.21 1062.92
00001104 00000107 1351.80 244.05 693.01 1096.10 1723.76 743.66 1981.89 698.97 2018.77 880.83 1823.51 1107.96 2022.76 1076.02
00001105 00000108 1349.82 249.82 691.60 1105.41 1719.44 760.83 1979.27 713.15 2009.31 900.06 1819.45 1120.92 2017.20 1088.06
00001106 00000109 1348.91 248.41 692.41 1090.08 1712.47 750.56 1973.64 700.31 2005.53 895.62 1812.22 1108.01 2018.01 1071.81
00001107 00000110 1350.52 263.81 703.16 1073.12 1691.59 747.28 1976.62 703.97 1982.38 879.36 1797.18 1101.33 2029.25 1066.36
00001108 00000111 1344.02 244.09 683.86 1073.79 1697.18 736.67 1958.92 682.76 1997.51 878.64 1788.71 1084.74 2015.04 1045.29
00001109 00000112 1342.07 253.96 682.77 1075.42 1698.95 745.20 1957.08 693.81 1994.77 896.62 1781.78 1092.85 2003.67 1056.81
00001110 00000113 1342.27 274.53 683.87 1078.86 1705.35 763.18 1957.61 712.33 1993.37 922.28 1787.63 1109.00 1998.60 1075.06
00001111 00000114 1352.27 291.30 683.56 1070.88 1711.50 770.83 1972.02 721.86 2002.02 937.41 1795.94 1123.58 2014.62 1090.41
00001112 00000115 1355.56 294.97 684.23 1068.82 1715.37 781.03 1977.16 728.05 2005.66 945.24 1800.77 1130.12 2020.11 1093.69
00001113 00000116 1358.36 296.05 680.38 1071.06 1718.66 783.83 1979.54 734.31 2009.01 951.17 1807.57 1136.37 2023.93 1102.49
00001114 00000117 1361.90 318.67 680.16 1052.71 1724.16 786.65 1986.75 741.56 2011.38 961.95 1801.33 1139.66 2020.63 1109.07
00001115 00000118 1370.87 328.14 695.53 1055.90 1735.21 803.39 2015.76 757.40 2008.41 963.41 1767.14 1155.05 2010.70 1122.10
00001116 00000119 1377.29 329.94 695.88 1059.25 1744.18 799.97 2027.08 759.62 2017.04 964.91 1772.72 1153.80 2017.19 1125.47
00001117 00000120 1378.01 345.02 682.17 1035.34 1749.62 793.19 2014.78 749.64 2038.59 976.95 1812.71 1152.46 2029.91 1123.73
00001118 00000121 1381.81 341.65 679.06 1036.82 1756.22 791.60 2022.43 744.30 2050.30 974.05 1817.61 1154.28 2033.21 1122.87
00001119 00000122 1384.30 349.56 681.63 1029.67 1759.69 790.06 2026.04 742.85 2056.68 974.19 1824.65 1159.80 2036.83 1128.11
00001120 00000123 1383.98 354.54 684.39 1026.64 1760.65 791.03 2027.12 744.31 2056.79 975.57 1826.09 1160.82 2037.09 1129.54
00001121 00000124 1384.22 355.57 687.62 1028.75 1762.51 794.63 2027.84 746.47 2058.35 978.76 1829.15 1163.89 2037.38 1131.54
00001122 00000125 1380.09 333.61 704.89 1057.08 1756.34 803.97 2020.15 757.46 2042.89 961.94 1812.06 1154.26 2025.94 1122.63
00001123 00000126 1380.28 334.61 708.02 1057.43 1755.70 808.71 2021.89 761.72 2040.28 966.47 1809.91 1156.81 2026.25 1124.58
00001124 00000127 1381.74 338.28 707.78 1057.62 1758.29 812.67 2022.79 766.15 2040.76 971.02 1808.43 1158.74 2024.68 1127.16
00001125 00000128 1382.21 340.37 712.86 1060.64 1761.52 813.68 2027.79 766.78 2043.62 975.77 1809.25 1162.18 2024.30 1130.12
00001126 00000129 1384.99 343.57 712.57 1060.68 1763.25 816.50 2030.60 767.86 2045.68 980.10 1808.23 1165.36 2024.45 1132.03
00001127 00000130 1389.35 346.72 714.00 1060.93 1768.54 819.88 2032.96 767.14 2049.18 985.23 1809.78 1169.95 2023.52 1133.42
00001128 00000131 1391.55 349.37 715.52 1060.36 1769.76 821.91 2036.04 767.18 2051.26 987.88 1813.33 1174.43 2025.67 1136.25
00001129 00000132 1392.64 347.97 715.35 1065.02 1770.26 822.45 2037.70 766.67 2052.78 990.09 1812.45 1176.42 2026.80 1137.35
00001130 00000133 1394.27 348.23 714.71 1066.97 1772.12 823.95 2038.83 766.02 2055.64 991.47 1814.37 1178.58 2028.54 1137.82
00001131 00000134 1395.68 348.50 715.12 1068.79 1773.59 824.22 2039.75 766.13 2057.29 991.29 1816.80 1179.10 2030.65 1137.95
00001132 00000135 1395.74 347.84 715.60 1070.64 1774.95 823.96 2041.41 766.04 2059.98 991.62 1817.34 1180.08 2031.52 1139.11
00001133 00000136 1397.38 345.42 717.37 1075.27 1776.49 823.02 2043.60 764.20 2062.80 992.24 1819.48 1182.78 2033.79 1141.02
00001134 00000137 1399.62 345.30 718.83 1084.54 1778.09 824.27 2046.32 764.73 2067.21 995.14 1823.51 1189.72 2037.94 1147.00
00001135 00000138 1401.43 346.21 720.26 1096.01 1780.43 825.29 2049.21 768.10 2071.85 997.45 1822.09 1195.15 2038.69 1154.02
00001136 00000139 1407.03 347.04 719.49 1103.65 1782.55 826.00 2055.56 769.53 2077.77 1001.46 1822.63 1201.67 2042.84 1160.83
00001137 00000140 1407.99 348.56 720.65 1107.64 1783.18 825.86 2059.50 769.81 2081.54 1005.48 1822.29 1206.38 2044.80 1165.67
00001138 00000141 1408.98 349.97 720.27 1108.20 1784.29 827.43 2059.93 770.90 2083.07 1007.33 1821.31 1207.92 2043.47 1167.08
00001139 00000142 1408.66 348.87 721.24 1110.84 1785.31 827.95 2061.66 772.15 2084.68 1008.44 1821.65 1209.29 2043.98 1168.92
00001140 00000143 1408.46 348.59 722.35 1111.34 1785.57 826.85 2062.81 772.17 2084.58 1009.29 1821.22 1210.10 2043.23 1170.55
00001141 00000144 1408.73 350.15 722.79 1109.03 1785.64 827.52 2063.67 772.67 2085.50 1010.55 1821.93 1211.22 2043.78 1171.48
00001142 00000145 1409.13 350.74 723.21 1108.34 1786.19 826.65 2065.45 772.61 2087.30 1011.58 1821.05 1211.98 2043.56 1172.99
00001143 00000146 1409.21 351.53 723.28 1106.96 1785.64 826.52 2066.76 773.14 2087.51 1012.18 1819.96 1212.48 2043.40 1174.07
00001144 00000147 1410.83 350.57 723.58 1107.64 1788.12 826.65 2069.91 774.16 2089.87 1013.75 1822.46 1213.39 2045.52 1175.50
00001145 00000148 1412.19 351.71 723.11 1107.23 1789.70 826.88 2069.35 776.23 2086.76 1016.54 1827.17 1216.31 2043.71 1179.61
00001146 00000149 1410.91 354.80 725.45 1106.74 1790.96 827.32 2070.98 775.60 2091.96 1015.94 1825.16 1215.74 2044.42 1178.42
00001147 00000150 1410.36 355.57 725.88 1106.65 1790.13 826.24 2072.26 773.92 2093.31 1015.16 1821.64 1214.80 2044.97 1177.26
00001148 00000151 1409.47 359.21 723.85 1101.43 1788.63 825.95 2069.36 775.62 2090.23 1015.34 1819.65 1213.91 2040.36 1178.07
00001149 00000152 1408.63 355.81 719.26 1104.16 1787.08 825.92 2066.82 778.26 2086.30 1016.86 1819.83 1213.86 2038.25 1180.19
00001150 00000153 1402.22 354.26 721.44 1105.07 1790.50 840.77 2067.12 799.46 2081.73 1018.13 1813.40 1209.95 2035.80 1181.69
00001151 00000154 1401.31 356.74 720.41 1102.07 1787.75 839.02 2065.64 797.38 2079.95 1016.50 1812.19 1208.57 2035.21 1180.21
00001152 00000155 1403.09 359.98 715.94 1098.28 1786.48 833.10 2064.43 787.34 2080.39 1017.86 1810.55 1209.24 2032.18 1178.05
00001153 00000156 1400.37 368.28 714.93 1088.49 1778.95 830.27 2056.53 782.07 2076.10 1018.18 1806.87 1208.71 2026.49 1175.82
00001154 00000157 1399.12 371.67 713.18 1084.17 1774.21 828.23 2053.74 781.32 2071.48 1018.47 1804.10 1208.03 2025.22 1176.05
