Video ID: 	6SHj97B8tiQ
H: 	1080
W: 	1920
FPS: 	30.0

FRAME INDEX X0 Y0 W H [Landmarks (5 Points)]

00005432 00000000 1020.06 138.31 440.57 638.19 1098.56 390.18 1303.76 409.55 1167.48 526.92 1104.76 592.42 1299.49 606.75
00005433 00000001 1020.01 138.31 440.63 638.22 1098.52 390.19 1303.73 409.52 1167.48 526.92 1104.75 592.46 1299.48 606.75
00005434 DELETE   1027.60 137.66 429.40 630.88 1107.41 391.80 1312.10 406.07 1176.47 516.91 1111.44 593.34 1313.44 602.13
00005435 00000003 1033.05 132.93 429.43 633.06 1119.19 386.70 1317.59 402.38 1187.82 504.48 1120.25 586.05 1317.13 595.96
00005436 00000004 1038.18 133.87 434.15 628.82 1126.83 381.89 1323.69 399.72 1192.88 495.66 1124.29 579.22 1318.73 590.84
00005437 00000005 1041.38 132.64 437.09 631.58 1130.60 381.96 1327.55 397.59 1197.77 494.66 1128.54 580.05 1324.02 589.88
00005438 00000006 1041.62 129.61 435.90 634.37 1131.15 381.02 1327.15 397.91 1197.43 494.38 1128.37 578.85 1323.08 589.70
00005439 DELETE   1045.13 132.90 441.34 631.29 1135.02 381.58 1331.34 399.94 1198.04 495.95 1131.92 579.61 1325.43 591.55
00005440 00000008 1051.20 140.15 444.48 628.58 1142.47 387.13 1331.40 407.62 1201.43 509.15 1138.44 582.73 1329.92 596.44
00005441 00000009 1053.18 145.73 445.43 626.45 1144.12 391.49 1333.73 410.95 1204.54 516.73 1141.46 588.48 1332.96 601.52
00005442 00000010 1056.81 153.01 442.19 617.59 1145.63 394.67 1335.71 412.19 1207.01 521.17 1144.66 590.33 1336.98 602.08
00005443 00000011 1056.81 153.03 442.23 617.57 1145.61 394.83 1335.60 412.16 1206.98 521.06 1144.73 590.46 1336.91 602.07
00005444 00000012 1059.25 156.70 438.49 610.67 1146.73 396.40 1338.22 414.26 1208.77 522.86 1144.77 587.69 1340.10 600.03
00005445 00000013 1060.89 161.29 436.60 607.57 1146.83 398.46 1338.87 416.01 1208.32 524.84 1145.27 590.18 1339.65 602.41
00005446 00000014 1064.79 165.96 433.27 605.17 1148.77 402.17 1338.51 420.39 1207.05 528.42 1146.19 592.43 1338.89 605.46
00005447 00000015 1063.99 166.43 435.41 611.41 1146.63 404.99 1336.03 421.00 1205.59 531.25 1146.30 599.17 1338.24 610.20
00005448 00000016 1063.95 166.41 435.46 611.45 1146.62 404.98 1336.02 421.00 1205.59 531.27 1146.29 599.16 1338.24 610.20
00005449 00000017 1063.42 166.38 434.72 614.72 1147.10 404.65 1334.18 421.35 1204.30 530.17 1146.14 600.73 1335.40 612.31
00005450 00000018 1062.92 165.37 434.06 615.28 1146.66 402.53 1331.57 421.19 1199.45 525.98 1144.45 599.32 1330.39 612.43
00005451 00000019 1060.88 167.36 432.70 612.34 1144.16 401.40 1327.94 421.47 1194.89 524.66 1139.80 597.74 1325.95 611.75
00005452 00000020 1059.93 165.86 429.24 613.42 1142.67 402.18 1328.56 423.41 1194.18 527.03 1137.48 598.41 1324.14 613.26
00005453 00000021 1059.79 165.70 429.42 613.62 1142.66 402.08 1328.57 423.41 1194.20 527.08 1137.49 598.42 1324.12 613.36
00005454 00000022 1053.80 165.52 431.38 615.76 1138.17 403.99 1326.53 426.36 1191.89 529.79 1133.58 601.36 1320.64 616.99
00005455 00000023 1051.03 164.53 432.20 618.05 1135.65 404.06 1322.52 426.00 1188.53 529.92 1131.14 602.14 1317.37 617.49
00005456 00000024 1050.50 163.24 430.41 618.05 1135.31 403.04 1320.63 424.31 1187.60 524.73 1130.42 599.85 1315.76 614.41
00005457 00000025 1049.46 162.56 432.09 619.09 1133.39 401.08 1318.52 420.24 1186.36 521.44 1131.95 599.58 1316.42 612.22
00005458 00000026 1049.52 162.94 431.96 618.68 1133.29 401.22 1318.51 420.23 1186.30 521.45 1131.91 599.64 1316.48 612.16
00005459 00000027 1049.68 163.02 431.33 620.63 1134.05 401.32 1318.23 420.17 1186.74 521.67 1132.18 599.74 1316.46 612.17
00005460 00000028 1051.18 164.24 428.32 621.30 1135.65 402.80 1320.31 423.46 1187.74 524.24 1130.63 601.85 1313.94 616.20
00005461 00000029 1051.45 164.75 430.04 620.39 1135.68 403.80 1319.75 425.56 1186.39 526.50 1129.63 602.28 1312.39 617.61
00005462 00000030 1051.51 163.64 431.44 622.64 1137.38 402.72 1321.19 425.33 1187.92 525.70 1129.86 601.79 1312.38 617.77
00005463 00000031 1051.75 163.57 431.19 622.56 1137.64 402.75 1321.33 425.37 1188.18 525.69 1130.10 601.73 1312.51 617.73
00005464 00000032 1051.87 163.03 433.21 624.52 1138.23 400.58 1323.79 423.24 1189.29 524.44 1130.35 601.96 1313.50 617.97
00005465 00000033 1054.20 162.16 431.33 623.18 1140.45 399.62 1325.02 423.25 1191.07 521.58 1133.68 599.90 1314.96 616.57
00005466 00000034 1055.64 163.03 431.42 622.20 1142.21 399.39 1326.39 423.84 1191.52 522.48 1134.69 598.88 1316.61 616.33
00005467 00000035 1056.76 162.28 432.87 623.03 1143.72 399.57 1327.03 423.75 1192.50 521.19 1136.84 598.80 1317.86 615.96
00005468 00000036 1056.72 162.35 432.92 622.93 1143.66 399.58 1327.04 423.77 1192.55 521.27 1136.89 598.83 1317.97 615.98
00005469 00000037 1059.02 166.38 431.04 618.24 1144.95 400.46 1327.36 423.63 1193.48 521.91 1137.88 599.51 1318.59 616.13
00005470 00000038 1061.55 165.38 431.25 618.37 1146.60 401.12 1328.93 424.88 1194.29 522.13 1138.67 598.89 1320.22 615.90
00005471 00000039 1063.47 167.64 430.66 615.72 1146.87 401.90 1329.01 425.03 1193.89 523.01 1139.52 599.70 1321.01 616.28
00005472 00000040 1063.31 169.92 433.09 614.01 1146.04 404.97 1330.12 427.09 1193.53 525.63 1140.08 601.20 1323.52 617.00
00005473 00000041 1063.26 169.84 433.29 614.28 1146.02 404.89 1330.08 426.98 1193.52 525.61 1140.22 601.31 1323.62 617.12
00005474 00000042 1063.72 172.27 433.06 610.47 1148.29 410.65 1329.30 433.18 1196.35 528.06 1143.27 600.40 1324.12 616.54
00005475 00000043 1065.83 169.75 431.61 612.74 1149.61 414.72 1330.60 435.86 1197.69 527.47 1145.00 602.05 1324.49 616.88
00005476 00000044 1065.66 169.78 432.67 611.98 1150.73 414.84 1332.94 437.26 1199.91 527.87 1145.28 601.48 1325.60 617.45
00005477 00000045 1067.20 170.94 429.03 610.18 1151.72 412.53 1333.83 436.42 1199.98 527.61 1145.04 600.26 1325.31 617.49
00005478 00000046 1067.27 170.72 428.52 610.18 1151.75 412.40 1333.75 436.42 1199.90 527.55 1145.04 600.25 1325.10 617.60
00005479 00000047 1066.43 170.90 429.15 610.30 1152.67 411.66 1334.24 437.02 1200.80 527.64 1145.47 599.49 1325.31 618.01
00005480 00000048 1067.33 170.81 428.94 611.40 1152.16 409.41 1336.34 434.13 1200.19 526.47 1144.95 599.96 1326.68 618.00
00005481 00000049 1068.39 169.24 431.21 613.33 1153.41 409.58 1338.83 433.70 1201.73 526.33 1146.61 600.54 1328.61 618.12
00005482 00000050 1068.82 168.80 432.40 612.72 1154.02 408.07 1341.54 432.66 1202.60 525.55 1146.57 600.14 1329.51 618.20
00005483 00000051 1068.71 168.84 432.51 612.71 1153.94 407.97 1341.51 432.60 1202.61 525.60 1146.56 600.13 1329.57 618.21
00005484 00000052 1069.08 167.66 433.58 610.17 1153.70 406.86 1341.67 431.35 1202.12 524.51 1147.24 599.59 1328.09 617.65
00005485 00000053 1070.38 167.43 432.51 610.53 1154.04 406.47 1342.66 430.61 1202.36 524.62 1148.01 600.07 1328.89 617.89
00005486 00000054 1071.76 166.56 434.23 612.18 1157.16 406.63 1345.51 430.92 1206.48 524.23 1151.23 600.09 1331.62 618.15
00005487 00000055 1073.09 165.81 434.98 612.99 1160.23 406.02 1350.26 430.84 1212.00 524.89 1154.59 600.12 1336.39 618.72
00005488 00000056 1073.23 165.83 434.92 613.10 1160.21 405.87 1350.27 430.83 1211.87 524.89 1154.56 600.17 1336.44 618.90
00005489 00000057 1075.10 165.43 436.54 612.29 1162.04 406.67 1353.48 432.13 1214.51 524.90 1159.05 600.86 1340.19 619.82
00005490 00000058 1080.15 169.81 434.27 610.20 1166.12 406.59 1359.95 432.93 1219.75 525.69 1161.57 602.08 1344.44 622.09
00005491 00000059 1082.70 171.02 434.31 612.53 1167.36 409.67 1361.59 435.62 1221.01 527.04 1164.11 605.39 1345.73 625.00
00005492 00000060 1088.08 169.15 436.58 613.37 1169.08 408.23 1371.73 433.72 1226.39 529.40 1166.12 610.29 1350.86 629.61
00005493 00000061 1088.09 169.15 436.56 613.37 1169.08 408.23 1371.74 433.72 1226.40 529.40 1166.12 610.29 1350.87 629.60
00005494 00000062 1093.22 177.33 435.75 608.64 1171.40 410.49 1375.06 441.23 1228.67 532.50 1162.11 608.61 1345.88 631.72
00005495 00000063 1095.27 178.55 436.51 607.23 1174.49 409.65 1378.17 441.68 1231.48 532.34 1164.56 608.61 1348.44 632.62
00005496 00000064 1097.61 175.09 437.65 610.62 1179.14 410.29 1383.09 443.46 1237.51 531.80 1166.65 608.61 1351.02 633.76
00005497 00000065 1100.40 173.54 435.52 613.44 1184.27 411.12 1385.57 445.58 1240.84 531.04 1168.83 606.66 1354.15 632.62
00005498 00000066 1100.47 173.64 435.47 613.32 1184.34 411.07 1385.59 445.56 1240.85 531.00 1168.86 606.62 1354.14 632.60
00005499 00000067 1103.65 178.06 432.68 607.83 1189.85 411.40 1389.74 447.41 1247.60 534.79 1172.93 607.33 1359.04 634.63
00005500 00000068 1106.14 176.63 434.18 609.25 1194.21 411.71 1392.94 447.28 1251.83 534.14 1175.80 607.61 1361.25 634.56
00005501 00000069 1109.19 178.80 435.79 605.45 1198.70 412.71 1396.63 448.24 1256.88 534.75 1180.81 606.73 1363.00 633.85
00005502 00000070 1110.62 179.00 438.87 604.20 1199.95 412.73 1398.63 446.63 1259.80 532.56 1182.66 606.28 1363.91 632.28
00005503 00000071 1110.51 178.99 438.94 604.42 1199.96 412.68 1398.84 446.62 1260.04 532.76 1182.79 606.33 1364.11 632.35
00005504 00000072 1110.31 180.24 439.33 602.94 1200.02 412.46 1398.92 446.99 1259.99 531.98 1183.30 606.84 1363.58 633.35
00005505 00000073 1109.47 177.72 438.77 607.16 1198.76 413.22 1398.61 447.60 1258.22 532.83 1181.79 608.11 1363.33 634.37
00005506 00000074 1110.44 177.12 438.45 607.99 1200.39 414.94 1397.97 448.72 1259.09 532.49 1182.92 609.43 1363.49 635.13
00005507 00000075 1109.51 178.35 439.04 608.03 1200.51 415.54 1398.69 450.19 1260.57 534.33 1182.35 609.66 1363.78 636.07
00005508 00000076 1109.51 178.35 439.05 608.03 1200.51 415.54 1398.69 450.19 1260.56 534.33 1182.35 609.66 1363.78 636.07
00005509 00000077 1109.79 181.76 435.13 606.56 1199.06 416.88 1396.83 451.36 1257.41 537.10 1181.45 611.98 1362.74 637.91
00005510 00000078 1110.64 183.98 431.83 605.31 1198.93 418.04 1393.95 453.20 1253.85 540.08 1180.99 612.66 1362.43 638.94
00005511 00000079 1111.25 184.25 433.02 605.31 1199.91 419.97 1394.36 453.68 1255.89 540.88 1182.68 613.82 1362.57 639.08
00005512 00000080 1112.90 185.95 434.98 605.42 1201.67 421.59 1395.88 453.79 1258.01 540.50 1185.48 615.13 1364.18 639.30
00005513 00000081 1112.93 185.96 434.97 605.42 1201.69 421.61 1395.88 453.81 1258.02 540.52 1185.47 615.14 1364.16 639.31
00005514 00000082 1114.29 187.14 434.83 605.43 1202.09 423.35 1396.43 454.16 1258.61 541.54 1186.40 616.45 1365.62 639.51
00005515 00000083 1117.22 186.85 438.93 605.94 1204.01 425.34 1399.04 454.24 1261.28 541.40 1189.98 617.96 1368.09 639.77
00005516 00000084 1121.04 181.16 433.15 610.18 1209.76 421.47 1404.30 454.54 1260.61 540.75 1194.71 620.03 1372.48 645.83
00005517 00000085 1126.46 184.48 434.75 608.85 1213.86 422.68 1406.56 456.25 1262.34 543.45 1198.56 619.72 1376.54 646.01
00005518 00000086 1126.48 184.49 434.72 608.83 1213.87 422.72 1406.56 456.26 1262.37 543.44 1198.58 619.73 1376.54 646.01
00005519 00000087 1132.46 187.72 434.54 607.48 1218.17 423.38 1409.48 455.59 1265.58 544.93 1204.32 618.47 1382.92 643.92
00005520 00000088 1135.22 188.70 436.96 606.64 1221.68 423.00 1415.54 458.54 1268.53 547.54 1207.49 618.41 1387.83 646.56
00005521 00000089 1140.33 184.38 431.84 610.22 1226.35 423.79 1418.15 458.58 1273.53 545.55 1212.16 616.77 1392.14 644.14
00005522 00000090 1142.78 182.46 431.61 613.18 1228.25 423.82 1421.61 457.68 1275.63 544.76 1215.22 618.01 1395.50 644.77
00005523 00000091 1142.77 182.47 431.62 613.19 1228.25 423.81 1421.61 457.68 1275.63 544.75 1215.20 618.00 1395.50 644.76
00005524 00000092 1145.31 181.38 429.12 613.91 1230.52 424.15 1423.68 457.76 1279.03 543.84 1217.65 618.17 1396.87 644.73
00005525 00000093 1147.21 184.49 427.66 610.72 1232.82 424.33 1425.15 455.89 1282.89 542.30 1221.61 617.98 1400.34 642.98
00005526 00000094 1150.06 184.04 430.27 611.20 1235.51 423.27 1428.35 454.60 1284.62 541.05 1225.07 618.71 1402.04 643.45
00005527 00000095 1150.17 182.33 430.84 612.99 1235.34 422.53 1428.10 454.10 1284.18 540.90 1225.08 618.85 1401.68 643.73
00005528 00000096 1150.17 182.33 430.84 612.99 1235.34 422.53 1428.10 454.10 1284.18 540.90 1225.08 618.85 1401.68 643.73
00005529 00000097 1148.57 182.40 431.68 611.97 1233.66 421.77 1427.11 452.78 1282.85 539.60 1223.42 617.47 1401.33 641.82
00005530 00000098 1148.16 181.24 432.16 611.81 1233.25 421.73 1426.78 452.61 1282.32 539.07 1223.17 617.39 1400.40 641.59
00005531 00000099 1148.45 181.20 431.87 611.84 1233.53 421.63 1426.68 452.67 1282.31 539.02 1223.39 617.41 1399.91 641.76
00005532 00000100 1148.48 181.36 432.11 612.19 1233.98 421.60 1426.87 452.69 1282.94 539.11 1223.73 617.69 1399.60 642.00
00005533 00000101 1148.44 182.16 432.40 610.98 1233.78 421.85 1426.94 452.80 1282.79 538.84 1223.57 617.87 1399.35 642.14
00005534 00000102 1149.36 178.34 434.96 612.05 1235.55 417.11 1432.11 450.60 1289.99 539.88 1227.04 619.01 1402.13 646.35
00005535 00000103 1148.47 185.54 430.08 610.48 1234.40 425.61 1427.71 460.12 1283.08 544.07 1221.49 621.72 1396.44 648.95
00005536 00000104 1149.20 186.68 428.94 610.05 1233.97 427.00 1428.15 461.99 1282.51 546.63 1221.44 624.03 1396.51 651.68
00005537 00000105 1149.36 186.25 429.33 610.58 1234.23 426.52 1428.53 461.07 1282.80 545.88 1221.78 624.33 1396.35 651.70
00005538 00000106 1149.38 185.85 429.23 610.73 1234.18 426.55 1428.62 461.22 1282.72 546.13 1221.68 624.32 1396.08 651.77
00005539 00000107 1148.77 185.71 430.81 610.52 1233.73 426.13 1428.79 460.93 1282.16 546.32 1221.54 624.63 1395.50 652.19
00005540 00000108 1148.05 184.78 432.65 612.11 1233.12 425.58 1428.30 460.23 1280.98 545.25 1220.03 624.01 1394.56 651.41
00005541 00000109 1147.39 184.90 432.72 611.94 1232.79 425.66 1428.28 460.07 1281.19 545.94 1219.84 624.89 1393.86 652.11
00005542 00000110 1147.97 184.79 431.76 611.82 1232.36 426.14 1428.62 461.29 1279.91 547.35 1218.88 625.62 1393.15 653.49
00005543 00000111 1148.04 184.69 431.63 611.89 1232.41 426.16 1428.58 461.32 1279.75 547.45 1218.81 625.56 1393.09 653.43
00005544 00000112 1147.40 184.20 431.00 611.80 1231.82 426.63 1428.86 461.69 1280.87 548.45 1218.91 627.07 1393.02 654.94
00005545 00000113 1147.86 185.28 430.56 612.90 1231.27 429.16 1429.15 463.37 1280.60 550.30 1218.64 630.26 1393.69 657.51
00005546 00000114 1149.72 181.02 434.10 613.61 1234.41 427.02 1434.92 458.82 1291.52 545.92 1225.04 630.08 1399.03 656.09
00005547 00000115 1152.12 182.70 434.28 611.78 1235.72 425.42 1437.83 458.45 1292.20 547.82 1226.95 632.44 1397.96 659.54
00005548 00000116 1152.11 182.70 434.29 611.78 1235.72 425.42 1437.83 458.46 1292.19 547.82 1226.94 632.43 1397.95 659.54
00005549 00000117 1156.52 182.86 433.97 612.86 1240.32 427.15 1438.66 460.66 1293.87 552.19 1232.02 637.01 1391.99 664.70
00005550 00000118 1166.97 193.87 428.66 604.89 1242.96 429.95 1444.73 463.87 1296.94 552.33 1234.66 642.45 1389.28 670.62
00005551 00000119 1169.57 193.66 425.65 605.50 1245.02 433.32 1447.02 464.69 1299.21 552.36 1236.78 647.68 1386.17 674.20
00005552 00000120 1171.97 196.37 423.76 604.47 1245.56 436.34 1446.65 468.30 1298.08 554.53 1236.03 651.59 1382.20 678.98
00005553 00000121 1171.95 196.40 423.73 604.43 1245.61 436.30 1446.69 468.33 1298.15 554.56 1236.07 651.57 1382.23 679.02
00005554 00000122 1173.79 198.11 422.24 601.67 1245.78 437.72 1449.63 470.40 1299.37 559.11 1235.27 654.59 1382.88 682.73
00005555 00000123 1173.89 204.60 426.30 597.72 1246.89 439.46 1453.07 474.15 1301.91 563.49 1236.19 656.38 1385.93 686.04
00005556 00000124 1175.00 208.90 426.83 597.88 1248.30 441.02 1454.79 476.55 1303.79 570.55 1239.07 657.47 1391.23 687.56
00005557 00000125 1173.69 212.34 429.91 596.56 1248.93 443.98 1454.57 479.08 1304.58 571.55 1238.96 658.23 1391.68 688.05
00005558 00000126 1173.75 212.37 429.80 596.59 1248.94 444.05 1454.56 479.17 1304.47 571.54 1238.92 658.20 1391.67 688.03
00005559 00000127 1174.38 209.35 429.94 603.34 1251.99 445.50 1456.24 482.93 1306.77 573.83 1240.58 659.08 1394.13 690.49
00005560 00000128 1178.97 212.35 428.67 601.49 1255.17 448.22 1458.87 485.79 1309.60 577.04 1243.98 660.33 1398.40 691.61
00005561 00000129 1181.77 212.24 427.86 602.86 1261.63 449.82 1459.94 486.89 1313.75 576.64 1249.29 659.72 1399.90 690.41
00005562 00000130 1183.87 211.20 430.39 605.71 1265.09 453.46 1463.35 488.05 1317.95 577.07 1253.32 662.01 1405.08 690.48
00005563 00000131 1183.86 211.13 430.34 605.78 1265.12 453.53 1463.40 488.05 1318.06 577.09 1253.35 662.05 1405.12 690.46
00005564 00000132 1184.95 213.27 432.69 602.93 1265.52 455.85 1465.41 486.85 1321.11 577.97 1257.31 665.89 1408.11 691.48
00005565 00000133 1186.32 212.75 433.67 608.26 1267.74 457.28 1468.14 488.37 1324.70 581.49 1260.63 668.89 1411.93 694.62
00005566 00000134 1188.41 216.53 434.98 606.94 1270.58 459.00 1471.16 490.56 1326.38 582.19 1262.97 674.26 1409.62 700.84
00005567 00000135 1192.14 220.91 438.57 618.66 1279.89 463.98 1472.58 494.42 1330.43 586.17 1271.40 685.27 1412.81 709.64
00005568 00000136 1192.29 220.95 438.44 618.63 1279.89 464.01 1472.57 494.38 1330.43 586.13 1271.36 685.32 1412.81 709.63
00005569 00000137 1196.20 219.46 441.26 632.64 1281.72 468.14 1482.66 493.25 1336.04 585.82 1278.63 697.65 1414.16 718.83
00005570 00000138 1200.27 216.82 442.44 638.57 1284.33 467.17 1486.37 492.94 1339.37 588.28 1281.30 702.11 1416.92 723.89
00005571 00000139 1203.27 216.23 441.94 641.52 1285.34 464.27 1488.15 490.16 1341.77 590.03 1282.29 704.09 1419.41 726.09
00005572 00000140 1204.62 217.54 443.14 642.08 1285.64 465.25 1490.11 488.75 1344.42 592.01 1286.72 707.75 1423.49 727.49
00005573 00000141 1204.62 217.54 443.14 642.08 1285.64 465.25 1490.11 488.75 1344.42 592.01 1286.72 707.75 1423.49 727.49
00005574 00000142 1206.61 217.73 444.23 640.72 1287.29 464.90 1491.30 487.91 1347.03 592.97 1290.47 707.76 1427.58 726.88
00005575 00000143 1206.35 217.01 447.67 641.41 1287.37 465.68 1494.18 487.90 1349.46 594.07 1291.15 708.67 1430.71 727.15
00005576 00000144 1207.95 215.97 444.99 643.33 1287.96 465.26 1494.75 487.51 1350.09 595.11 1291.28 708.97 1433.29 727.40
00005577 00000145 1206.82 214.67 447.18 645.40 1287.71 464.83 1493.17 486.59 1349.39 595.54 1291.38 708.30 1433.48 726.45
00005578 00000146 1207.08 214.58 446.57 645.75 1287.96 464.67 1493.13 486.90 1349.26 595.68 1291.06 708.05 1433.46 726.57
00005579 00000147 1203.98 215.67 446.60 645.68 1284.86 462.69 1491.21 486.83 1345.68 595.77 1286.35 705.47 1432.40 725.46
00005580 00000148 1197.36 216.24 443.59 647.16 1280.91 462.96 1478.72 491.65 1331.72 592.36 1275.20 701.84 1427.38 724.44
00005581 00000149 1200.62 215.00 441.04 642.44 1278.98 457.22 1480.13 488.90 1332.27 593.29 1275.28 695.15 1424.57 721.33
00005582 00000150 1191.36 214.23 448.69 644.86 1276.85 454.25 1477.53 486.10 1328.43 589.40 1269.54 691.30 1425.86 716.47
00005583 00000151 1191.36 214.23 448.68 644.88 1276.82 454.24 1477.54 486.09 1328.42 589.41 1269.51 691.33 1425.89 716.49
00005584 00000152 1190.18 208.50 446.65 639.53 1271.93 448.86 1472.34 483.71 1318.29 587.42 1263.72 689.16 1416.19 718.42
00005585 00000153 1186.42 204.94 443.32 638.73 1260.98 447.79 1470.58 480.11 1319.20 584.47 1259.32 683.52 1416.13 712.04
00005586 00000154 1182.81 201.70 439.22 629.10 1263.33 447.39 1473.17 478.60 1325.84 583.23 1256.68 674.02 1413.29 700.23
00005587 00000155 1180.12 199.38 436.69 626.26 1259.00 444.50 1469.19 475.30 1320.37 581.91 1253.94 670.37 1411.42 695.84
00005588 00000156 1180.12 199.38 436.69 626.26 1259.00 444.50 1469.19 475.30 1320.37 581.91 1253.94 670.37 1411.42 695.84
00005589 00000157 1178.39 198.68 437.91 625.02 1255.58 442.50 1465.63 473.95 1313.67 576.88 1248.01 664.50 1407.76 690.57
00005590 00000158 1174.95 194.81 435.40 619.18 1249.84 437.43 1463.95 468.58 1311.17 572.97 1244.92 660.23 1405.46 686.29
00005591 00000159 1173.80 189.01 434.27 621.69 1246.50 433.20 1461.90 466.19 1307.62 569.59 1238.98 655.27 1402.12 682.73
00005592 00000160 1171.99 184.97 434.16 622.79 1244.44 427.20 1459.94 462.11 1305.37 567.17 1237.08 650.66 1402.19 679.36
00005593 00000161 1171.99 184.97 434.16 622.79 1244.44 427.20 1459.94 462.11 1305.37 567.17 1237.08 650.66 1402.19 679.36
00005594 00000162 1165.38 177.51 438.01 627.11 1244.84 421.90 1453.56 453.77 1300.96 561.52 1242.38 647.47 1406.71 673.63
