Video ID: 	7BbVdCzYxjQ
H: 	1080
W: 	1920
FPS: 	25.0

FRAME INDEX X0 Y0 W H [Landmarks (5 Points)]

00000545 00000000 841.35 150.62 399.41 594.38 944.66 381.35 1127.98 412.96 1016.18 506.67 928.47 590.80 1082.28 616.82
00000546 00000001 840.70 156.72 402.17 590.41 944.04 388.53 1128.15 420.58 1014.16 516.97 927.34 598.24 1080.62 624.39
00000547 00000002 840.25 158.77 402.27 590.53 941.84 392.40 1126.94 422.65 1013.55 523.72 927.36 603.14 1080.56 627.83
00000548 00000003 840.03 160.16 401.09 593.05 938.39 397.48 1125.63 427.60 1009.96 530.34 925.79 608.32 1079.61 632.81
00000549 00000004 839.44 164.61 402.59 599.21 937.52 401.23 1123.44 432.52 1006.69 535.79 924.76 612.48 1077.77 638.19
00000550 00000005 837.89 164.78 404.24 605.73 936.43 404.33 1123.37 435.44 1006.59 538.96 924.75 614.80 1080.27 640.20
00000551 00000006 834.62 166.70 405.02 605.56 932.58 406.41 1122.73 436.28 1004.66 541.91 922.74 617.58 1082.74 641.78
00000552 00000007 831.78 171.74 404.39 600.03 928.47 409.23 1119.94 437.77 1001.44 544.54 920.93 620.55 1081.74 643.72
00000553 00000008 827.26 175.48 403.77 596.68 921.94 411.46 1114.55 437.48 997.37 548.30 919.18 625.43 1079.67 646.58
00000554 00000009 818.87 180.59 406.95 595.47 915.60 418.57 1111.50 442.50 992.51 555.77 916.01 632.96 1078.25 652.49
00000555 DELETE   815.70 189.01 406.27 604.98 909.21 431.16 1104.98 453.67 982.09 564.67 908.98 643.43 1070.22 662.95
00000556 DELETE   803.91 203.66 409.12 595.58 895.99 450.57 1084.17 465.04 971.08 588.18 906.40 664.03 1059.70 674.67
00000557 00000012 797.88 213.36 412.44 590.81 887.27 461.92 1079.03 474.84 964.28 601.30 899.95 674.96 1057.92 684.32
00000558 00000013 795.66 217.52 411.05 589.54 883.10 464.73 1073.04 476.97 958.75 604.36 896.24 678.46 1052.55 687.42
00000559 00000014 794.71 220.05 410.66 587.32 880.19 465.86 1069.41 478.41 954.11 605.44 892.37 679.42 1049.25 688.77
00000560 00000015 793.64 221.26 410.74 582.66 879.11 466.56 1068.31 479.03 953.40 606.05 892.01 680.39 1047.51 689.57
00000561 00000016 793.17 221.76 410.21 580.60 879.21 466.54 1067.06 479.65 952.94 606.55 892.29 680.25 1044.12 689.95
00000562 00000017 792.83 221.68 410.39 581.89 879.80 464.50 1066.67 479.75 952.22 605.99 889.22 675.85 1042.47 687.57
00000563 00000018 793.80 219.05 409.04 583.37 881.51 462.79 1068.21 477.84 954.59 603.99 889.28 673.84 1043.27 685.32
00000564 00000019 792.95 215.88 409.87 585.68 881.13 462.18 1068.85 475.79 956.28 601.93 890.60 674.96 1043.33 685.01
00000565 00000020 793.28 213.34 409.34 585.47 880.11 460.56 1067.57 472.99 954.63 597.20 892.41 674.43 1041.16 683.35
00000566 00000021 793.45 208.64 408.25 584.20 878.74 457.57 1066.54 470.76 953.20 593.43 889.16 672.01 1038.74 681.37
00000567 00000022 793.79 204.07 407.83 585.34 877.58 452.64 1066.10 465.06 952.08 588.45 888.19 666.38 1039.46 675.21
00000568 00000023 792.22 203.77 406.45 584.37 879.64 446.64 1070.20 465.70 951.22 586.49 888.08 653.03 1041.79 669.36
00000569 00000024 795.75 194.52 403.18 589.97 883.77 442.98 1070.28 460.83 952.44 578.12 892.09 650.03 1041.93 665.30
00000570 00000025 795.08 187.63 406.19 595.90 886.91 434.49 1073.64 450.76 957.08 569.32 897.21 646.05 1047.60 659.90
00000571 DELETE   801.42 190.18 401.13 581.94 897.52 425.10 1085.77 436.79 975.13 555.50 910.21 635.45 1063.74 645.51
00000572 00000027 810.15 179.44 400.76 581.50 905.55 416.22 1100.15 424.97 989.33 548.99 920.54 629.89 1078.62 637.61
00000573 00000028 823.80 173.10 402.10 586.71 917.91 405.38 1114.95 419.83 1004.12 537.05 927.14 621.48 1088.91 633.32
00000574 00000029 828.09 169.37 404.88 587.11 922.36 404.13 1120.85 416.27 1011.10 532.76 933.62 616.88 1098.61 626.41
00000575 00000030 831.94 168.05 405.99 591.67 925.44 403.35 1120.60 415.25 1011.10 530.39 935.60 616.19 1096.67 625.53
00000576 00000031 833.53 164.93 404.57 599.01 923.81 400.72 1117.17 412.83 1005.76 527.48 932.76 617.00 1091.94 626.57
00000577 00000032 829.96 164.51 405.93 588.82 920.13 400.32 1114.67 415.99 999.86 523.42 928.26 610.10 1087.95 622.43
00000578 00000033 828.23 160.98 407.10 588.82 918.88 407.25 1104.69 422.22 988.05 522.60 922.75 610.81 1073.02 624.05
00000579 DELETE   826.17 153.88 407.95 594.29 907.00 402.28 1092.38 416.50 965.67 514.70 913.10 610.64 1055.50 623.00
00000580 DELETE   825.45 149.09 409.91 598.09 900.76 392.17 1083.74 408.38 946.13 502.91 897.93 606.48 1038.69 621.11
00000581 00000036 825.26 146.83 406.49 592.58 898.13 382.08 1077.29 403.15 936.65 494.26 891.43 594.18 1031.18 612.89
00000582 00000037 827.87 145.19 405.46 587.99 898.33 373.32 1078.12 397.59 934.11 487.67 888.78 585.42 1028.39 607.09
00000583 00000038 831.31 142.55 404.08 592.81 903.58 371.67 1080.45 394.99 935.53 484.68 893.51 585.70 1030.51 606.84
00000584 00000039 836.35 142.76 401.84 588.72 905.92 371.48 1082.45 391.51 940.70 480.05 897.69 580.99 1032.83 598.47
00000585 00000040 838.83 143.06 402.78 588.66 908.42 371.01 1085.26 389.99 942.54 476.79 900.64 581.92 1034.43 598.50
00000586 00000041 841.89 143.79 401.74 587.07 913.60 370.86 1089.20 390.66 947.46 474.58 904.70 581.42 1037.30 598.56
00000587 00000042 846.67 142.57 402.11 588.69 918.79 370.56 1094.98 391.34 952.69 473.49 909.87 582.92 1040.59 600.68
00000588 00000043 851.62 144.06 401.51 587.94 922.99 369.32 1100.41 393.29 958.99 476.80 912.77 582.11 1045.16 602.18
00000589 00000044 853.61 146.20 402.14 587.07 924.68 369.00 1103.75 397.96 962.09 484.51 911.42 581.03 1047.50 604.91
00000590 00000045 855.22 149.58 401.98 588.32 925.94 371.60 1105.48 400.65 964.53 490.67 913.37 583.98 1050.16 607.73
00000591 00000046 858.15 150.06 401.67 591.71 928.97 375.87 1109.66 403.49 969.07 495.79 917.58 589.26 1054.83 611.82
00000592 00000047 858.60 150.89 397.77 594.49 933.93 383.55 1104.62 409.63 973.99 507.67 921.91 596.33 1059.75 617.67
00000593 00000048 857.83 158.70 402.05 592.09 934.91 391.19 1107.89 415.94 978.93 517.51 925.43 603.86 1064.46 624.03
00000594 00000049 857.36 166.40 401.98 590.92 934.84 398.46 1110.14 423.71 981.62 526.64 925.43 607.62 1069.02 628.26
00000595 00000050 855.32 169.21 403.23 591.61 933.56 402.47 1111.95 426.38 983.56 532.64 927.11 610.98 1075.92 630.22
00000596 00000051 854.84 171.29 404.10 595.79 932.64 404.97 1110.58 429.92 982.64 537.85 926.73 615.06 1075.92 635.19
00000597 00000052 854.27 174.18 402.62 597.11 931.01 407.55 1108.22 432.02 981.03 541.73 926.84 620.71 1073.55 640.55
00000598 00000053 853.71 173.85 402.97 597.61 930.19 409.61 1107.88 433.21 982.38 544.75 927.94 622.63 1075.44 641.72
00000599 00000054 853.24 176.39 401.12 595.52 930.01 410.55 1106.86 434.04 981.81 545.57 927.22 623.40 1073.55 642.49
00000600 00000055 853.52 177.27 400.65 597.21 928.94 411.51 1105.68 434.98 979.73 546.84 925.85 624.18 1073.96 643.16
00000601 00000056 853.16 179.36 400.21 596.76 928.82 413.03 1105.46 437.08 979.80 548.09 925.14 623.99 1075.00 643.37
00000602 00000057 853.15 179.44 399.74 595.04 928.50 413.79 1105.21 437.15 980.48 547.74 926.02 624.96 1074.01 643.91
00000603 00000058 852.90 178.49 399.80 595.22 928.54 413.50 1105.05 435.56 981.14 547.06 928.35 626.89 1072.96 644.98
00000604 00000059 853.00 177.71 396.68 593.54 929.63 416.26 1105.04 439.54 984.09 548.99 931.40 627.34 1074.52 646.30
00000605 00000060 855.64 178.86 393.94 592.10 933.22 418.01 1109.29 443.22 988.09 549.65 934.61 626.47 1078.27 647.46
00000606 00000061 856.24 180.22 396.73 594.10 937.07 415.64 1113.67 438.84 994.04 547.89 938.58 628.42 1080.52 648.29
00000607 00000062 854.66 181.75 400.51 592.22 937.40 411.52 1120.62 432.74 999.41 548.24 938.88 627.39 1087.25 645.66
00000608 00000063 853.05 181.55 403.13 590.27 938.67 410.00 1124.16 430.14 1003.64 546.73 939.67 623.42 1092.82 640.77
00000609 00000064 852.80 179.09 402.51 591.46 939.47 408.22 1125.02 427.07 1005.96 544.44 941.15 622.68 1094.21 638.98
00000610 00000065 852.97 174.77 402.63 595.97 941.39 406.90 1123.97 425.10 1007.64 541.52 943.17 623.31 1092.86 639.07
00000611 00000066 854.77 174.22 402.13 598.95 944.86 406.40 1122.74 425.06 1008.27 539.27 947.75 626.74 1088.09 643.30
00000612 00000067 854.79 174.12 402.65 599.44 945.93 406.03 1123.69 425.03 1010.10 539.29 949.10 627.72 1088.49 644.61
00000613 00000068 853.51 174.27 402.88 593.64 945.45 407.29 1124.69 425.11 1011.93 538.46 948.66 626.29 1090.03 642.07
00000614 00000069 853.66 174.33 402.63 592.83 944.19 407.64 1124.97 424.66 1010.47 537.10 946.82 625.37 1090.87 640.39
00000615 00000070 853.73 174.61 402.06 591.77 944.88 407.55 1125.25 425.11 1010.77 536.63 946.63 624.52 1090.58 640.06
00000616 00000071 854.06 174.58 401.54 592.47 945.00 407.56 1125.89 425.25 1010.97 536.23 945.94 623.79 1090.89 639.42
00000617 00000072 853.82 174.90 401.91 593.18 944.85 407.37 1125.84 425.63 1010.82 536.36 945.27 623.76 1090.29 639.88
00000618 00000073 853.95 175.03 401.25 595.13 945.07 406.89 1125.97 426.02 1010.39 537.58 944.73 624.09 1090.28 640.93
00000619 00000074 853.89 176.77 401.53 595.95 944.76 407.47 1127.52 427.66 1009.95 539.61 943.60 625.46 1090.81 643.23
00000620 00000075 853.95 179.57 402.01 595.41 945.78 408.62 1130.24 430.35 1012.35 542.52 944.00 626.03 1092.62 645.05
00000621 00000076 854.25 184.42 400.72 592.96 945.45 411.58 1131.10 434.42 1013.32 548.33 945.06 631.31 1094.24 651.24
00000622 00000077 852.59 189.51 403.10 592.89 945.83 415.71 1134.69 438.66 1015.13 555.37 945.47 636.82 1095.34 656.97
00000623 00000078 852.28 189.98 403.70 591.87 945.62 416.48 1133.82 439.06 1014.62 555.15 945.55 637.37 1094.43 657.22
00000624 00000079 852.86 187.22 401.54 592.54 944.84 413.77 1131.15 436.22 1012.89 549.84 943.98 633.46 1092.89 653.08
00000625 00000080 852.58 182.88 401.43 593.55 943.38 410.15 1127.12 431.61 1009.34 542.73 942.94 626.83 1091.37 645.48
00000626 00000081 850.69 176.45 403.53 596.77 941.81 407.15 1124.89 426.99 1008.24 537.67 941.39 623.54 1090.90 640.60
00000627 00000082 850.15 171.85 403.91 598.54 941.08 405.45 1123.36 425.70 1005.79 534.22 938.54 619.62 1088.67 636.70
00000628 00000083 850.12 170.09 402.67 596.94 940.34 403.72 1122.08 423.18 1004.82 532.05 937.75 617.25 1087.49 633.59
00000629 00000084 850.00 170.17 402.54 595.98 940.21 403.39 1122.19 422.63 1004.91 531.85 937.78 616.71 1087.80 632.87
00000630 00000085 850.76 169.84 402.51 596.92 941.59 403.99 1123.57 424.48 1006.20 531.93 937.59 616.48 1088.74 633.66
00000631 00000086 854.13 174.36 401.26 592.45 943.81 403.82 1125.84 424.95 1008.29 533.75 939.47 616.81 1090.99 634.83
00000632 00000087 856.78 175.16 399.18 591.84 949.21 402.71 1132.09 425.90 1015.45 535.10 943.96 616.76 1095.47 636.74
00000633 00000088 860.51 177.36 397.27 590.01 954.59 402.26 1137.16 427.27 1020.68 536.08 947.99 615.74 1100.40 637.20
00000634 00000089 862.27 178.59 398.65 587.26 958.15 400.16 1141.41 426.13 1024.85 534.27 950.59 613.25 1103.77 635.52
00000635 00000090 864.17 177.08 398.65 588.17 961.54 400.04 1145.46 426.61 1028.90 534.33 953.38 612.47 1107.79 635.17
00000636 00000091 864.57 179.19 397.32 587.36 960.94 401.61 1144.07 427.62 1027.73 535.73 953.89 614.23 1107.17 636.50
00000637 00000092 863.65 183.12 396.35 584.04 958.16 404.09 1141.43 429.37 1025.23 538.49 952.41 617.80 1104.00 639.76
00000638 00000093 862.14 180.59 396.41 575.34 955.56 402.92 1138.17 425.44 1022.45 533.19 951.50 615.94 1100.60 635.38
00000639 00000094 859.15 166.62 399.92 577.43 951.76 397.50 1134.52 416.83 1018.72 525.27 948.50 610.04 1095.92 626.46
00000640 00000095 857.69 162.84 399.90 579.83 948.86 392.94 1131.06 412.80 1015.03 518.41 944.71 603.49 1093.09 620.30
00000641 00000096 854.37 165.21 400.06 577.10 945.23 396.36 1127.89 416.53 1010.61 521.27 940.63 603.93 1091.87 620.88
00000642 00000097 849.33 167.45 401.05 575.17 940.82 401.13 1123.27 419.96 1007.89 523.95 938.63 605.56 1089.10 621.22
00000643 00000098 847.71 167.73 401.58 575.62 939.76 395.44 1121.81 415.49 1005.09 517.53 936.48 602.20 1085.61 618.91
00000644 00000099 847.52 160.59 400.80 583.89 938.34 389.70 1119.77 409.61 1001.89 509.29 932.78 602.03 1080.91 618.54
00000645 00000100 845.46 160.27 399.57 583.05 935.68 389.63 1115.58 408.87 1001.03 510.14 933.48 601.93 1076.22 618.13
00000646 00000101 844.53 159.60 394.41 582.65 930.97 389.42 1109.51 408.95 994.80 510.58 930.64 602.06 1068.77 618.80
00000647 00000102 837.79 155.59 402.59 586.21 920.30 387.68 1103.18 404.63 974.91 503.59 924.54 605.93 1056.19 621.11
00000648 00000103 833.39 150.64 402.66 585.97 910.16 385.62 1090.82 401.48 960.22 500.75 913.80 600.99 1045.55 615.10
00000649 00000104 831.56 147.19 400.34 586.64 902.82 381.64 1084.04 395.71 948.74 496.21 906.27 599.30 1039.85 612.35
00000650 00000105 831.36 146.24 398.68 587.38 900.40 379.59 1079.86 393.11 943.16 493.34 904.05 596.79 1036.36 609.51
00000651 00000106 832.67 145.46 395.89 587.30 900.21 377.38 1077.82 391.97 939.54 491.50 902.65 593.53 1035.52 607.21
00000652 00000107 835.52 145.17 394.17 585.85 902.65 374.33 1077.95 390.67 938.97 489.43 902.17 588.49 1034.41 603.85
00000653 00000108 838.76 146.04 393.52 580.62 906.00 372.07 1078.77 388.18 939.62 484.35 904.82 584.60 1033.90 599.69
00000654 00000109 842.74 146.20 392.52 574.42 908.11 370.87 1082.37 386.75 946.46 479.63 907.43 578.30 1035.94 592.44
00000655 00000110 844.38 141.30 393.33 576.36 911.20 366.54 1077.34 385.23 942.69 477.78 909.17 572.85 1036.75 588.85
00000656 00000111 844.06 134.68 394.55 578.16 909.49 361.35 1075.42 378.94 940.53 469.86 906.41 568.98 1034.71 583.92
00000657 00000112 843.70 132.85 395.32 583.27 908.73 360.63 1075.19 377.65 938.58 467.98 904.74 570.71 1032.95 585.38
00000658 00000113 844.08 142.37 392.62 576.83 909.81 367.63 1075.91 388.49 939.84 479.38 904.83 574.00 1031.65 591.85
00000659 00000114 844.34 144.20 393.51 585.13 909.49 376.17 1078.44 400.42 934.71 493.21 900.61 585.11 1032.60 606.62
00000660 00000115 846.96 149.15 393.35 588.10 913.82 386.29 1080.35 408.18 937.32 497.17 907.14 592.75 1036.22 611.96
00000661 00000116 848.93 154.35 393.65 592.73 920.07 387.58 1089.91 410.65 949.94 501.00 912.04 600.77 1040.69 621.07
00000662 00000117 849.51 159.80 391.36 585.62 923.86 387.55 1095.78 412.00 968.00 508.95 915.15 595.28 1056.80 614.83
00000663 00000118 848.35 162.24 396.14 587.00 927.36 389.55 1101.83 415.53 976.64 518.08 920.94 595.71 1068.22 616.31
00000664 00000119 846.89 166.69 399.26 582.32 928.59 393.17 1106.90 420.40 982.03 525.58 921.40 597.47 1071.71 619.23
00000665 00000120 846.42 167.20 400.48 583.38 930.01 396.93 1110.80 422.47 987.03 528.48 924.87 603.18 1073.44 623.73
00000666 00000121 845.94 168.09 401.11 584.71 929.93 398.79 1110.72 422.70 988.22 530.05 926.68 607.42 1072.37 626.76
00000667 00000122 844.06 168.19 402.00 588.48 927.90 400.17 1110.81 422.34 987.65 531.32 926.10 612.42 1071.61 630.38
00000668 00000123 841.93 168.65 401.48 587.44 926.84 401.56 1112.17 427.79 987.33 538.11 923.61 611.33 1075.22 632.25
00000669 00000124 841.95 170.10 400.65 589.87 928.43 408.87 1113.30 438.53 987.97 542.44 922.93 611.91 1080.10 635.15
00000670 00000125 842.35 173.75 400.77 588.12 931.05 412.11 1113.38 441.74 991.17 544.61 925.71 613.61 1080.79 636.98
00000671 00000126 844.89 179.45 399.64 583.46 933.68 414.71 1114.98 445.62 993.02 548.30 926.81 614.36 1081.37 639.14
00000672 00000127 844.39 184.45 404.43 586.76 936.31 419.52 1121.55 451.12 997.63 553.50 927.16 619.55 1084.01 645.54
00000673 00000128 848.19 192.02 402.83 586.85 940.02 426.23 1124.31 456.55 1001.51 560.99 930.19 628.09 1083.33 653.90
00000674 00000129 848.68 200.02 402.76 583.04 940.45 432.82 1125.93 461.61 1006.25 567.72 930.92 635.08 1083.65 659.87
00000675 00000130 847.40 203.11 403.40 583.02 940.21 438.97 1127.56 467.25 1009.06 574.91 932.19 641.36 1085.40 665.69
00000676 00000131 846.81 204.78 405.48 584.42 940.81 442.28 1129.47 470.71 1010.99 579.77 931.83 645.43 1086.20 669.86
00000677 00000132 846.63 206.99 406.80 585.08 940.95 445.23 1130.85 472.14 1013.10 584.02 932.27 648.92 1087.69 672.21
00000678 00000133 845.67 210.02 408.00 582.03 941.08 447.21 1131.54 474.10 1014.10 587.55 931.98 650.25 1087.83 673.62
00000679 00000134 845.64 212.07 409.17 581.53 940.53 448.68 1131.91 476.16 1013.24 590.31 931.03 652.18 1087.54 675.95
00000680 00000135 845.68 211.32 409.91 581.91 940.59 450.01 1132.17 476.80 1014.26 593.08 932.09 654.26 1087.85 677.43
00000681 00000136 845.83 216.54 410.38 576.15 938.90 451.30 1131.54 478.23 1011.66 595.54 930.86 655.49 1087.49 678.86
00000682 00000137 843.78 214.58 411.10 577.23 937.90 450.57 1130.28 477.52 1010.77 593.28 929.20 654.22 1086.16 677.56
00000683 00000138 842.51 213.78 412.71 580.69 937.31 450.81 1128.42 477.85 1008.32 590.99 927.60 652.95 1084.14 676.44
00000684 00000139 842.44 213.59 413.07 582.37 936.43 449.91 1126.64 478.36 1005.47 590.74 925.85 652.06 1082.61 676.59
00000685 00000140 840.54 214.79 414.26 581.68 934.98 448.63 1127.10 479.14 1003.50 591.89 921.44 650.06 1082.09 676.17
00000686 00000141 840.91 213.21 413.71 580.42 935.68 448.04 1128.02 478.70 1004.76 591.59 922.99 649.92 1082.70 676.07
00000687 00000142 842.86 209.55 412.04 585.62 937.72 447.35 1126.73 477.87 1005.73 588.22 924.23 649.59 1081.45 675.58
00000688 00000143 847.79 217.43 411.80 577.72 944.84 448.29 1129.42 483.03 1009.08 591.20 928.94 646.95 1081.95 676.63
00000689 DELETE   856.57 216.94 409.33 577.24 956.29 448.53 1144.24 485.83 1021.15 592.72 936.82 646.50 1093.64 678.35
00000690 DELETE   864.31 213.10 409.17 584.07 968.65 448.78 1157.85 489.94 1036.32 599.33 947.09 650.74 1103.08 685.64
00000691 DELETE   869.48 213.50 411.89 579.49 975.88 449.14 1168.86 488.95 1047.74 599.60 959.07 655.95 1113.80 689.51
00000692 00000147 873.86 214.38 410.32 577.49 983.02 447.60 1173.84 489.00 1056.11 601.33 967.02 654.57 1119.81 689.51
00000693 00000148 876.07 212.55 408.20 582.13 984.48 443.49 1173.33 487.26 1055.81 599.35 966.56 650.95 1120.74 688.00
00000694 00000149 875.40 211.41 406.77 582.39 982.51 444.34 1170.98 488.46 1053.34 599.32 965.72 650.81 1119.54 687.86
00000695 00000150 873.78 209.91 405.84 581.03 978.51 444.52 1167.38 485.17 1050.09 596.41 966.07 649.70 1120.19 683.67
00000696 00000151 870.88 207.42 404.54 583.33 974.03 443.83 1161.73 480.51 1045.64 591.85 965.70 650.85 1116.88 681.36
00000697 DELETE   870.03 209.44 399.61 582.44 970.96 446.47 1155.06 478.98 1042.08 591.10 962.52 650.20 1111.83 677.77
00000698 00000153 863.73 204.11 401.05 591.15 965.23 440.60 1152.52 472.90 1038.97 586.45 953.36 647.67 1107.72 675.11
CROP_BBOX: 457 0 1547 1026
