Video ID: 	Z2LIsBbYt94
H: 	1080
W: 	1920
FPS: 	25.0

FRAME INDEX X0 Y0 W H [Landmarks (5 Points)]

00007795 00000000 813.86 127.24 361.39 525.46 874.52 360.53 1013.31 333.24 921.59 417.00 910.64 533.62 1022.89 513.66
00007796 00000001 812.30 126.17 364.91 525.51 872.56 360.56 1014.87 333.39 921.38 419.20 909.06 530.28 1027.71 509.66
00007797 00000002 810.53 127.17 365.81 521.62 871.47 359.67 1015.57 335.11 921.30 419.21 906.15 526.73 1026.82 508.14
00007798 00000003 811.21 131.36 363.19 517.96 872.72 361.86 1017.30 339.43 921.62 420.25 903.63 525.48 1024.88 508.77
00007799 00000004 810.47 131.27 362.58 517.49 871.87 362.33 1015.80 339.25 921.89 420.44 905.39 526.68 1025.03 509.49
00007800 00000005 809.11 132.20 362.39 519.12 870.49 362.33 1014.21 335.41 921.44 418.28 905.67 529.66 1024.59 509.61
00007801 00000006 808.04 130.85 360.63 523.58 867.11 361.01 1008.87 331.77 916.49 414.75 904.32 532.15 1021.11 510.59
00007802 DELETE   803.67 127.55 362.09 527.86 861.22 359.70 1002.35 325.28 909.95 409.24 901.94 531.85 1021.16 505.66
00007803 00000008 799.59 126.69 360.51 524.88 856.39 357.28 996.61 322.74 901.97 404.93 896.74 527.75 1016.77 501.33
00007804 00000009 797.11 124.45 358.50 522.54 854.35 357.08 995.67 323.97 901.67 404.86 894.99 526.57 1013.66 501.53
00007805 00000010 796.01 124.47 359.62 519.48 853.58 356.55 995.61 325.04 902.01 404.44 892.89 523.39 1012.93 499.56
00007806 00000011 794.91 125.49 360.05 510.52 853.90 355.15 995.76 324.13 902.41 403.61 891.01 519.99 1011.39 496.33
00007807 00000012 799.10 120.31 360.07 511.93 857.66 362.71 999.54 320.71 893.21 402.54 893.96 527.74 1012.39 493.15
00007808 00000013 798.52 120.08 359.55 510.45 857.77 362.75 999.49 321.68 894.43 404.15 893.32 527.62 1011.63 493.97
00007809 00000014 797.61 121.20 359.61 509.60 857.44 364.13 999.39 323.10 895.07 405.41 892.70 528.79 1010.16 495.31
00007810 00000015 795.87 122.72 363.04 516.30 858.76 367.25 998.80 325.07 897.41 406.06 897.62 532.90 1009.51 498.22
00007811 00000016 792.50 128.32 357.04 519.01 851.62 363.08 991.63 330.97 902.62 412.13 894.84 532.86 1008.25 509.00
00007812 00000017 791.35 129.37 360.26 519.00 851.61 364.25 990.95 334.83 901.82 414.11 893.91 531.42 1007.28 509.51
00007813 00000018 790.35 130.44 361.38 518.27 851.31 365.09 992.13 334.44 902.93 413.91 893.81 532.85 1007.90 509.99
00007814 00000019 791.32 127.97 360.73 522.31 851.66 364.68 992.92 333.04 903.05 414.20 894.13 534.22 1009.48 510.61
00007815 00000020 791.28 129.01 360.71 522.81 851.56 364.34 992.20 333.01 902.74 415.27 894.36 535.62 1009.07 512.32
00007816 00000021 790.87 130.24 362.09 519.49 850.90 364.85 993.95 333.90 902.65 416.93 892.49 533.67 1010.87 510.43
00007817 00000022 790.84 129.98 362.28 518.42 851.42 365.59 994.66 334.72 903.47 417.36 892.63 533.85 1010.63 510.71
00007818 00000023 791.93 128.92 361.64 520.61 851.55 365.55 995.60 334.44 903.33 417.18 893.15 534.77 1011.68 511.40
00007819 00000024 791.70 129.06 362.15 520.96 852.57 365.17 996.34 334.63 905.07 417.20 894.41 534.92 1012.15 512.07
00007820 00000025 792.16 129.51 361.51 523.22 854.34 365.60 996.33 336.01 908.66 417.49 896.34 535.96 1011.24 514.11
00007821 00000026 793.26 129.56 360.23 526.46 855.97 364.73 995.94 336.25 910.45 418.17 898.62 539.10 1009.09 518.36
00007822 00000027 794.52 128.99 360.19 527.04 856.85 365.10 997.06 336.02 911.48 418.60 900.33 539.53 1010.76 518.25
00007823 00000028 795.51 129.29 359.15 526.02 857.66 365.19 998.09 336.44 912.30 418.77 900.46 538.38 1011.81 517.32
00007824 00000029 795.93 129.51 360.21 527.64 857.88 365.07 998.69 336.19 912.32 419.31 900.77 539.61 1012.91 518.30
00007825 00000030 796.68 129.83 360.65 529.34 858.87 365.71 999.84 336.11 913.50 419.59 901.54 540.63 1014.06 518.76
00007826 00000031 797.12 129.37 362.11 526.21 859.00 366.06 1002.00 336.40 913.75 419.89 900.39 537.34 1016.68 515.30
00007827 00000032 797.37 128.95 362.08 524.22 858.69 365.61 1002.77 336.23 913.11 420.04 899.34 535.75 1017.24 513.82
00007828 00000033 797.53 128.29 362.57 525.68 858.63 365.94 1003.08 335.36 913.54 419.14 900.04 536.18 1018.62 513.23
00007829 00000034 797.46 128.56 362.72 525.18 858.97 365.75 1003.39 335.11 914.32 418.69 900.46 535.98 1018.86 513.06
00007830 00000035 797.17 129.01 362.68 524.04 859.11 365.75 1003.16 335.31 914.84 418.80 900.83 535.80 1018.54 513.09
00007831 00000036 797.17 129.92 360.93 521.89 859.63 364.47 1002.13 336.63 915.88 419.04 900.59 535.08 1015.43 514.68
00007832 00000037 797.23 130.21 359.53 526.61 859.20 364.58 999.67 336.68 914.62 419.21 901.18 538.91 1012.76 518.57
00007833 00000038 796.70 129.35 359.61 528.65 858.21 364.84 999.84 337.27 913.46 420.17 900.73 539.47 1013.62 519.20
00007834 00000039 796.48 129.21 358.95 528.20 857.90 364.50 999.64 337.66 913.15 420.32 900.13 538.92 1013.12 519.28
00007835 00000040 796.48 130.01 358.98 529.13 857.35 365.12 999.08 337.70 912.09 421.20 899.93 540.40 1012.61 520.29
00007836 00000041 796.47 129.40 358.72 527.57 856.94 364.74 999.85 338.29 912.14 421.50 898.87 538.27 1013.59 518.89
00007837 00000042 795.74 129.23 359.64 523.06 856.08 365.28 1001.98 337.67 911.78 421.43 897.28 535.36 1016.06 514.92
00007838 00000043 795.84 128.92 359.79 523.46 856.35 365.21 1001.77 337.52 911.09 421.04 896.98 535.20 1015.64 514.66
00007839 00000044 795.60 129.90 359.10 520.18 856.52 365.67 1002.65 338.07 912.51 421.09 897.13 534.91 1015.36 514.62
00007840 00000045 795.67 130.35 357.99 518.39 857.59 367.28 1001.95 341.20 914.23 421.13 897.90 533.20 1014.95 514.24
00007841 00000046 795.52 129.53 358.10 521.55 857.93 365.74 1000.94 343.33 913.45 420.93 896.46 533.29 1011.48 517.45
00007842 00000047 794.15 130.56 358.68 522.81 857.02 367.22 1000.24 341.04 914.32 420.08 897.89 537.21 1011.26 518.46
00007843 00000048 794.15 130.53 358.55 523.55 857.59 366.29 1000.72 339.39 915.58 419.88 899.17 537.64 1012.30 518.26
00007844 00000049 793.20 129.65 362.05 519.43 858.40 364.85 1002.07 341.60 915.58 419.74 897.98 530.36 1014.25 513.69
00007845 00000050 793.21 127.48 364.76 521.71 858.34 364.03 1001.82 339.49 915.38 419.53 898.23 528.30 1016.48 510.15
00007846 00000051 792.46 128.36 366.16 518.96 857.34 365.88 1004.59 335.72 917.75 416.66 899.95 529.03 1021.29 506.11
00007847 00000052 791.78 128.36 367.76 519.09 857.66 365.72 1005.67 334.74 920.02 416.50 900.86 529.32 1023.00 505.69
00007848 00000053 793.40 128.50 367.27 516.74 859.69 364.91 1006.62 335.88 920.95 416.83 901.92 527.31 1023.31 505.19
00007849 00000054 793.09 129.74 367.62 514.71 859.70 366.22 1007.61 335.02 922.02 416.13 902.12 528.60 1023.83 504.80
00007850 00000055 793.16 129.83 365.34 520.92 860.76 364.60 1005.14 335.88 922.94 415.40 903.85 531.14 1020.50 509.94
00007851 00000056 794.85 127.92 364.37 527.46 862.34 363.40 1004.27 336.24 923.12 414.61 906.72 532.81 1021.02 512.86
00007852 00000057 794.18 128.59 365.29 528.38 860.61 364.76 1005.23 333.08 922.84 413.95 907.35 534.71 1024.09 510.95
00007853 00000058 794.16 127.96 366.60 528.60 860.17 364.09 1006.56 329.10 923.23 412.43 907.88 535.40 1027.00 508.87
00007854 00000059 794.55 128.72 366.19 526.99 860.57 363.44 1006.49 328.87 923.37 411.57 907.47 533.98 1026.81 507.82
00007855 00000060 795.78 126.64 365.13 527.98 861.76 362.36 1005.54 333.27 921.88 411.92 905.87 530.31 1024.28 508.55
00007856 00000061 796.38 127.18 364.40 528.38 861.65 362.68 1004.65 332.31 921.24 411.30 906.10 531.71 1023.53 509.03
00007857 00000062 795.70 128.56 364.37 527.30 861.37 362.28 1006.69 329.07 923.00 410.74 907.01 534.34 1025.36 509.45
00007858 00000063 796.24 127.54 364.34 529.21 861.68 361.24 1007.68 327.53 923.11 410.19 907.12 535.19 1026.62 509.91
00007859 00000064 796.52 125.55 364.34 532.14 862.64 359.44 1008.19 326.89 923.80 410.00 907.72 534.95 1026.77 510.56
00007860 00000065 796.52 125.87 364.55 532.59 862.51 358.59 1008.46 325.98 924.05 409.43 907.83 534.76 1027.29 510.31
00007861 00000066 797.12 126.05 364.15 532.18 862.63 357.39 1008.83 325.60 923.89 409.55 907.35 534.25 1027.02 510.46
00007862 00000067 798.16 124.91 363.50 531.99 863.46 356.95 1010.10 325.19 925.33 409.19 908.30 533.86 1028.21 510.14
00007863 00000068 798.63 124.25 361.99 532.74 863.42 356.27 1010.40 324.65 925.27 408.92 908.89 533.84 1028.39 510.34
00007864 00000069 798.96 124.37 362.69 532.69 863.29 355.60 1011.02 323.28 925.31 409.14 909.83 533.94 1029.89 509.83
00007865 00000070 799.45 125.00 363.20 531.48 863.34 356.01 1011.05 324.10 924.44 409.64 908.84 533.14 1029.45 509.33
00007866 00000071 799.82 125.00 363.22 530.89 863.15 357.47 1010.41 325.84 923.64 410.46 907.36 532.03 1029.06 508.30
00007867 00000072 800.22 125.27 361.82 530.73 862.54 358.76 1008.69 330.19 920.81 412.82 904.61 531.59 1026.25 510.39
00007868 00000073 800.31 124.90 361.01 534.20 861.53 360.93 1005.71 334.68 918.10 417.84 902.92 534.68 1022.18 515.31
00007869 00000074 800.19 126.15 360.21 532.33 860.98 361.22 1006.54 338.11 915.89 421.13 898.92 534.15 1019.72 517.25
00007870 00000075 799.88 126.61 359.84 529.39 859.62 361.57 1007.07 340.73 912.92 422.70 894.70 532.84 1016.85 517.87
00007871 00000076 801.12 128.22 359.02 528.92 859.35 362.89 1006.23 343.80 909.76 425.80 891.48 535.75 1012.39 522.39
00007872 00000077 801.97 130.10 356.32 533.48 860.85 364.48 1004.86 346.55 909.56 428.40 891.99 540.87 1008.05 528.68
00007873 00000078 803.57 133.09 354.89 533.96 862.23 365.85 1004.52 348.39 910.14 432.21 893.61 543.88 1006.65 532.15
00007874 00000079 804.16 133.53 355.03 535.63 862.48 366.15 1003.44 347.70 909.75 432.99 895.24 545.45 1007.13 532.87
00007875 00000080 804.26 135.57 355.79 531.13 862.55 365.44 1004.55 347.83 909.89 432.43 894.33 543.84 1006.44 531.99
00007876 00000081 805.76 135.15 355.85 532.11 863.83 365.73 1005.78 347.61 910.94 432.08 895.85 543.84 1007.93 531.59
00007877 00000082 807.03 134.93 356.80 535.68 864.03 367.21 1006.54 348.05 910.20 434.35 896.90 546.50 1009.12 533.28
00007878 00000083 806.69 135.66 358.58 534.26 865.05 366.81 1008.49 350.97 911.49 438.68 896.06 545.27 1008.74 534.60
00007879 00000084 807.33 137.79 359.01 529.57 866.14 366.49 1011.35 354.08 911.28 441.21 894.21 542.77 1008.67 534.90
00007880 00000085 815.08 145.15 357.24 524.27 873.38 372.91 1014.64 358.46 908.52 430.92 902.13 547.99 1002.73 534.57
00007881 00000086 814.49 146.65 359.31 527.29 873.75 373.59 1016.09 362.11 910.03 435.33 901.94 553.08 1001.42 542.01
00007882 00000087 815.29 147.83 358.90 532.96 875.77 373.84 1018.10 365.55 912.33 439.89 903.59 556.27 1002.58 547.77
00007883 00000088 816.72 147.58 360.72 538.82 879.78 376.51 1023.58 370.58 916.46 441.67 903.79 558.11 1004.57 551.72
00007884 00000089 818.42 150.91 360.71 537.68 882.01 378.14 1025.96 373.04 918.75 441.90 905.49 558.27 1007.58 552.51
00007885 00000090 819.34 149.59 361.52 541.23 883.01 378.37 1029.07 372.67 920.36 440.95 905.71 557.37 1010.82 551.18
00007886 00000091 821.37 150.44 361.36 540.25 884.40 376.60 1032.44 372.65 922.19 440.29 905.73 555.25 1012.74 550.58
00007887 00000092 822.86 150.80 359.83 539.67 885.53 375.24 1034.95 371.75 923.04 438.42 906.02 554.71 1014.32 550.48
00007888 00000093 825.01 149.76 359.82 534.10 880.96 373.65 1029.24 364.26 922.48 447.75 899.40 554.00 1020.23 548.73
00007889 00000094 825.90 149.64 357.31 535.28 888.01 375.73 1037.79 372.41 925.28 438.40 907.16 553.03 1015.24 549.23
00007890 00000095 826.49 149.21 359.87 536.13 882.54 373.87 1030.70 364.17 924.02 447.33 900.79 554.02 1021.63 548.55
00007891 00000096 826.42 150.92 358.85 536.93 888.93 376.02 1039.68 373.73 927.28 440.47 906.40 553.51 1015.68 550.70
00007892 00000097 829.22 151.33 357.80 529.93 891.91 377.07 1042.72 376.37 931.15 442.84 908.06 548.29 1020.39 546.75
00007893 00000098 831.28 149.47 358.45 530.48 894.42 378.18 1047.50 379.12 936.08 446.72 908.63 546.07 1024.31 545.91
00007894 00000099 832.97 148.44 359.04 532.99 897.62 378.70 1052.03 382.10 941.67 451.71 909.96 545.98 1026.46 547.95
00007895 00000100 836.53 154.27 358.95 530.19 902.31 380.32 1057.21 387.34 947.18 455.82 912.85 545.35 1031.55 550.45
00007896 00000101 845.55 161.32 354.82 520.85 909.55 377.62 1060.64 381.23 959.48 465.70 920.18 550.70 1049.46 555.25
00007897 00000102 845.56 154.24 357.45 531.36 920.35 376.89 1074.28 392.77 970.66 468.03 925.72 544.55 1053.64 557.81
00007898 00000103 851.57 149.87 357.81 527.05 929.16 370.72 1085.40 388.73 982.15 460.80 930.36 538.22 1058.92 553.68
00007899 DELETE   857.71 138.43 360.14 533.29 937.89 362.13 1095.09 379.00 991.88 450.66 939.18 531.45 1068.80 546.49
00007900 00000105 863.26 127.21 359.28 534.78 950.31 349.00 1105.11 363.46 1006.06 430.58 951.51 523.18 1074.59 537.62
00007901 00000106 869.47 121.42 358.47 532.96 955.49 337.67 1112.30 355.03 1009.39 418.59 952.21 512.41 1078.41 529.29
00007902 00000107 873.25 120.13 358.19 526.35 958.00 329.64 1113.98 348.76 1010.91 411.86 953.55 505.12 1080.62 523.60
00007903 00000108 872.92 120.91 359.00 526.65 957.56 333.69 1114.76 352.46 1011.12 415.86 953.99 507.05 1082.38 525.10
00007904 00000109 871.84 121.73 357.31 534.07 956.80 339.76 1113.81 358.66 1009.42 423.86 953.58 513.50 1081.13 531.66
00007905 00000110 869.43 126.56 358.05 529.90 954.67 343.82 1111.01 364.53 1007.21 430.13 952.10 514.87 1079.78 534.32
00007906 00000111 867.32 125.57 358.85 529.42 948.92 345.05 1106.96 366.31 999.63 430.58 946.63 513.90 1077.05 533.49
00007907 00000112 866.62 125.76 358.76 527.68 945.56 346.07 1102.67 364.06 995.37 428.05 945.60 515.88 1073.70 532.88
00007908 00000113 866.20 126.89 358.72 523.41 941.37 345.24 1096.68 359.84 987.77 422.18 941.55 514.16 1069.07 528.28
00007909 00000114 869.53 122.11 355.37 525.45 939.83 333.51 1091.54 345.55 980.74 409.72 939.97 509.52 1062.68 521.66
00007910 00000115 874.58 123.50 350.19 515.99 938.50 322.88 1083.13 330.59 973.84 393.69 938.35 500.56 1055.29 509.34
00007911 00000116 877.12 123.74 351.41 512.79 942.41 318.92 1087.17 326.88 978.28 387.34 941.90 495.85 1059.95 504.87
00007912 00000117 878.87 124.06 357.62 510.02 948.58 320.80 1098.61 335.73 987.14 393.89 943.01 492.76 1068.56 507.72
00007913 00000118 880.77 126.73 361.53 507.14 952.91 324.56 1102.99 340.71 990.69 398.64 945.21 493.64 1072.04 509.63
00007914 00000119 881.26 125.43 361.45 510.61 952.77 327.56 1104.11 343.37 991.47 400.80 946.30 498.34 1073.57 514.17
00007915 00000120 883.26 125.19 359.15 516.13 953.39 329.60 1102.71 343.70 990.25 404.48 948.63 506.32 1070.92 520.83
00007916 00000121 882.82 127.39 360.73 516.42 954.50 333.63 1104.61 347.23 993.21 409.52 950.83 510.76 1071.73 524.81
00007917 00000122 882.33 128.56 361.83 520.58 954.60 338.44 1106.95 351.18 994.36 412.87 949.94 514.62 1071.62 528.19
00007918 00000123 882.77 131.05 359.36 523.04 955.25 342.31 1107.04 352.54 994.75 415.08 950.41 518.55 1069.90 530.29
00007919 00000124 883.20 130.11 357.57 526.12 955.70 343.61 1106.27 353.56 995.14 416.41 950.88 520.41 1069.04 532.00
00007920 00000125 883.17 129.81 357.46 526.56 955.60 343.98 1106.72 355.23 994.75 418.15 950.17 520.34 1069.06 532.93
00007921 00000126 883.06 130.00 357.32 527.39 955.42 344.73 1107.27 356.15 994.33 418.51 949.73 520.51 1069.67 533.26
00007922 00000127 883.00 130.86 356.96 529.08 955.42 345.47 1106.69 356.58 993.73 419.48 949.75 521.97 1069.01 534.58
00007923 00000128 881.29 129.53 357.21 527.64 956.09 345.01 1107.69 359.03 995.68 420.03 949.67 518.39 1071.38 533.11
00007924 00000129 880.30 131.43 358.27 524.37 955.92 345.51 1108.14 361.85 995.53 422.54 948.55 516.36 1072.07 532.83
00007925 00000130 879.61 131.48 357.29 526.11 955.91 347.24 1107.10 361.60 996.62 423.34 949.71 519.40 1070.54 534.41
00007926 00000131 878.40 131.31 358.50 528.41 955.86 348.26 1106.85 362.13 996.50 423.77 949.24 521.38 1068.80 536.07
00007927 00000132 878.27 130.65 358.04 529.14 955.90 348.73 1106.13 362.91 996.40 424.80 949.18 522.56 1067.36 537.56
00007928 00000133 878.36 132.34 357.18 528.10 956.04 349.65 1105.94 364.41 996.36 427.06 949.04 523.03 1066.87 538.52
00007929 00000134 878.98 132.77 356.05 531.16 957.21 350.30 1105.90 365.50 997.10 429.03 949.57 523.67 1067.50 539.66
00007930 00000135 877.82 134.68 358.01 528.97 956.06 351.50 1105.76 367.33 995.86 430.20 948.65 523.45 1067.63 539.75
00007931 00000136 876.89 136.49 358.50 525.00 955.46 351.45 1107.86 370.83 995.21 433.12 946.99 519.85 1070.66 538.64
00007932 00000137 876.24 132.03 358.43 526.15 955.54 349.06 1108.51 370.90 996.07 432.02 945.97 517.27 1070.28 538.04
00007933 00000138 877.24 129.23 357.68 523.57 955.81 345.63 1109.81 367.80 998.33 428.70 947.54 514.30 1072.38 535.32
00007934 00000139 878.44 127.12 357.43 522.14 954.33 341.97 1109.74 362.28 997.73 422.77 947.84 513.45 1072.86 532.97
00007935 00000140 878.92 123.00 358.05 523.29 953.16 336.32 1108.09 355.55 995.79 416.17 947.02 509.72 1072.89 528.34
00007936 00000141 878.54 122.79 358.22 519.48 952.85 330.66 1105.74 350.16 994.12 412.26 946.35 504.87 1071.34 523.66
00007937 00000142 879.91 122.85 359.14 516.54 953.58 326.77 1104.84 345.37 993.80 407.51 947.25 501.45 1071.79 519.50
00007938 00000143 881.85 123.09 360.09 514.10 955.50 326.56 1106.73 343.63 996.89 407.16 950.27 500.52 1074.68 517.42
00007939 00000144 884.55 123.78 361.09 511.94 956.60 327.05 1108.78 342.97 996.93 405.87 951.68 501.21 1077.70 517.25
00007940 00000145 887.40 122.09 361.09 515.15 959.49 325.77 1112.34 340.40 999.84 403.73 954.32 501.39 1081.15 516.51
00007941 00000146 890.98 121.53 361.34 514.50 963.62 325.81 1115.91 338.43 1004.09 401.30 957.35 498.41 1086.70 511.75
00007942 00000147 894.11 121.83 360.17 510.71 965.83 323.81 1119.26 336.44 1004.94 398.52 957.86 493.34 1091.58 506.66
00007943 00000148 894.82 119.99 360.98 511.25 966.13 321.97 1120.27 334.07 1004.50 394.65 956.96 491.46 1090.97 504.35
00007944 00000149 895.53 118.80 359.96 512.50 966.56 320.50 1120.81 332.45 1004.36 391.89 956.68 490.67 1090.43 503.52
00007945 00000150 894.60 117.20 361.14 512.68 965.34 319.65 1120.04 331.46 1003.51 390.00 956.20 489.78 1090.13 502.35
00007946 00000151 894.52 117.20 360.12 510.26 965.46 317.65 1120.60 330.41 1003.42 388.43 955.64 487.69 1089.75 501.13
00007947 00000152 894.46 116.71 360.09 510.44 965.26 316.34 1120.38 329.25 1002.66 387.75 955.04 487.34 1088.07 501.07
00007948 00000153 894.89 116.12 358.11 512.84 965.10 316.53 1118.94 328.26 1002.43 387.81 955.68 488.66 1085.61 501.61
00007949 00000154 895.00 115.87 357.65 511.81 964.65 317.48 1117.84 328.09 1002.30 387.96 956.63 488.43 1086.04 500.45
00007950 00000155 894.21 115.76 359.77 508.62 963.70 316.63 1118.91 327.92 1001.25 387.28 954.75 486.10 1087.20 498.52
00007951 00000156 894.09 114.73 360.32 507.46 963.52 316.46 1119.20 328.60 1000.95 387.19 953.85 484.90 1087.37 498.03
00007952 00000157 894.42 113.64 360.85 510.51 963.42 316.05 1120.02 327.79 1001.08 386.65 953.56 485.96 1087.68 498.80
00007953 00000158 894.92 113.74 359.83 511.64 963.89 315.84 1119.46 326.88 1001.24 386.57 954.51 486.41 1086.45 498.79
00007954 00000159 895.69 114.14 358.48 510.88 964.74 316.18 1120.04 326.55 1002.91 386.52 956.16 486.67 1087.73 498.47
00007955 00000160 896.61 114.53 358.54 509.88 966.42 315.97 1121.65 325.44 1005.10 385.70 957.43 486.48 1089.19 497.67
00007956 00000161 897.46 114.21 359.60 509.63 967.57 316.31 1123.65 324.75 1007.02 384.25 958.92 486.28 1091.90 496.60
00007957 00000162 898.92 112.34 359.37 511.42 969.15 315.04 1124.51 322.70 1009.48 382.41 960.70 486.07 1092.24 495.88
00007958 00000163 899.94 111.59 359.00 512.98 971.62 313.47 1126.43 320.67 1012.21 380.19 962.01 485.73 1091.18 495.55
00007959 00000164 901.22 108.84 360.49 512.69 973.08 312.49 1130.07 322.05 1014.70 380.45 963.13 484.06 1095.70 495.52
00007960 00000165 903.67 105.90 362.19 510.37 974.81 310.76 1134.11 321.97 1016.49 381.19 963.54 480.64 1099.70 493.29
00007961 00000166 906.41 104.07 363.16 510.23 977.13 307.06 1137.91 320.45 1020.14 380.81 966.17 476.67 1103.87 490.86
00007962 00000167 908.95 102.78 364.07 512.25 981.85 302.56 1144.11 318.12 1025.99 377.09 970.80 475.23 1108.15 490.99
