Video ID: 	26l14Tj9jBM
H: 	2026
W: 	3840
FPS: 	60.0

FRAME INDEX X0 Y0 W H [Landmarks (5 Points)]

00027339 00000000 1279.66 379.04 1004.55 1406.28 1505.15 1012.44 1960.99 926.37 1766.27 1218.49 1608.47 1448.10 2036.11 1374.94
00027340 00000001 1279.34 378.99 1004.74 1406.37 1505.33 1012.42 1960.92 926.64 1766.33 1218.48 1608.30 1447.80 2035.77 1374.86
00027341 00000002 1285.11 380.50 1005.65 1405.97 1511.61 1009.02 1967.84 928.25 1770.35 1219.11 1610.16 1444.78 2039.15 1376.28
00027342 00000003 1284.54 380.51 1006.61 1406.10 1511.70 1009.17 1967.78 928.52 1770.21 1219.21 1610.50 1444.90 2038.79 1376.51
00027343 DELETE   1286.02 384.41 1008.89 1401.25 1515.16 1008.91 1971.50 928.47 1774.82 1220.48 1614.84 1443.29 2042.70 1375.37
00027344 00000005 1287.09 382.69 1007.32 1402.00 1514.35 1008.67 1971.50 927.83 1773.95 1221.14 1614.61 1442.80 2043.11 1374.55
00027345 00000006 1294.14 377.08 1000.52 1405.74 1518.48 1007.49 1979.46 929.72 1778.55 1222.70 1613.97 1443.07 2046.06 1377.68
00027346 00000007 1293.29 376.76 1001.14 1405.41 1518.29 1007.11 1980.16 930.00 1778.75 1222.18 1612.98 1442.45 2045.60 1377.55
00027347 00000008 1293.21 376.31 1005.74 1402.62 1523.24 1006.67 1986.65 934.96 1782.08 1224.77 1613.95 1440.78 2045.02 1380.50
00027348 00000009 1293.70 375.11 1005.95 1402.00 1522.92 1006.29 1987.47 934.71 1782.17 1224.43 1613.38 1440.58 2045.66 1380.43
00027349 00000010 1296.68 379.21 1007.47 1392.98 1527.55 1002.14 1991.72 939.13 1782.03 1224.70 1611.59 1437.35 2039.89 1384.57
00027350 00000011 1297.39 378.74 1006.86 1393.00 1528.16 1001.95 1992.87 939.76 1782.31 1224.77 1611.89 1436.78 2039.76 1384.75
00027351 00000012 1303.94 372.53 995.06 1400.18 1528.48 992.91 2003.64 936.74 1785.13 1223.95 1604.52 1440.71 2040.87 1394.31
00027352 00000013 1302.31 372.68 997.42 1401.84 1529.35 992.99 2004.70 937.28 1786.51 1222.35 1605.03 1442.01 2040.30 1395.97
00027353 00000014 1299.66 366.10 999.81 1404.40 1531.25 988.38 2008.76 940.82 1786.83 1222.30 1598.39 1435.44 2035.42 1395.87
00027354 00000015 1300.33 366.28 999.72 1395.37 1532.18 989.41 2007.49 939.85 1788.07 1221.18 1604.36 1434.24 2036.20 1393.08
00027355 00000016 1301.25 363.56 997.03 1391.74 1532.99 986.72 2008.31 941.75 1785.32 1222.58 1600.17 1431.69 2032.06 1394.27
00027356 00000017 1304.08 364.99 992.59 1396.71 1532.71 986.65 2007.47 943.13 1784.14 1220.01 1593.83 1432.67 2030.48 1396.31
00027357 00000018 1304.29 367.97 992.15 1393.57 1534.12 983.18 2005.64 943.61 1781.45 1217.40 1592.39 1430.20 2023.83 1397.15
00027358 00000019 1302.31 367.08 993.39 1389.52 1534.52 984.02 2007.20 943.81 1782.77 1219.05 1594.37 1430.72 2024.02 1397.27
00027359 00000020 1298.78 364.37 991.21 1381.73 1535.16 982.61 2008.80 949.40 1781.60 1222.67 1588.59 1430.50 2013.92 1402.78
00027360 00000021 1294.93 377.76 998.27 1335.41 1536.42 988.60 2009.60 941.16 1780.25 1214.87 1592.52 1421.63 2005.62 1381.42
00027361 00000022 1293.81 377.66 995.27 1323.85 1533.03 982.57 2003.45 950.67 1766.42 1219.74 1578.93 1416.38 1985.92 1389.86
00027362 00000023 1292.59 376.49 996.41 1325.83 1533.65 984.29 2004.54 951.05 1767.78 1221.22 1580.70 1417.92 1988.05 1390.00
00027363 00000024 1290.07 382.10 984.58 1326.08 1525.67 976.36 1997.53 955.27 1753.33 1217.71 1558.84 1416.30 1968.87 1398.75
00027364 00000025 1291.47 383.27 983.50 1317.85 1524.48 977.02 1998.86 956.08 1753.26 1220.95 1558.93 1418.25 1968.26 1401.16
00027365 00000026 1286.71 383.31 986.78 1336.16 1520.42 973.17 1995.03 954.78 1749.76 1222.33 1553.63 1420.05 1970.57 1404.65
00027366 00000027 1287.60 381.69 987.50 1344.38 1521.96 972.75 1993.51 955.27 1749.25 1221.28 1554.28 1416.60 1973.98 1401.57
00027367 00000028 1284.03 380.31 985.44 1331.22 1518.09 969.70 1989.84 957.91 1741.05 1222.94 1544.29 1410.59 1961.71 1400.43
00027368 00000029 1284.99 380.90 988.89 1328.13 1515.68 971.82 1991.14 955.93 1742.82 1225.68 1547.98 1412.31 1970.80 1398.57
00027369 00000030 1284.58 379.03 988.86 1342.40 1515.21 965.36 1987.59 953.73 1739.18 1223.24 1545.38 1414.71 1965.14 1404.52
00027370 00000031 1284.11 379.27 988.03 1339.97 1515.49 965.52 1987.28 954.29 1739.32 1223.43 1545.03 1414.68 1963.66 1404.89
00027371 00000032 1283.19 380.21 982.38 1331.01 1514.87 962.25 1984.77 955.39 1735.50 1221.22 1538.32 1409.59 1953.81 1403.37
00027372 00000033 1282.62 381.44 981.45 1322.42 1513.37 963.36 1984.23 955.38 1734.80 1221.94 1537.83 1408.46 1953.46 1401.27
00027373 00000034 1283.53 377.35 977.91 1338.18 1513.19 959.14 1980.15 955.03 1731.86 1219.52 1536.08 1407.20 1951.04 1403.05
00027374 00000035 1283.68 377.21 977.75 1339.54 1513.22 959.00 1980.12 955.25 1731.70 1219.42 1536.05 1407.47 1950.85 1403.68
00027375 00000036 1278.96 377.92 978.04 1346.46 1509.65 956.24 1976.71 958.66 1726.82 1216.75 1527.62 1406.78 1946.39 1407.84
00027376 00000037 1279.02 378.37 978.40 1346.19 1509.64 956.18 1976.66 958.54 1726.77 1216.37 1527.58 1406.19 1947.19 1407.20
00027377 00000038 1279.51 377.36 975.66 1349.91 1509.19 954.93 1975.93 958.38 1725.90 1215.59 1526.15 1406.17 1946.75 1408.08
00027378 00000039 1279.88 377.33 975.46 1349.86 1509.22 954.92 1975.99 958.46 1725.82 1215.64 1526.24 1406.07 1946.95 1408.04
00027379 00000040 1280.26 375.44 974.36 1351.74 1509.08 954.19 1975.74 958.09 1725.10 1214.77 1525.39 1405.23 1945.99 1407.50
00027380 00000041 1280.22 375.52 974.16 1350.86 1508.95 954.26 1976.05 957.73 1725.75 1214.79 1525.53 1405.24 1946.17 1407.19
00027381 00000042 1280.73 374.78 971.53 1351.90 1508.58 953.63 1975.50 957.79 1725.53 1214.39 1524.18 1404.60 1945.24 1407.17
00027382 00000043 1280.46 374.70 971.97 1351.96 1508.61 953.73 1975.57 957.84 1725.64 1214.51 1524.16 1404.72 1945.21 1407.22
00027383 00000044 1280.63 374.31 970.78 1350.23 1507.93 952.71 1975.02 956.99 1724.37 1213.11 1522.68 1403.48 1943.73 1406.18
00027384 00000045 1280.60 374.11 971.14 1350.39 1507.89 952.78 1974.94 957.02 1724.19 1213.17 1522.86 1403.49 1943.83 1406.13
00027385 00000046 1279.33 373.06 969.53 1350.16 1508.64 949.61 1975.94 956.27 1725.03 1212.58 1521.11 1401.80 1941.65 1406.36
00027386 00000047 1279.51 372.91 969.27 1350.81 1508.69 949.10 1975.72 956.06 1724.86 1212.49 1520.98 1401.42 1941.59 1406.21
00027387 00000048 1277.51 371.00 970.60 1348.97 1510.39 946.66 1976.94 954.61 1726.91 1210.22 1522.07 1399.48 1940.06 1404.96
00027388 00000049 1277.39 371.40 970.56 1348.26 1510.46 946.76 1976.98 954.71 1726.95 1210.29 1522.12 1399.38 1940.02 1404.87
00027389 00000050 1277.85 371.76 971.53 1346.88 1513.04 946.51 1978.80 955.27 1729.38 1210.01 1523.69 1398.89 1940.94 1405.09
00027390 00000051 1277.77 371.67 971.38 1347.14 1513.10 946.48 1978.63 955.30 1729.25 1210.03 1523.71 1398.71 1940.89 1404.97
00027391 00000052 1274.09 373.53 974.13 1344.61 1513.86 956.91 1979.13 964.56 1732.53 1207.48 1524.46 1398.98 1945.16 1403.84
00027392 00000053 1274.37 372.97 973.50 1345.76 1513.98 956.69 1979.17 964.22 1732.69 1207.84 1524.52 1399.28 1945.03 1404.06
00027393 00000054 1271.51 370.67 976.68 1343.03 1514.85 974.43 1983.01 980.81 1734.08 1205.68 1523.52 1402.15 1944.84 1406.23
00027394 00000055 1271.24 370.65 976.90 1343.33 1514.77 974.46 1983.03 980.82 1734.17 1205.74 1523.46 1402.31 1944.87 1406.36
00027395 00000056 1269.87 370.33 977.71 1342.10 1517.50 978.88 1982.51 987.50 1735.02 1204.89 1523.68 1400.95 1943.68 1406.57
00027396 00000057 1269.48 370.03 978.14 1342.16 1517.60 978.87 1982.70 987.26 1735.53 1204.70 1523.86 1400.74 1943.84 1406.13
00027397 00000058 1270.87 371.70 978.41 1344.01 1516.84 977.43 1984.02 986.64 1733.92 1205.99 1521.96 1401.72 1944.25 1407.98
00027398 00000059 1271.17 372.85 978.69 1343.99 1516.56 977.79 1983.75 986.50 1734.00 1206.27 1522.56 1402.19 1945.48 1408.04
00027399 00000060 1273.25 372.82 974.68 1346.55 1516.74 966.20 1982.32 977.60 1734.17 1210.67 1521.67 1401.55 1941.84 1409.95
00027400 00000061 1273.17 372.56 974.70 1347.15 1516.66 966.15 1982.06 977.46 1734.01 1210.93 1521.75 1401.56 1941.87 1409.86
00027401 00000062 1273.42 375.71 974.06 1348.62 1515.02 960.60 1980.25 975.53 1730.23 1211.72 1516.49 1400.77 1938.12 1412.02
00027402 00000063 1273.50 374.99 973.74 1348.34 1514.98 960.99 1979.70 975.28 1730.31 1211.50 1517.05 1400.71 1937.68 1411.44
00027403 00000064 1272.93 375.16 974.01 1347.81 1511.39 957.84 1977.09 974.44 1723.84 1213.30 1511.92 1402.08 1929.80 1414.96
00027404 00000065 1272.83 375.48 974.28 1347.50 1511.53 957.94 1977.35 974.61 1724.16 1213.19 1512.11 1401.87 1930.40 1414.75
00027405 00000066 1270.85 376.67 976.22 1346.39 1507.31 956.62 1975.03 974.48 1718.35 1214.51 1507.78 1402.21 1926.54 1416.23
00027406 00000067 1270.94 377.21 975.97 1345.34 1507.44 956.53 1975.06 974.55 1718.12 1214.51 1507.73 1402.11 1926.06 1416.28
00027407 00000068 1269.30 379.34 978.17 1334.52 1502.14 956.49 1970.13 978.26 1708.58 1222.44 1499.97 1400.95 1916.78 1418.34
00027408 00000069 1269.32 378.43 978.34 1335.24 1502.03 956.48 1970.10 978.08 1708.39 1222.16 1500.01 1400.88 1916.77 1418.12
00027409 00000070 1262.85 382.27 982.14 1319.42 1493.16 957.21 1963.21 978.71 1694.83 1223.19 1488.63 1397.52 1903.20 1414.81
00027410 00000071 1262.90 382.34 981.68 1319.08 1493.36 957.18 1963.09 978.78 1694.75 1223.00 1488.53 1397.23 1902.75 1414.61
00027411 00000072 1262.75 384.56 983.49 1334.76 1486.45 953.91 1948.03 986.64 1673.34 1226.47 1475.87 1399.84 1882.43 1426.67
00027412 00000073 1262.85 384.02 983.35 1335.07 1486.41 953.64 1948.07 986.62 1673.48 1226.23 1475.92 1399.81 1882.13 1426.87
00027413 00000074 1259.80 384.23 989.75 1331.75 1479.38 955.84 1944.54 987.62 1664.27 1230.27 1470.18 1401.82 1877.52 1427.92
00027414 00000075 1259.90 384.17 989.82 1331.83 1479.42 955.79 1944.51 987.54 1664.26 1230.29 1470.24 1401.78 1877.70 1427.83
00027415 00000076 1260.94 385.25 991.12 1333.89 1477.22 956.25 1943.12 990.35 1657.77 1234.30 1467.65 1404.48 1875.32 1432.43
00027416 00000077 1260.89 385.02 991.69 1334.12 1477.11 956.52 1943.20 990.33 1657.78 1234.54 1467.76 1404.77 1875.78 1432.47
00027417 00000078 1262.36 386.09 987.98 1347.68 1476.82 955.14 1939.45 994.03 1652.05 1236.09 1463.83 1404.36 1873.01 1436.31
00027418 00000079 1262.54 385.98 988.36 1347.85 1476.66 955.30 1939.54 993.69 1652.15 1236.26 1464.03 1404.62 1873.62 1436.12
00027419 00000080 1262.00 391.11 992.19 1336.36 1475.67 954.07 1938.80 997.35 1647.64 1242.12 1463.46 1405.66 1867.12 1441.49
00027420 00000081 1262.09 391.02 992.16 1336.78 1475.72 954.10 1938.87 997.48 1647.40 1241.98 1463.02 1405.56 1867.28 1441.50
00027421 00000082 1265.44 395.31 992.19 1331.76 1478.24 953.26 1941.16 1002.41 1645.12 1246.94 1460.45 1404.23 1861.96 1445.44
00027422 00000083 1265.22 394.52 992.29 1332.88 1478.13 953.58 1941.19 1002.18 1645.00 1246.61 1460.70 1404.44 1862.44 1445.16
00027423 00000084 1267.19 401.77 999.38 1328.85 1482.96 954.52 1946.45 1006.26 1648.09 1250.96 1461.99 1405.73 1862.87 1449.08
00027424 00000085 1267.03 401.62 1000.64 1329.42 1482.81 954.27 1946.53 1006.06 1647.86 1250.90 1461.98 1405.87 1863.11 1449.27
00027425 00000086 1272.76 404.64 1000.08 1328.68 1489.95 954.80 1950.10 1010.78 1651.37 1254.65 1466.55 1405.23 1864.89 1451.87
00027426 00000087 1272.86 404.26 999.80 1329.45 1490.14 954.93 1950.07 1011.25 1651.16 1254.95 1466.45 1405.45 1864.30 1452.41
00027427 00000088 1276.64 408.10 1001.57 1327.35 1493.75 953.99 1953.21 1012.03 1653.57 1257.11 1468.57 1404.72 1867.87 1452.86
00027428 00000089 1276.64 407.25 1000.64 1327.01 1494.08 954.52 1952.74 1012.18 1653.66 1256.95 1468.95 1404.20 1867.44 1452.07
00027429 00000090 1271.85 401.85 998.74 1321.33 1493.64 964.50 1969.13 1018.96 1671.90 1254.60 1482.08 1409.26 1885.67 1454.86
00027430 00000091 1272.00 401.92 999.00 1321.44 1493.57 964.36 1969.12 1018.71 1671.82 1254.54 1482.20 1409.31 1886.13 1454.77
00027431 00000092 1275.45 405.68 998.19 1320.54 1499.29 969.02 1976.44 1021.64 1681.09 1256.49 1487.42 1409.02 1895.59 1453.11
00027432 00000093 1275.39 406.16 998.07 1320.91 1498.97 969.12 1976.54 1021.71 1680.86 1256.75 1486.93 1409.07 1895.91 1453.10
00027433 00000094 1279.81 404.23 1009.61 1328.05 1508.56 967.68 1990.27 1020.96 1693.59 1260.60 1496.34 1411.35 1909.99 1455.55
00027434 00000095 1279.30 403.63 1010.13 1329.14 1508.29 967.43 1990.24 1021.11 1693.40 1260.87 1495.95 1411.33 1909.83 1455.85
00027435 00000096 1296.90 409.37 999.42 1333.32 1520.11 968.86 2001.76 1022.68 1703.57 1260.80 1504.35 1412.97 1923.81 1457.79
00027436 00000097 1297.06 408.83 999.19 1334.25 1520.14 968.73 2001.63 1022.53 1703.60 1261.19 1504.36 1413.20 1923.40 1458.06
00027437 00000098 1307.72 404.44 994.23 1329.38 1526.52 967.90 2009.24 1023.55 1710.80 1259.30 1512.38 1408.98 1932.97 1455.00
00027438 00000099 1307.64 404.62 994.29 1329.32 1526.43 967.98 2009.43 1023.73 1710.90 1259.38 1512.16 1409.26 1932.88 1455.37
00027439 00000100 1309.18 398.58 1000.95 1341.43 1535.23 967.59 2018.74 1023.41 1723.18 1257.33 1521.91 1414.73 1937.08 1461.18
00027440 00000101 1309.25 398.60 1000.91 1341.37 1535.18 967.63 2018.74 1023.43 1723.10 1257.20 1521.85 1414.65 1937.11 1461.08
00027441 00000102 1317.44 406.03 996.31 1336.69 1546.26 968.16 2026.80 1025.68 1733.39 1260.17 1527.99 1416.59 1939.94 1465.34
00027442 00000103 1317.34 405.92 996.60 1337.00 1546.36 968.33 2026.89 1025.32 1733.72 1259.98 1528.34 1416.86 1940.21 1465.16
00027443 00000104 1320.18 404.38 1003.35 1327.41 1555.92 972.16 2042.66 1026.38 1751.60 1264.10 1539.64 1416.74 1956.99 1461.97
00027444 00000105 1320.37 404.00 1002.97 1327.34 1555.96 972.41 2042.48 1026.31 1751.53 1264.16 1539.70 1416.65 1956.95 1461.62
00027445 00000106 1331.92 418.34 1004.98 1301.65 1572.82 976.86 2059.61 1022.11 1776.60 1267.21 1564.87 1416.84 1983.98 1453.18
00027446 00000107 1332.32 418.56 1004.49 1301.37 1572.71 977.04 2059.37 1022.01 1776.51 1267.16 1564.93 1417.18 1983.75 1453.30
00027447 00000108 1355.23 421.53 994.75 1316.93 1595.74 979.46 2080.61 1025.78 1802.82 1279.62 1582.15 1428.08 2003.85 1464.90
00027448 00000109 1355.17 421.52 994.52 1316.84 1595.66 979.80 2080.61 1025.92 1802.80 1279.64 1582.06 1428.31 2003.74 1464.98
00027449 00000110 1365.55 425.77 988.84 1316.34 1612.82 979.75 2091.25 1027.61 1817.69 1279.21 1595.73 1429.65 2010.18 1468.28
00027450 00000111 1365.40 425.17 988.69 1316.92 1612.93 979.51 2091.13 1027.28 1817.88 1279.15 1596.20 1429.92 2009.90 1468.48
00027451 00000112 1369.44 426.66 992.30 1308.03 1618.55 977.74 2100.20 1022.96 1830.00 1282.76 1605.11 1430.78 2018.40 1467.41
00027452 00000113 1369.98 426.26 992.27 1308.49 1619.33 977.70 2100.59 1023.85 1829.74 1283.26 1605.01 1430.74 2017.95 1468.19
00027453 00000114 1379.46 425.22 987.28 1325.78 1632.26 977.68 2106.61 1025.29 1840.11 1282.54 1613.37 1430.95 2028.25 1469.68
00027454 00000115 1380.62 424.54 986.16 1325.43 1631.29 978.14 2106.96 1025.37 1839.49 1283.50 1612.64 1431.02 2029.34 1469.51
00027455 00000116 1387.52 425.25 992.29 1335.16 1645.61 979.11 2115.31 1029.47 1850.68 1279.63 1626.01 1432.75 2040.21 1473.30
00027456 00000117 1388.23 424.93 991.79 1335.30 1645.56 979.33 2115.31 1029.71 1850.56 1279.33 1626.20 1433.31 2039.80 1473.91
00027457 00000118 1411.95 414.44 964.54 1354.98 1657.75 977.12 2134.16 1033.96 1870.54 1283.14 1631.19 1446.66 2049.02 1493.85
00027458 00000119 1411.54 414.81 964.73 1353.95 1657.41 977.58 2133.91 1034.02 1870.38 1283.15 1630.91 1446.49 2048.92 1493.38
00027459 00000120 1430.66 415.11 954.86 1363.88 1678.74 976.04 2147.96 1035.98 1887.85 1288.48 1641.54 1444.83 2057.16 1495.05
00027460 00000121 1430.94 415.46 954.75 1363.65 1678.89 975.74 2148.03 1035.90 1887.89 1288.60 1641.50 1444.77 2057.17 1495.21
00027461 00000122 1435.23 420.63 956.25 1362.09 1690.27 980.70 2158.91 1037.78 1899.53 1292.80 1648.60 1446.88 2064.50 1495.30
00027462 00000123 1434.88 421.60 956.83 1360.45 1690.20 980.64 2158.91 1037.79 1899.41 1292.75 1648.72 1446.73 2064.58 1495.23
00027463 00000124 1436.38 423.53 962.47 1359.03 1699.72 981.85 2166.57 1037.98 1909.04 1294.46 1660.98 1452.80 2063.17 1501.12
00027464 00000125 1436.26 422.93 962.66 1359.62 1699.73 982.25 2166.65 1038.45 1908.87 1294.62 1660.75 1452.81 2063.01 1501.21
00027465 00000126 1445.38 423.08 957.48 1361.75 1708.14 981.01 2174.20 1037.64 1918.42 1299.84 1669.75 1451.88 2073.96 1501.02
00027466 00000127 1445.42 423.22 957.66 1361.36 1708.26 981.09 2174.32 1037.60 1918.61 1299.81 1669.85 1451.77 2074.11 1500.82
00027467 00000128 1447.60 423.21 959.33 1359.26 1721.11 981.60 2186.32 1042.31 1931.92 1296.75 1679.07 1449.24 2081.26 1501.65
00027468 00000129 1447.84 423.39 959.16 1359.07 1721.13 981.74 2186.29 1042.45 1931.64 1296.58 1679.10 1449.04 2081.13 1501.49
00027469 00000130 1447.43 426.12 967.77 1353.93 1732.98 985.65 2198.79 1046.04 1946.09 1294.11 1690.21 1449.94 2090.29 1501.82
00027470 00000131 1447.09 426.38 968.31 1353.45 1732.81 985.91 2198.88 1046.07 1945.94 1293.76 1690.21 1450.01 2090.23 1501.72
00027471 00000132 1457.92 422.13 966.56 1363.47 1740.93 978.44 2204.20 1043.13 1951.19 1295.78 1696.86 1442.28 2105.45 1497.50
00027472 00000133 1458.32 422.75 965.61 1362.60 1740.91 978.51 2204.25 1043.16 1950.90 1295.82 1696.92 1442.41 2105.54 1497.63
00027473 00000134 1461.13 423.94 966.65 1361.80 1744.10 979.52 2208.72 1043.67 1955.07 1297.80 1700.43 1442.11 2110.61 1496.99
00027474 00000135 1461.17 424.71 966.36 1361.16 1744.15 979.61 2208.72 1043.58 1955.26 1298.62 1700.44 1442.21 2110.94 1496.99
00027475 00000136 1464.31 427.77 964.96 1356.09 1747.43 979.15 2212.05 1045.67 1957.58 1299.06 1700.71 1440.50 2110.88 1497.56
00027476 00000137 1464.69 426.95 964.68 1357.03 1747.33 979.09 2211.98 1045.47 1957.37 1299.13 1700.86 1440.57 2111.35 1497.50
00027477 00000138 1465.96 427.99 964.76 1356.74 1750.40 979.64 2213.22 1046.18 1960.15 1299.42 1702.42 1439.98 2111.54 1497.14
00027478 00000139 1466.43 428.03 964.61 1356.70 1750.40 979.57 2213.36 1046.10 1960.24 1299.82 1702.41 1439.80 2112.05 1496.96
00027479 00000140 1467.63 429.67 965.00 1357.27 1751.86 980.57 2214.73 1047.31 1962.06 1301.55 1703.90 1440.26 2115.29 1497.70
00027480 00000141 1468.15 430.41 964.59 1355.99 1751.88 980.67 2214.95 1046.82 1961.75 1301.25 1704.29 1440.45 2115.54 1497.48
00027481 00000142 1470.88 432.94 963.40 1355.72 1755.64 982.12 2216.29 1052.02 1963.71 1304.34 1704.60 1437.07 2118.30 1497.17
00027482 00000143 1470.73 434.14 963.74 1354.58 1755.96 982.09 2216.34 1052.25 1963.92 1304.68 1704.74 1437.08 2118.02 1497.41
00027483 00000144 1471.67 437.05 963.78 1353.21 1757.73 983.00 2220.05 1052.88 1968.29 1307.04 1706.80 1438.06 2124.57 1498.03
00027484 00000145 1471.41 438.04 963.98 1352.01 1757.87 983.04 2219.79 1052.74 1968.35 1306.97 1707.02 1438.01 2124.12 1497.85
00027485 00000146 1471.69 437.09 965.09 1353.85 1758.24 984.84 2220.25 1054.57 1967.78 1309.76 1707.29 1439.11 2124.69 1499.01
00027486 00000147 1471.87 437.61 964.51 1353.25 1758.27 984.89 2219.81 1054.64 1967.60 1309.79 1707.36 1439.10 2124.22 1499.03
00027487 00000148 1473.73 437.14 964.67 1353.12 1757.91 991.06 2218.49 1059.98 1965.32 1312.87 1706.68 1439.76 2124.07 1498.96
00027488 00000149 1473.68 436.69 965.13 1353.20 1757.69 991.26 2218.58 1060.34 1964.94 1313.52 1706.42 1439.89 2123.79 1499.25
00027489 00000150 1476.73 437.86 960.68 1351.59 1759.54 998.41 2217.64 1066.36 1965.64 1313.70 1707.09 1438.92 2124.52 1497.17
00027490 00000151 1476.31 437.51 961.02 1351.95 1759.82 998.77 2217.59 1066.75 1965.76 1313.95 1707.26 1439.13 2124.11 1497.40
00027491 DELETE   1471.55 441.85 966.84 1343.60 1760.43 1014.62 2220.24 1082.63 1966.33 1309.98 1702.71 1439.99 2126.84 1497.81
00027492 00000153 1471.53 441.72 967.06 1343.72 1760.46 1014.79 2220.18 1082.75 1966.32 1310.19 1702.83 1440.03 2126.86 1497.80
00027493 00000154 1466.71 444.20 970.78 1343.04 1753.81 1017.02 2215.58 1083.26 1959.05 1310.95 1700.71 1447.06 2117.03 1503.33
00027494 DELETE   1466.75 443.91 970.39 1343.37 1754.17 1017.42 2215.68 1083.34 1959.64 1310.17 1701.36 1447.03 2117.41 1502.98
00027495 00000156 1468.52 445.38 969.30 1346.75 1748.28 1009.61 2207.98 1076.58 1949.02 1321.08 1698.91 1451.21 2108.90 1508.55
