Video ID: 	JmIfbXHgkWc
H: 	1080
W: 	1080
FPS: 	25.0

FRAME INDEX X0 Y0 W H [Landmarks (5 Points)]

00005495 00000000 182.72 142.69 386.49 542.99 280.86 389.64 449.94 341.76 396.13 469.45 352.93 570.97 491.09 531.30
00005496 00000001 185.81 148.93 383.85 544.57 283.68 402.90 450.43 353.38 398.13 483.78 356.16 580.30 491.72 539.01
00005497 00000002 189.04 158.24 382.65 544.36 283.62 406.20 449.87 357.09 395.84 489.13 359.88 593.27 487.88 552.81
00005498 00000003 187.33 152.49 385.14 541.59 282.30 403.82 447.62 353.42 392.99 474.51 358.90 588.05 487.14 546.70
00005499 00000004 178.09 143.17 393.68 558.74 276.69 396.88 451.12 336.23 394.82 462.50 354.36 591.30 490.69 540.98
00005500 00000005 175.24 133.57 394.99 555.09 269.24 388.39 446.18 326.72 386.80 452.67 345.65 578.52 488.73 526.76
00005501 DELETE   177.49 131.17 384.73 548.09 263.71 379.83 437.87 319.73 379.87 439.43 341.48 573.44 478.73 523.14
00005502 DELETE   179.06 125.99 386.36 551.99 268.20 370.41 433.92 310.66 380.54 427.25 345.62 560.65 482.91 510.00
00005503 00000008 179.40 115.39 386.05 551.79 275.37 371.13 439.30 316.29 382.53 415.76 340.96 547.61 481.03 501.77
00005504 00000009 179.56 114.26 393.15 555.50 274.54 367.77 439.80 310.77 381.30 407.02 341.36 545.20 486.25 497.31
00005505 00000010 186.11 115.55 391.10 566.12 272.64 361.74 442.18 302.98 379.82 401.08 338.96 545.61 492.33 495.90
00005506 00000011 190.25 111.64 389.01 562.54 273.35 354.24 443.87 296.49 378.57 397.27 337.74 537.89 494.66 489.56
00005507 00000012 193.37 110.27 388.56 556.36 278.00 349.13 446.80 293.68 380.34 391.42 338.64 527.52 497.24 481.34
00005508 00000013 197.63 108.50 390.51 540.93 280.01 344.11 452.49 288.62 381.31 382.72 338.16 517.19 499.70 471.08
00005509 00000014 202.15 102.22 394.12 539.35 288.35 338.92 461.87 285.79 389.93 370.38 347.99 513.76 507.81 466.77
00005510 00000015 210.41 103.85 396.03 532.96 294.11 336.99 470.27 283.57 393.89 365.39 355.22 510.91 515.86 463.95
00005511 00000016 223.47 101.50 393.21 531.79 306.65 335.69 483.57 283.50 403.46 364.26 356.45 509.60 517.67 465.27
00005512 00000017 233.92 103.11 388.80 534.50 318.56 335.83 490.41 285.48 412.05 368.73 367.69 510.87 524.15 468.58
00005513 00000018 240.95 110.10 388.72 533.63 324.11 340.85 497.48 288.97 419.68 376.49 375.70 513.64 535.40 470.40
00005514 00000019 249.58 116.74 389.50 528.25 330.73 345.72 503.77 293.00 429.08 380.49 385.21 515.35 545.33 471.59
00005515 00000020 257.00 116.31 387.37 531.09 334.14 345.40 509.27 291.42 433.57 384.41 389.85 516.88 553.38 472.33
00005516 00000021 258.29 114.14 394.85 535.00 343.53 346.88 515.31 296.75 440.31 379.58 399.12 521.73 556.16 477.45
00005517 00000022 262.00 114.36 392.83 531.55 345.98 347.31 517.45 296.95 443.12 381.68 402.50 520.86 558.29 476.47
00005518 00000023 264.10 109.74 391.75 532.35 345.86 345.99 521.26 295.36 445.05 381.64 403.66 521.49 558.64 477.11
00005519 00000024 266.49 113.28 387.29 522.70 342.06 344.27 521.64 293.88 447.13 390.59 401.15 518.46 558.32 476.19
00005520 00000025 263.15 111.14 388.14 523.68 340.48 343.81 516.68 292.31 443.52 390.66 400.87 517.73 555.23 474.60
00005521 00000026 255.38 108.53 388.70 518.46 335.81 339.99 511.81 292.22 436.81 387.76 392.30 510.70 548.43 470.48
00005522 00000027 238.15 97.21 397.69 534.23 325.75 341.24 501.12 291.74 423.98 381.36 375.30 508.03 526.74 466.70
00005523 DELETE   229.44 96.54 388.60 529.41 308.29 346.24 483.04 296.09 398.36 385.07 356.25 514.67 502.36 473.15
00005524 DELETE   215.34 98.51 390.53 527.14 289.01 347.37 468.02 298.85 375.26 387.16 335.59 517.63 482.24 477.71
00005525 DELETE   208.13 108.86 385.85 519.22 276.91 340.81 454.27 295.56 366.14 391.94 328.16 514.67 477.88 477.20
00005526 00000031 199.68 104.32 387.14 523.53 267.12 335.37 445.10 293.44 350.36 388.68 313.38 512.60 457.91 477.57
00005527 00000032 194.79 104.36 387.79 531.49 262.27 335.89 437.35 293.27 343.10 388.87 304.48 514.11 448.82 478.84
00005528 00000033 194.46 104.36 387.92 542.94 261.23 336.73 437.53 293.74 341.02 391.47 304.29 523.43 450.18 488.02
00005529 00000034 198.13 106.78 383.91 542.87 260.95 338.63 438.16 295.94 342.36 396.29 307.20 531.17 451.66 496.34
00005530 00000035 197.20 109.43 384.34 540.21 262.08 340.29 436.33 298.42 342.30 400.76 313.91 536.43 446.11 502.85
00005531 00000036 194.68 110.77 384.83 539.28 261.24 341.41 433.38 299.90 340.61 403.20 314.47 536.58 441.96 503.27
00005532 00000037 191.95 111.75 385.25 530.08 258.79 341.02 432.84 301.43 338.80 404.30 310.82 534.09 437.98 502.33
00005533 00000038 191.61 112.77 381.06 523.84 257.99 341.92 432.81 302.40 339.92 404.71 309.94 534.17 437.27 502.39
00005534 00000039 190.11 110.65 383.15 520.89 257.42 341.56 433.33 301.76 340.54 402.23 308.78 531.51 437.60 499.47
00005535 00000040 190.53 107.34 381.84 525.09 258.07 340.24 434.75 299.07 342.91 398.42 306.29 529.48 441.66 496.13
00005536 00000041 189.17 102.69 380.98 536.99 259.25 338.40 435.44 299.17 343.26 397.00 301.26 527.02 445.49 494.74
00005537 00000042 186.78 101.89 381.63 533.92 258.00 337.39 434.65 298.75 344.51 396.29 300.53 525.17 444.59 493.37
00005538 00000043 184.16 103.23 382.73 534.57 255.60 337.91 432.20 298.86 340.66 396.46 296.25 524.81 441.58 492.57
00005539 00000044 182.82 102.91 381.92 535.43 253.69 339.16 429.69 298.62 336.90 394.86 293.51 525.24 439.60 491.53
00005540 00000045 181.27 103.13 380.74 532.28 252.01 339.59 428.21 298.58 335.81 394.04 292.50 524.71 437.13 490.62
00005541 00000046 178.83 101.63 381.80 532.03 250.70 338.94 427.95 298.31 335.81 393.59 290.96 524.70 436.53 490.96
00005542 00000047 177.13 101.58 382.28 531.17 249.22 339.62 427.19 299.09 335.14 394.82 290.04 525.18 435.32 491.54
00005543 00000048 176.32 102.49 382.87 530.69 248.60 340.75 426.02 300.41 334.85 396.24 289.91 525.33 434.59 491.73
00005544 00000049 176.06 102.90 382.93 532.77 251.73 342.48 425.50 304.21 335.47 396.42 289.34 523.69 434.60 491.64
00005545 00000050 178.02 104.22 380.06 531.75 253.80 355.96 423.78 314.13 335.81 398.47 289.60 526.70 435.61 491.85
00005546 00000051 172.16 105.52 382.72 530.65 246.60 353.28 424.63 311.05 333.18 403.44 287.46 526.48 437.59 491.36
00005547 00000052 175.01 103.97 381.79 533.73 249.22 347.22 422.13 305.59 332.92 399.08 289.49 527.23 434.79 492.36
00005548 00000053 172.54 103.96 383.54 533.85 247.87 343.20 421.27 302.11 333.43 396.20 287.95 525.16 433.78 490.52
00005549 00000054 169.71 102.83 385.19 534.75 245.34 342.44 420.01 299.88 331.78 395.20 286.19 523.32 432.84 487.30
00005550 00000055 168.73 103.45 383.82 532.83 243.73 342.63 418.61 299.69 331.13 395.75 286.46 523.94 431.99 487.53
00005551 00000056 168.75 103.80 382.78 531.99 242.86 343.38 417.97 299.56 330.48 395.48 286.41 524.25 431.79 487.12
00005552 00000057 166.68 108.79 382.02 528.42 239.00 338.92 417.49 300.85 335.94 402.79 290.97 523.11 439.15 491.55
00005553 00000058 170.70 103.70 385.61 532.15 246.07 342.53 420.91 299.15 333.33 394.56 290.26 525.41 433.01 488.99
00005554 00000059 173.69 104.20 383.51 528.87 248.45 341.06 422.99 298.61 336.50 396.06 293.33 525.41 435.57 489.93
00005555 00000060 174.02 103.65 385.34 528.54 250.47 340.06 425.46 297.47 339.47 393.78 297.68 525.51 439.26 490.03
00005556 00000061 174.69 101.73 386.14 532.93 253.55 338.76 426.94 296.73 343.04 392.12 301.75 525.08 440.63 490.09
00005557 00000062 175.76 100.84 386.85 535.48 257.13 337.21 428.77 294.32 347.79 392.42 310.32 526.73 446.52 491.10
00005558 00000063 177.80 100.31 386.75 535.12 256.21 337.39 433.98 294.74 349.25 394.32 305.89 527.79 450.49 492.41
00005559 00000064 178.78 101.63 388.23 533.36 255.93 338.82 434.76 295.67 349.85 396.31 306.31 530.54 452.01 494.82
00005560 00000065 178.60 104.34 388.10 530.36 256.06 341.09 434.25 297.88 350.08 398.10 310.34 533.67 449.73 497.96
00005561 00000066 179.68 106.68 387.37 530.99 256.76 343.43 433.45 299.62 349.34 399.14 307.73 532.57 451.28 496.20
00005562 00000067 179.81 105.40 389.28 537.46 257.87 342.36 433.16 299.04 347.79 396.93 304.97 529.04 452.46 492.83
00005563 00000068 179.70 103.82 386.33 534.20 258.32 340.20 434.03 299.28 349.01 395.67 304.09 526.59 450.86 492.49
00005564 00000069 177.49 100.93 389.30 536.23 256.71 337.78 432.92 296.66 347.92 394.65 303.76 525.87 449.14 491.68
00005565 00000070 175.71 99.85 385.85 532.43 253.06 338.05 431.01 297.04 346.05 397.13 298.21 525.58 446.98 491.56
00005566 00000071 173.61 100.11 385.37 529.84 250.23 338.73 428.06 297.29 341.71 395.07 294.36 525.06 442.07 490.47
00005567 00000072 170.85 99.42 387.14 535.84 248.11 340.33 425.71 297.60 338.32 393.78 290.43 525.32 440.24 489.44
00005568 00000073 169.97 106.68 385.30 531.67 247.25 342.42 421.65 299.33 334.80 391.92 292.28 530.86 432.82 494.98
00005569 00000074 166.63 109.28 386.12 536.73 246.06 345.18 420.42 300.33 335.88 394.02 291.72 532.44 435.99 494.59
00005570 00000075 166.34 108.94 384.88 540.07 245.17 345.11 419.85 300.25 334.38 393.23 290.26 533.08 434.52 495.28
00005571 00000076 168.40 106.11 383.10 528.38 244.55 343.95 421.93 298.58 334.77 392.43 291.73 529.28 434.75 491.24
00005572 00000077 169.50 103.91 382.26 533.46 246.08 341.56 423.89 298.78 336.06 392.07 289.94 527.09 434.69 491.27
00005573 00000078 168.89 106.72 384.72 534.87 243.66 345.46 424.96 300.91 336.72 396.99 292.96 531.79 439.41 494.66
00005574 00000079 173.17 105.96 384.40 532.92 249.90 342.39 426.48 299.43 339.98 396.42 299.08 534.17 437.58 498.55
00005575 00000080 173.69 108.77 385.65 535.18 253.98 349.86 430.42 308.73 346.90 401.48 305.41 537.12 443.19 502.78
00005576 00000081 177.32 107.06 381.38 536.21 258.47 359.13 431.34 317.04 351.66 403.86 311.50 537.82 447.31 502.46
00005577 00000082 179.74 107.48 386.14 533.85 265.68 359.23 432.16 316.64 356.12 405.19 318.46 539.59 449.70 504.05
00005578 00000083 184.19 110.20 383.42 532.66 265.66 355.90 438.88 312.50 360.78 406.87 320.04 540.23 456.87 504.29
00005579 00000084 192.38 111.31 381.15 534.33 270.51 351.06 442.79 308.34 366.89 407.82 328.55 541.51 462.84 506.36
00005580 00000085 199.43 108.70 385.03 532.52 275.06 346.82 450.66 305.69 374.36 407.98 337.01 540.44 471.40 506.82
00005581 00000086 208.39 111.63 385.71 526.10 279.96 343.89 457.63 303.08 380.24 407.57 344.51 540.75 477.98 507.58
00005582 00000087 214.00 110.03 383.51 525.91 288.57 350.00 468.26 305.67 383.79 402.47 347.82 541.57 481.64 504.58
00005583 00000088 222.24 111.59 379.70 527.09 296.28 349.86 475.61 308.23 389.04 404.82 351.73 542.79 485.29 508.35
00005584 00000089 228.74 109.65 383.98 527.24 308.60 345.39 485.27 307.06 402.28 404.19 365.42 544.79 489.79 513.63
00005585 00000090 238.62 110.22 380.19 531.91 316.25 345.55 492.16 307.05 412.09 407.08 373.55 545.03 502.16 513.56
00005586 00000091 246.73 110.82 379.56 533.22 324.12 347.86 498.93 309.23 421.13 410.11 383.56 546.51 510.81 515.15
00005587 00000092 254.40 111.10 383.18 529.87 332.46 348.81 506.80 311.87 430.12 412.27 392.14 544.93 519.12 515.05
00005588 00000093 263.04 112.85 383.60 527.87 340.35 349.49 514.49 314.29 437.09 414.05 400.66 546.59 525.06 518.37
00005589 00000094 267.28 115.47 386.42 527.52 344.93 349.32 520.65 314.95 442.44 414.41 407.40 550.03 529.57 522.44
00005590 00000095 272.05 114.62 383.38 523.94 350.58 352.36 526.77 315.34 442.82 409.91 408.72 553.38 526.39 522.64
00005591 00000096 269.78 111.30 384.11 542.37 348.74 352.21 528.80 314.92 443.16 410.22 401.68 548.29 537.84 517.26
00005592 00000097 269.98 109.38 383.91 549.17 349.42 350.67 529.75 314.35 443.08 409.37 399.47 547.17 538.71 516.95
00005593 DELETE   269.33 107.42 381.49 547.73 351.51 355.15 530.94 318.88 444.95 411.63 398.96 542.60 542.47 512.43
00005594 00000099 271.87 106.50 382.30 553.98 358.76 359.75 531.51 321.00 450.10 412.29 398.92 546.98 545.00 514.51
00005595 00000100 270.92 99.23 386.49 562.45 359.94 356.29 534.38 317.29 451.79 410.84 398.64 542.33 548.89 509.66
00005596 00000101 273.73 100.03 387.31 560.86 361.80 346.44 536.73 309.79 454.20 409.25 401.99 536.78 550.87 506.31
00005597 00000102 275.15 104.59 385.24 545.96 355.15 343.12 541.02 310.80 452.47 413.56 400.81 539.72 547.48 512.92
00005598 00000103 275.47 102.51 388.04 542.12 354.61 341.52 543.28 310.91 450.68 412.99 400.71 540.29 545.33 515.15
00005599 00000104 276.15 101.50 387.26 544.71 354.75 339.72 542.98 310.24 448.55 410.68 403.06 545.43 538.88 521.53
00005600 00000105 276.06 100.12 387.17 544.56 355.27 338.61 541.49 308.59 448.22 406.32 404.70 544.08 537.09 519.78
00005601 00000106 276.60 101.32 386.43 546.94 357.13 336.46 542.38 304.60 450.38 399.86 405.17 540.24 541.24 514.39
00005602 00000107 271.88 105.29 387.14 554.49 358.84 325.97 546.73 299.78 459.41 386.38 408.83 536.18 546.16 512.65
00005603 00000108 273.21 106.41 386.55 552.63 359.35 324.44 548.59 298.05 460.03 383.29 408.90 535.04 548.76 511.34
00005604 00000109 273.87 105.82 386.83 557.02 360.17 323.96 550.00 297.13 461.41 383.69 409.95 537.37 549.33 513.38
00005605 00000110 274.66 101.79 385.93 544.96 359.97 324.90 549.42 299.11 461.15 384.74 407.68 531.42 550.86 508.15
00005606 00000111 282.80 98.81 378.88 548.03 364.02 329.42 544.67 295.48 456.83 388.28 404.92 531.10 550.87 503.02
00005607 00000112 283.16 100.52 380.25 549.22 365.45 330.34 545.02 296.70 457.44 388.82 403.79 531.21 552.80 503.43
00005608 00000113 283.41 105.09 380.75 549.96 367.03 332.69 546.47 298.98 458.41 390.55 403.66 532.18 554.31 504.15
00005609 00000114 283.01 102.03 381.13 553.36 368.49 340.94 545.70 307.04 457.16 392.14 398.57 528.66 553.61 500.25
00005610 00000115 283.08 102.57 378.43 553.85 367.75 351.66 542.16 314.67 456.23 397.58 397.06 530.05 554.63 499.02
00005611 00000116 281.05 104.49 380.85 555.69 362.67 351.66 541.42 312.02 453.15 400.56 393.22 532.89 556.44 499.63
00005612 00000117 280.69 108.68 380.62 553.50 363.05 350.23 540.28 310.74 455.91 404.98 399.20 538.02 556.85 504.74
00005613 00000118 279.14 111.42 381.84 554.95 361.20 351.86 538.95 313.79 456.75 412.77 401.49 545.71 553.56 513.76
00005614 00000119 279.45 111.71 384.24 547.43 360.84 352.11 540.95 311.85 458.51 410.85 403.72 544.05 557.90 510.13
00005615 00000120 279.64 106.90 387.29 549.31 365.13 347.10 543.70 308.62 462.73 407.31 405.89 538.32 561.68 505.72
00005616 00000121 284.34 110.44 388.18 548.33 371.62 344.38 549.42 306.76 471.18 402.06 417.70 538.63 568.89 506.79
00005617 00000122 291.47 108.32 386.99 537.94 377.31 339.95 559.91 303.81 480.58 395.54 425.29 533.50 578.01 503.37
00005618 00000123 294.74 107.71 385.97 540.86 383.03 337.66 565.81 302.18 488.95 394.82 428.71 528.97 587.27 499.96
00005619 00000124 299.80 109.94 385.92 538.23 389.54 335.86 570.54 302.34 496.03 396.36 435.65 527.15 591.63 499.91
00005620 00000125 303.47 110.85 385.65 533.67 394.64 334.49 573.38 303.24 500.16 394.40 442.55 526.66 590.73 501.22
00005621 00000126 304.75 111.41 383.77 540.86 398.63 333.63 573.79 306.20 502.45 393.51 441.28 524.34 590.24 502.12
00005622 00000127 304.73 112.55 384.98 544.92 398.65 335.93 574.27 306.03 502.96 393.93 441.98 525.68 593.87 501.50
00005623 00000128 306.40 114.57 385.56 556.84 400.46 338.99 574.76 306.39 504.87 396.94 443.88 529.43 599.85 502.72
00005624 00000129 306.84 116.84 390.17 561.28 400.70 345.01 578.90 310.93 507.97 407.33 445.97 535.98 606.21 508.02
00005625 00000130 308.96 119.26 391.63 568.28 401.15 350.98 581.78 316.43 510.56 419.03 448.90 547.03 608.38 518.41
00005626 00000131 312.29 123.98 391.84 562.28 405.05 357.32 585.48 323.64 514.88 428.54 454.38 552.01 608.58 523.95
00005627 00000132 315.13 133.23 390.90 556.51 405.17 373.07 590.67 330.08 515.55 434.63 453.75 565.23 614.24 528.19
00005628 00000133 318.05 136.50 389.27 554.44 408.16 378.63 594.64 334.46 520.60 443.69 458.43 569.98 618.60 532.34
00005629 00000134 319.35 136.73 389.32 564.48 411.27 382.83 596.08 340.13 524.34 448.47 464.92 579.91 619.34 543.60
00005630 00000135 320.73 141.39 387.70 554.18 413.52 388.99 597.91 346.60 527.42 458.04 473.99 588.13 619.02 552.06
00005631 00000136 322.37 143.69 387.23 546.48 412.65 393.28 600.93 349.82 528.76 467.25 471.76 588.24 623.08 551.25
00005632 00000137 323.45 145.49 389.49 546.78 412.31 394.51 602.22 350.85 527.62 470.44 467.04 586.18 625.40 548.93
00005633 00000138 322.50 144.91 390.20 548.53 412.39 394.66 602.25 351.84 527.56 471.74 465.43 586.16 624.50 549.71
00005634 00000139 322.43 146.49 390.80 550.62 412.14 394.23 601.80 352.14 525.72 471.98 465.69 588.55 623.01 552.92
00005635 00000140 322.68 145.26 390.85 556.33 412.45 393.48 601.60 352.12 525.78 471.09 465.43 589.95 621.97 554.95
00005636 00000141 323.15 144.23 390.67 557.01 412.59 392.83 601.25 351.61 525.52 469.35 464.42 587.74 622.24 552.78
00005637 00000142 323.55 145.58 390.69 553.85 411.97 392.07 601.00 351.52 524.60 467.86 463.83 586.48 621.37 552.02
00005638 00000143 324.32 142.53 389.37 546.10 412.21 391.44 600.83 349.80 525.22 465.06 466.03 583.44 621.64 548.05
00005639 00000144 324.31 144.34 390.49 548.78 410.76 391.48 600.93 348.08 524.69 464.88 463.21 583.00 624.19 546.09
00005640 00000145 321.74 139.63 392.09 551.56 407.72 392.02 597.07 346.22 520.63 463.65 460.23 581.20 622.61 542.52
00005641 00000146 321.76 135.43 391.02 565.09 411.07 396.70 596.24 349.48 520.48 453.62 458.98 577.35 625.27 537.35
00005642 00000147 323.33 136.56 386.80 552.69 409.76 393.92 595.60 346.87 518.17 449.09 455.23 568.92 624.56 528.97
00005643 00000148 322.29 132.51 388.19 557.27 407.74 382.16 592.50 333.89 516.23 438.93 454.84 565.16 623.40 523.83
00005644 00000149 318.71 131.14 390.16 561.44 409.14 372.96 589.25 327.01 516.36 426.07 456.35 559.48 619.25 519.95
00005645 00000150 319.48 134.23 385.51 550.38 406.31 364.09 583.92 323.17 508.31 419.42 455.63 552.30 613.82 517.78
00005646 00000151 317.18 131.15 388.15 551.86 404.69 360.41 582.59 319.86 506.33 414.59 455.81 549.90 613.29 515.80
00005647 00000152 316.79 130.76 388.32 546.83 403.47 357.74 581.79 317.52 505.03 408.51 454.85 546.80 612.89 512.70
00005648 00000153 317.01 130.61 388.27 543.81 403.20 356.21 581.34 316.22 503.38 404.24 455.08 545.01 611.42 510.89
00005649 00000154 319.19 128.05 387.24 546.44 404.94 355.51 582.97 315.90 504.19 402.77 454.76 543.69 611.73 509.87
00005650 00000155 320.79 128.72 386.50 545.49 405.69 352.18 586.10 314.81 506.06 401.75 454.80 543.13 611.69 510.95
00005651 00000156 320.66 126.23 385.61 538.55 406.14 350.63 587.73 315.30 508.24 402.37 458.02 543.17 606.78 512.64
00005652 00000157 320.00 128.18 384.68 537.69 405.51 351.69 587.13 316.23 508.30 404.65 456.00 542.30 607.82 511.55
00005653 00000158 319.04 129.35 384.92 534.13 403.95 352.21 585.98 317.37 506.09 404.19 454.61 541.90 606.36 511.49
00005654 00000159 319.80 127.52 384.21 542.09 401.32 352.75 581.29 313.60 504.93 411.02 452.85 544.20 603.46 511.75
00005655 00000160 318.87 127.15 384.18 542.07 400.50 352.45 580.54 314.18 504.33 412.52 451.99 543.89 602.47 512.21
00005656 00000161 319.11 127.53 384.36 541.41 400.51 352.72 581.11 314.35 504.96 412.77 452.34 544.07 603.18 512.28
00005657 00000162 319.39 127.65 384.76 540.20 400.84 352.28 581.82 313.26 504.76 412.00 452.66 543.39 604.29 511.11
00005658 00000163 319.62 127.37 384.91 542.67 401.02 351.97 581.38 312.85 504.13 412.42 453.02 544.66 603.97 512.34
00005659 00000164 315.53 131.22 385.79 536.85 402.89 350.96 584.72 317.01 504.49 404.76 453.35 543.38 602.34 514.04
00005660 00000165 315.07 130.11 388.97 540.34 402.06 351.47 583.81 317.45 501.43 401.84 448.45 540.84 605.08 511.43
00005661 00000166 315.07 129.47 389.90 540.66 401.62 351.54 582.46 318.10 499.22 404.46 446.69 539.55 604.77 510.73
00005662 00000167 316.06 124.89 385.16 550.08 398.83 351.07 576.78 315.25 499.33 410.05 445.62 541.72 597.18 512.26
00005663 00000168 315.45 125.12 386.09 544.73 398.19 351.83 576.96 317.62 498.06 410.34 444.57 540.65 594.75 512.62
00005664 00000169 315.40 124.24 387.88 544.84 398.01 353.11 579.81 319.97 497.72 412.07 441.36 538.66 597.73 511.48
00005665 00000170 316.07 123.30 388.10 542.07 396.72 356.09 579.38 322.67 495.42 414.75 439.59 540.40 594.61 512.98
