Video ID: 	hpec93exiHI
H: 	1080
W: 	1920
FPS: 	25.0

FRAME INDEX X0 Y0 W H [Landmarks (5 Points)]

00002676 00000000 925.55 172.61 405.44 580.14 996.06 417.79 1157.14 373.07 1076.00 499.40 1062.08 604.70 1218.02 565.94
00002677 DELETE   917.17 177.22 409.72 572.81 989.62 422.24 1149.04 372.55 1071.92 501.30 1060.78 606.89 1214.84 564.42
00002678 DELETE   907.98 183.02 413.60 560.94 984.48 433.20 1144.49 374.40 1071.40 507.97 1061.73 611.64 1213.65 561.00
00002679 00000003 899.87 186.22 417.59 552.67 980.13 440.60 1139.75 379.51 1071.57 513.98 1062.28 614.43 1210.19 562.11
00002680 DELETE   894.93 186.26 419.99 548.20 975.51 443.24 1136.27 382.39 1069.79 516.88 1056.72 614.35 1205.35 562.43
00002681 00000005 888.74 186.15 423.70 545.40 971.11 444.82 1133.12 382.70 1065.07 517.92 1051.59 614.07 1200.59 560.86
00002682 00000006 887.03 184.52 422.32 545.58 967.91 444.36 1129.61 383.67 1059.42 517.66 1046.66 614.07 1193.90 562.07
00002683 00000007 886.05 185.22 420.10 543.34 967.26 443.26 1128.75 385.14 1057.82 518.01 1043.92 613.48 1190.43 563.63
00002684 00000008 886.74 188.21 417.73 538.68 967.07 443.66 1129.42 386.48 1057.66 519.33 1042.85 612.55 1190.74 563.52
00002685 00000009 888.07 190.00 417.89 539.32 967.35 441.43 1130.15 387.87 1056.32 521.09 1041.68 612.76 1189.08 566.96
00002686 00000010 892.18 193.30 416.43 539.99 968.94 441.43 1131.86 389.02 1057.72 523.34 1043.58 613.97 1192.67 568.99
00002687 00000011 894.12 197.03 418.08 537.91 970.99 441.19 1133.69 389.17 1059.57 524.89 1047.80 616.69 1194.13 572.22
00002688 00000012 895.50 197.98 420.08 538.71 974.60 443.16 1138.22 391.09 1064.55 526.12 1051.33 619.25 1196.77 574.93
00002689 00000013 897.58 196.95 419.94 536.62 977.27 443.84 1143.64 391.41 1069.70 528.17 1053.72 621.50 1198.70 576.89
00002690 00000014 898.18 197.92 421.33 540.43 976.75 443.00 1146.14 392.26 1069.91 529.52 1048.95 621.37 1199.30 578.04
00002691 00000015 900.17 198.69 419.02 544.02 978.42 443.20 1147.86 392.44 1072.55 530.51 1051.60 623.83 1201.99 580.32
00002692 00000016 901.53 203.54 417.83 538.47 983.31 443.02 1148.57 395.51 1074.88 530.30 1060.06 628.39 1195.34 588.23
00002693 00000017 902.07 208.02 418.21 535.52 984.33 444.92 1148.51 397.17 1075.93 532.48 1062.66 629.30 1197.26 588.64
00002694 00000018 902.94 211.19 415.84 530.75 984.62 446.39 1147.62 398.93 1075.27 534.65 1062.42 627.67 1198.07 586.91
00002695 00000019 902.25 213.01 416.64 526.73 983.31 448.79 1147.36 400.14 1074.57 537.19 1061.10 626.13 1201.25 583.94
00002696 00000020 901.48 215.80 415.51 523.94 982.75 450.22 1147.13 401.56 1074.90 539.93 1060.83 627.07 1200.66 584.91
00002697 00000021 900.81 217.73 415.32 522.85 981.28 451.67 1146.84 402.97 1073.94 542.43 1060.72 629.34 1201.24 587.08
00002698 00000022 900.62 217.10 414.73 524.82 980.80 452.47 1148.09 404.82 1074.22 545.06 1059.59 631.65 1200.62 590.39
00002699 00000023 900.66 219.02 414.68 523.23 981.06 453.02 1147.76 406.35 1073.46 545.94 1058.98 631.55 1199.65 591.12
00002700 00000024 901.16 217.40 414.51 526.18 982.10 454.08 1147.60 408.42 1073.40 546.39 1057.82 631.17 1198.08 591.81
00002701 00000025 900.33 220.19 416.85 521.23 982.59 455.25 1148.90 408.93 1074.10 547.17 1058.53 630.67 1198.98 590.64
00002702 00000026 900.79 220.46 415.01 522.00 982.49 456.24 1148.71 409.69 1074.11 548.35 1058.42 631.73 1199.24 591.60
00002703 00000027 901.73 222.67 414.27 520.56 982.88 455.54 1148.97 410.51 1073.37 549.91 1059.05 633.22 1197.86 594.34
00002704 00000028 903.04 223.77 412.53 524.50 984.76 454.49 1148.05 411.58 1073.56 550.81 1060.20 634.90 1195.49 598.08
00002705 00000029 903.00 225.88 412.93 525.42 985.06 455.53 1148.56 410.99 1075.07 551.96 1061.80 636.24 1198.59 598.01
00002706 00000030 902.92 225.31 413.38 527.83 986.28 456.67 1147.94 411.27 1076.44 552.31 1063.75 636.58 1199.48 597.68
00002707 00000031 903.40 226.20 412.31 526.77 986.88 457.84 1147.39 412.19 1076.45 553.91 1063.91 634.64 1201.65 595.22
00002708 00000032 903.29 225.63 412.76 527.40 987.20 458.45 1147.60 413.23 1077.13 554.66 1063.81 633.57 1202.20 594.40
00002709 00000033 903.56 225.34 411.70 527.12 987.44 459.81 1147.39 413.49 1077.73 554.74 1064.03 632.73 1203.57 592.57
00002710 00000034 903.78 227.50 411.49 525.29 988.33 460.88 1148.20 415.69 1077.95 555.82 1063.01 631.34 1203.90 592.00
00002711 00000035 903.79 228.13 410.81 524.82 988.17 461.85 1148.31 416.16 1078.16 556.05 1062.69 631.10 1204.73 591.20
00002712 00000036 904.07 229.21 410.77 525.48 988.82 462.29 1148.02 417.22 1078.03 556.66 1062.67 630.68 1204.49 591.25
00002713 00000037 904.07 229.12 411.41 526.41 989.09 462.73 1148.52 418.35 1078.08 557.55 1062.21 630.85 1204.51 592.00
00002714 00000038 904.59 231.49 409.77 523.75 989.02 463.47 1149.84 419.54 1078.69 559.00 1061.23 630.98 1205.20 592.35
00002715 00000039 905.07 233.57 409.92 521.26 988.86 463.87 1150.71 420.64 1078.40 559.65 1059.61 631.25 1204.39 593.23
00002716 00000040 904.68 232.36 410.39 523.32 988.58 463.73 1150.60 420.84 1078.42 559.86 1058.54 631.50 1203.83 593.86
00002717 00000041 904.96 232.57 410.10 523.21 989.16 464.28 1150.38 421.50 1078.48 559.88 1059.09 631.69 1203.34 594.17
00002718 00000042 904.65 233.02 409.30 523.55 989.21 464.03 1150.19 421.75 1078.67 560.07 1058.99 632.28 1202.11 595.30
00002719 00000043 904.97 234.68 408.85 523.27 989.72 464.50 1149.33 422.67 1078.14 560.43 1059.87 632.46 1201.30 595.79
00002720 00000044 905.91 235.31 408.59 523.50 990.29 465.91 1149.55 423.83 1078.33 560.76 1060.35 633.53 1201.72 596.65
00002721 00000045 906.30 237.91 407.83 522.10 991.11 466.86 1149.49 425.29 1078.51 561.70 1060.91 633.53 1201.58 597.05
00002722 00000046 906.57 238.61 407.36 522.80 990.96 466.79 1149.14 425.95 1078.53 562.44 1060.67 633.28 1201.61 597.25
00002723 00000047 906.49 236.41 408.15 525.93 991.21 467.71 1149.04 426.70 1078.57 562.95 1060.66 633.59 1201.93 597.57
00002724 00000048 907.30 237.79 407.66 524.50 991.55 468.58 1149.39 428.29 1079.03 564.36 1060.14 633.51 1201.86 597.98
00002725 00000049 907.88 238.97 407.64 523.72 992.13 469.46 1150.30 429.72 1079.55 565.16 1059.80 633.30 1202.28 598.09
00002726 00000050 908.10 239.46 407.99 523.98 992.36 469.75 1150.96 430.58 1080.17 567.28 1059.65 632.43 1204.26 597.72
00002727 00000051 908.88 241.19 407.67 524.46 993.30 470.56 1151.34 431.76 1080.97 567.99 1059.63 632.14 1204.84 597.69
00002728 00000052 909.66 244.05 407.38 522.66 993.26 471.41 1152.38 432.23 1081.62 568.86 1059.23 632.57 1205.87 597.75
00002729 00000053 910.03 243.23 407.71 524.24 993.93 471.34 1152.66 432.24 1082.18 569.24 1060.13 632.56 1206.95 597.85
00002730 00000054 910.54 243.75 407.19 524.29 994.21 471.87 1152.76 432.77 1082.27 569.20 1060.20 632.96 1206.81 598.26
00002731 00000055 910.64 243.84 407.34 524.36 994.05 471.77 1152.76 432.51 1082.16 569.46 1059.96 633.01 1206.77 598.21
00002732 00000056 910.01 242.80 407.35 523.88 994.03 471.38 1153.11 432.79 1082.29 569.81 1059.53 632.54 1206.32 598.27
00002733 00000057 910.51 242.47 406.72 524.43 993.99 471.56 1152.87 432.71 1082.33 569.78 1059.68 632.62 1206.36 598.10
00002734 00000058 910.23 242.07 407.02 524.09 994.03 471.34 1152.95 432.74 1082.19 569.69 1059.54 632.22 1206.24 597.91
00002735 00000059 910.76 243.00 405.96 523.00 994.10 471.43 1153.00 432.92 1082.32 569.66 1059.59 632.17 1206.29 597.89
00002736 00000060 910.75 244.18 406.36 521.58 993.93 471.40 1152.77 432.88 1081.97 569.93 1059.56 632.48 1205.92 598.14
00002737 00000061 910.70 243.89 406.32 521.67 993.73 471.48 1152.64 432.81 1081.81 569.84 1059.28 632.34 1205.68 597.91
00002738 00000062 910.91 243.19 406.59 522.57 993.73 471.58 1152.10 433.18 1081.28 569.76 1059.20 632.46 1205.13 598.28
00002739 00000063 910.54 243.79 406.00 521.70 993.54 470.92 1152.01 433.58 1081.18 570.01 1058.78 632.03 1203.77 598.80
00002740 00000064 909.77 242.13 405.03 523.18 993.71 471.19 1151.94 433.68 1081.78 569.26 1058.86 632.10 1202.84 598.84
00002741 00000065 909.32 242.90 404.20 520.37 993.77 471.01 1153.28 434.89 1082.99 571.50 1057.10 631.16 1202.60 599.21
00002742 00000066 909.38 250.24 408.74 525.68 993.68 472.94 1159.08 436.12 1087.07 578.07 1053.23 641.86 1208.45 609.19
00002743 00000067 908.70 252.57 408.15 521.14 992.87 473.85 1159.22 437.05 1087.00 580.29 1052.32 644.20 1205.66 611.85
00002744 00000068 908.39 250.95 408.39 524.46 992.35 474.66 1158.91 437.18 1086.73 580.21 1051.70 645.15 1206.53 612.22
00002745 00000069 908.83 252.20 407.02 523.06 992.10 474.85 1158.36 436.97 1086.18 579.84 1051.42 646.13 1205.79 612.85
00002746 00000070 908.85 251.09 406.59 523.63 991.27 475.70 1158.50 437.26 1086.04 581.18 1050.87 647.52 1205.88 613.84
00002747 00000071 907.66 250.74 407.40 525.66 989.84 475.25 1156.27 437.08 1083.34 580.88 1048.84 648.55 1203.92 615.15
00002748 00000072 905.10 252.99 410.08 523.51 986.14 478.42 1152.53 438.97 1078.87 580.98 1048.33 652.19 1201.67 617.88
00002749 00000073 903.19 255.04 407.97 522.87 983.20 482.95 1147.43 443.38 1073.99 584.30 1046.87 655.53 1198.74 621.08
00002750 00000074 901.09 256.20 407.92 521.22 979.86 485.88 1140.59 447.53 1067.35 585.78 1044.30 657.96 1191.39 624.61
00002751 00000075 899.47 256.95 409.83 520.91 980.03 486.83 1135.68 452.77 1062.16 583.66 1043.33 657.23 1181.91 627.60
00002752 00000076 898.36 257.83 410.02 525.69 976.90 490.38 1128.50 457.22 1054.96 588.97 1043.87 662.81 1175.74 633.80
00002753 00000077 898.15 262.39 408.89 523.22 974.77 492.39 1125.95 461.73 1048.70 593.30 1042.48 667.56 1169.85 640.68
00002754 00000078 899.02 264.71 406.78 523.30 974.64 496.35 1124.35 465.15 1046.27 595.21 1041.88 670.11 1170.13 642.58
00002755 00000079 899.21 263.88 406.13 524.93 973.75 496.40 1123.66 465.75 1044.52 595.16 1039.84 669.52 1170.47 642.38
00002756 00000080 898.82 263.78 406.76 523.14 974.13 496.33 1124.21 465.32 1046.13 594.93 1040.53 668.03 1172.50 640.48
00002757 00000081 899.33 263.13 405.63 523.30 974.04 492.84 1123.94 463.49 1045.19 593.34 1041.03 666.64 1170.08 640.60
00002758 00000082 898.72 260.46 406.58 524.44 972.85 492.60 1124.05 460.92 1046.15 590.66 1039.59 663.44 1174.35 635.34
00002759 00000083 898.97 256.73 406.32 526.95 972.50 492.21 1125.60 459.18 1048.01 590.51 1039.01 661.21 1179.39 631.94
00002760 00000084 903.68 257.53 403.32 521.65 972.89 489.64 1128.86 459.44 1047.07 583.00 1041.50 650.14 1180.28 623.27
00002761 00000085 899.47 256.99 407.38 524.42 974.48 490.76 1129.81 457.19 1053.13 589.54 1037.80 658.50 1182.99 628.73
00002762 00000086 900.48 256.35 406.87 524.10 975.80 490.28 1131.60 456.68 1054.82 587.97 1037.90 658.37 1183.50 628.72
00002763 00000087 901.33 254.66 407.51 528.32 977.39 490.37 1133.84 455.72 1057.34 587.06 1040.09 660.12 1187.25 629.63
00002764 00000088 903.25 255.22 406.29 528.71 978.64 488.82 1134.96 455.33 1057.74 586.15 1041.70 660.44 1187.85 630.95
00002765 00000089 904.14 257.34 405.25 527.47 979.66 488.70 1135.49 456.03 1057.50 585.15 1042.82 661.00 1187.91 632.18
00002766 00000090 905.02 258.25 405.19 528.70 980.47 490.11 1135.19 456.44 1058.37 586.07 1044.61 662.42 1189.98 632.70
00002767 00000091 905.87 256.90 404.44 532.10 981.48 490.97 1134.78 457.51 1059.69 587.33 1047.32 663.97 1191.12 634.34
00002768 00000092 905.10 260.10 404.08 528.27 981.79 490.73 1134.52 458.52 1059.00 586.96 1048.00 663.58 1189.73 635.06
00002769 00000093 904.63 260.40 405.28 528.39 981.61 491.50 1133.61 460.05 1057.96 587.54 1048.04 664.30 1187.72 636.47
00002770 00000094 904.91 260.36 405.79 529.35 981.57 492.70 1132.96 462.46 1056.85 588.60 1046.72 664.43 1185.15 637.51
00002771 00000095 904.78 262.27 404.70 525.96 981.77 493.70 1132.57 464.88 1056.31 591.48 1046.31 663.96 1183.84 638.24
00002772 00000096 904.61 264.59 403.47 523.68 982.27 495.73 1134.61 469.28 1056.22 591.98 1045.83 664.63 1181.82 640.96
00002773 00000097 909.19 267.07 401.19 522.64 986.93 496.77 1135.60 472.57 1057.70 592.41 1049.16 665.39 1180.23 643.55
00002774 00000098 910.44 268.70 400.35 520.78 987.27 498.98 1136.47 473.66 1058.74 594.12 1050.01 667.31 1180.74 644.63
00002775 00000099 911.39 268.98 401.33 519.80 988.04 499.97 1140.08 475.56 1060.76 596.00 1048.90 667.57 1182.37 645.70
00002776 00000100 912.09 268.61 401.76 519.49 988.82 501.84 1143.83 477.12 1063.53 597.96 1048.17 668.67 1183.66 646.58
00002777 00000101 912.76 269.88 401.52 517.74 990.22 503.17 1146.37 478.28 1066.04 599.64 1047.88 669.33 1184.79 647.21
00002778 00000102 912.16 270.96 402.79 516.79 990.97 504.25 1148.99 478.44 1068.81 600.00 1049.06 669.89 1187.03 647.00
00002779 00000103 911.83 270.25 403.17 518.36 990.36 504.61 1149.91 477.24 1069.73 600.18 1049.74 671.35 1189.10 647.35
00002780 00000104 910.20 271.40 405.66 518.52 989.49 504.49 1150.24 476.21 1069.65 599.67 1049.41 672.16 1189.92 647.44
00002781 00000105 910.47 270.89 406.21 522.16 990.40 505.03 1149.28 477.06 1070.34 601.20 1050.75 673.66 1190.02 649.00
00002782 00000106 908.97 270.96 407.88 521.58 989.67 504.04 1150.85 475.83 1071.23 602.72 1051.19 674.09 1191.90 649.15
00002783 00000107 908.61 270.43 410.58 524.33 989.91 502.66 1150.78 473.06 1072.60 602.37 1052.59 674.34 1193.73 648.29
00002784 00000108 910.11 269.86 408.49 525.71 990.85 500.17 1150.16 469.84 1073.38 601.74 1055.27 674.16 1195.80 647.47
00002785 00000109 910.91 268.02 410.60 527.23 992.50 497.14 1151.61 467.37 1075.50 600.02 1057.28 672.88 1198.00 646.57
00002786 00000110 913.79 269.68 409.40 525.51 994.72 495.62 1153.83 465.65 1077.25 597.47 1059.53 672.33 1199.70 645.84
00002787 00000111 917.42 271.33 407.54 523.20 997.32 494.35 1156.22 464.78 1079.67 596.62 1063.67 671.99 1202.54 645.91
00002788 00000112 920.30 270.82 405.54 523.31 998.99 493.87 1157.10 463.99 1080.57 595.99 1066.20 671.94 1204.24 645.63
00002789 00000113 922.85 270.86 403.65 523.26 1000.89 492.74 1158.10 462.88 1081.50 595.36 1068.71 672.25 1205.46 646.00
00002790 00000114 924.41 268.88 404.19 524.91 1002.42 491.60 1160.05 462.16 1082.83 594.43 1069.96 671.62 1207.01 645.68
00002791 00000115 925.94 268.82 402.99 524.51 1003.48 491.29 1160.67 461.47 1083.60 593.70 1071.21 671.54 1207.34 645.33
00002792 00000116 926.06 268.66 403.51 524.74 1004.14 490.19 1161.50 460.27 1084.32 592.74 1072.01 670.60 1208.44 644.29
00002793 00000117 926.16 266.75 403.98 527.09 1004.99 488.77 1161.45 458.72 1084.92 592.30 1073.04 670.24 1208.46 643.81
00002794 00000118 925.28 264.57 405.17 529.29 1004.64 487.69 1161.93 457.52 1084.97 591.53 1071.95 669.42 1208.71 642.91
00002795 00000119 925.08 264.33 404.50 528.69 1004.43 487.03 1161.72 457.07 1084.32 589.71 1070.66 668.50 1207.33 642.32
00002796 00000120 923.70 263.90 405.24 525.41 1003.68 486.42 1163.29 457.33 1085.13 589.34 1068.03 667.20 1206.19 641.89
00002797 00000121 922.60 262.32 406.92 524.54 1002.41 486.30 1164.17 457.58 1084.99 589.04 1066.75 667.51 1205.53 642.51
00002798 00000122 921.11 263.15 407.96 522.74 1001.85 485.93 1165.32 458.34 1085.13 588.39 1063.90 666.17 1204.05 642.20
00002799 00000123 921.41 264.55 406.01 522.11 1001.48 486.30 1165.51 459.23 1084.61 588.91 1061.72 666.50 1201.71 643.09
00002800 00000124 920.22 263.91 407.06 520.86 1000.24 486.43 1165.02 460.94 1083.76 590.54 1059.18 667.04 1198.73 644.90
00002801 00000125 919.48 264.55 406.41 519.50 999.52 486.99 1165.15 461.94 1083.52 591.63 1056.36 666.64 1196.99 644.98
00002802 00000126 919.71 266.44 405.78 517.59 999.89 488.11 1164.82 462.72 1083.63 591.23 1056.09 666.20 1196.76 644.31
00002803 00000127 917.87 266.00 406.57 519.83 998.90 488.45 1163.21 461.84 1083.49 592.10 1057.45 667.89 1197.26 644.91
00002804 00000128 916.25 265.42 406.75 519.98 997.93 489.31 1162.18 461.09 1083.13 591.63 1057.68 668.88 1197.06 644.57
00002805 00000129 915.26 263.90 408.08 520.53 997.33 489.72 1161.53 460.32 1082.79 591.18 1058.30 669.35 1197.47 643.94
00002806 00000130 913.02 263.77 408.73 519.29 995.81 493.10 1161.20 460.01 1083.94 592.15 1058.74 671.23 1198.76 642.77
00002807 00000131 911.78 259.14 410.80 522.94 995.09 492.95 1161.55 458.85 1085.05 592.44 1058.27 670.52 1200.11 641.07
00002808 00000132 910.63 259.08 411.29 521.18 995.71 493.15 1162.47 456.66 1087.36 591.90 1060.36 670.08 1202.19 638.82
00002809 00000133 909.71 257.44 412.61 521.80 996.02 493.34 1162.95 454.09 1089.03 589.96 1063.15 669.41 1206.37 635.76
00002810 00000134 909.52 259.12 411.07 518.07 998.35 493.05 1163.71 451.48 1092.73 588.46 1066.58 667.86 1208.66 632.39
00002811 00000135 907.97 258.70 410.98 516.27 998.26 492.34 1163.61 449.07 1093.46 587.33 1068.02 667.58 1209.46 630.94
00002812 00000136 905.82 257.26 411.48 517.06 998.39 492.62 1162.92 447.71 1094.78 583.55 1068.73 666.96 1209.28 629.30
00002813 00000137 905.04 256.59 410.78 514.78 998.20 492.62 1162.63 445.48 1096.05 582.69 1069.90 666.48 1209.86 626.85
00002814 00000138 904.00 254.41 411.77 515.83 999.58 490.42 1163.90 442.74 1099.45 581.65 1071.79 665.37 1211.31 625.33
00002815 00000139 907.10 253.06 410.24 517.54 1002.42 490.69 1165.82 439.90 1103.09 579.16 1078.42 665.83 1215.63 623.31
00002816 00000140 905.54 250.83 413.23 523.52 1002.71 495.15 1167.20 438.26 1107.01 578.06 1082.57 670.92 1220.51 623.58
00002817 00000141 904.76 252.79 412.29 524.05 1001.63 504.05 1167.02 442.11 1108.50 581.27 1083.85 676.17 1224.15 624.63
00002818 00000142 900.39 256.94 414.06 525.78 1001.07 511.30 1167.15 449.14 1109.91 590.49 1083.93 680.93 1225.44 629.31
00002819 00000143 897.11 260.70 414.56 525.82 998.47 522.69 1163.53 455.12 1108.29 600.31 1086.99 689.49 1224.33 633.18
00002820 00000144 894.03 265.49 413.51 525.70 997.70 527.73 1160.97 464.19 1107.04 607.80 1086.39 692.83 1220.60 639.78
CROP_BBOX: 591 0 1651 1011
