Video ID: 	C0rcLn4N9OY
H: 	1080
W: 	1920
FPS: 	23.976023976023978

FRAME INDEX X0 Y0 W H [Landmarks (5 Points)]

00008519 00000000 933.46 229.82 409.91 675.04 1038.68 501.11 1080.16 517.14 931.83 597.89 1005.18 733.06 1033.22 744.27
00008520 DELETE   933.84 236.39 407.92 680.61 1044.14 504.69 1074.83 517.89 934.88 606.46 1013.85 739.89 1039.15 748.69
00008521 00000002 931.15 247.61 414.48 682.26 1043.40 504.44 1075.42 517.93 936.95 609.43 1014.12 747.37 1041.49 755.64
00008522 00000003 932.97 254.06 412.11 682.70 1049.83 505.68 1077.73 524.56 929.40 618.09 1010.17 756.54 1036.64 767.05
00008523 00000004 932.63 259.59 411.08 687.00 1051.73 509.67 1077.14 528.59 931.58 623.44 1014.72 763.61 1038.77 773.79
00008524 00000005 930.90 264.29 409.40 699.38 1053.09 516.68 1072.79 530.58 934.87 627.85 1025.17 774.41 1048.50 779.56
00008525 00000006 928.25 270.15 410.16 696.88 1043.72 524.34 1066.12 533.14 932.49 634.53 1031.24 780.67 1057.03 781.22
00008526 DELETE   926.81 267.68 405.18 706.91 1041.89 528.40 1060.97 536.40 931.58 639.08 1033.45 785.83 1057.67 785.62
00008527 DELETE   925.35 271.13 406.85 705.17 1037.41 536.44 1057.42 543.36 928.83 648.06 1032.73 790.24 1055.71 789.96
00008528 00000009 923.72 276.33 410.75 688.61 1031.43 537.16 1060.03 548.39 924.11 652.53 1022.28 785.58 1048.22 788.99
00008529 00000010 922.19 278.19 408.72 684.67 1028.55 539.06 1058.87 553.64 921.69 655.98 1013.59 786.72 1040.42 792.89
00008530 00000011 919.95 280.38 413.60 684.76 1028.86 540.74 1057.01 553.89 919.74 657.60 1014.10 787.66 1040.34 792.84
00008531 00000012 924.21 280.75 411.67 686.63 1029.27 540.94 1058.53 556.15 921.75 659.11 1019.53 785.52 1049.96 792.38
00008532 00000013 928.22 282.35 408.98 693.10 1032.49 541.57 1058.19 553.44 926.40 661.98 1030.61 791.41 1058.60 795.84
00008533 00000014 930.63 280.37 410.34 702.49 1036.94 541.75 1062.87 554.28 928.50 664.63 1036.21 795.40 1063.69 800.45
00008534 00000015 932.09 280.08 416.32 699.92 1037.19 542.70 1066.67 557.57 929.24 663.42 1034.10 792.37 1063.99 799.55
00008535 00000016 933.20 279.98 417.27 691.47 1037.14 542.32 1069.55 559.44 928.55 661.34 1026.01 787.19 1058.01 796.08
00008536 00000017 932.91 275.02 420.07 694.34 1040.25 540.41 1072.48 558.88 929.32 658.19 1023.35 785.39 1052.90 795.18
00008537 00000018 933.05 274.75 423.37 694.99 1040.09 540.66 1074.50 556.47 931.54 654.40 1024.47 784.67 1057.58 792.08
00008538 00000019 933.78 277.36 421.45 691.99 1041.39 538.07 1075.65 554.81 931.63 650.33 1024.82 782.58 1057.84 790.72
00008539 00000020 935.07 278.46 423.87 686.73 1043.06 536.12 1079.35 556.62 932.32 647.52 1024.29 777.98 1057.77 789.38
00008540 00000021 935.84 278.82 424.21 688.14 1045.94 535.85 1082.44 555.88 934.33 643.50 1024.02 778.20 1058.51 789.24
00008541 00000022 935.33 275.55 427.63 689.36 1045.95 534.69 1085.78 556.79 935.44 640.69 1021.99 775.54 1058.05 788.34
00008542 00000023 938.52 276.28 422.50 683.36 1045.98 532.86 1088.21 557.66 936.82 641.10 1022.40 772.91 1058.84 788.16
00008543 00000024 942.35 272.01 425.58 694.40 1047.96 537.54 1091.31 563.59 936.43 643.68 1026.15 775.35 1066.74 791.44
00008544 00000025 945.46 278.12 423.13 691.02 1042.60 546.99 1093.14 575.13 933.46 649.41 1028.87 775.34 1074.75 792.67
00008545 00000026 947.37 280.71 422.74 693.55 1041.37 550.99 1092.59 576.98 936.22 653.62 1032.45 780.46 1080.23 796.02
00008546 00000027 945.37 282.25 426.34 696.50 1043.14 547.33 1090.55 575.91 937.26 656.32 1033.38 782.39 1080.13 799.99
00008547 00000028 944.65 286.77 427.24 692.68 1043.99 546.49 1092.14 575.13 940.51 658.15 1035.39 782.90 1082.67 800.72
00008548 00000029 945.87 287.44 426.56 690.85 1044.66 545.80 1094.44 574.54 942.65 657.74 1034.51 783.53 1081.50 801.70
00008549 00000030 946.60 289.50 424.73 689.44 1046.10 545.69 1095.35 574.96 944.06 658.01 1035.63 783.22 1082.67 801.92
00008550 00000031 947.79 287.59 426.51 692.11 1048.15 546.70 1097.17 576.56 945.63 658.44 1036.41 784.59 1083.35 803.94
00008551 00000032 948.33 289.65 428.43 690.96 1049.42 547.65 1097.51 578.23 947.06 659.77 1038.69 784.94 1086.13 804.78
00008552 00000033 953.65 283.11 426.28 699.40 1052.85 553.72 1103.32 582.48 949.55 664.43 1043.84 790.61 1091.38 808.64
00008553 00000034 957.61 281.90 427.59 713.89 1055.76 560.75 1099.26 579.93 952.09 670.64 1057.09 807.85 1097.56 819.21
00008554 00000035 958.67 284.64 423.55 717.06 1059.56 561.94 1101.33 582.50 956.19 676.83 1067.07 808.47 1111.45 820.73
00008555 00000036 961.52 295.83 436.03 702.06 1063.42 564.16 1103.54 584.58 966.09 683.33 1070.72 804.16 1104.96 816.11
00008556 00000037 963.08 305.06 443.87 696.09 1062.18 564.21 1108.46 584.74 968.60 688.10 1072.69 805.69 1112.92 817.57
00008557 00000038 960.95 306.51 456.00 691.85 1060.42 560.73 1114.67 585.16 971.35 692.99 1071.23 804.59 1118.11 819.38
00008558 00000039 961.69 310.61 450.68 672.89 1056.57 560.26 1116.36 587.11 971.96 692.32 1066.24 798.05 1116.86 814.64
00008559 00000040 962.35 305.75 450.70 672.48 1057.35 561.98 1117.18 590.20 972.53 692.34 1064.46 800.78 1109.61 818.43
00008560 00000041 962.27 305.43 440.26 670.19 1056.89 562.61 1115.08 592.40 972.44 689.97 1064.06 798.75 1105.93 817.91
00008561 00000042 961.43 305.93 440.51 667.11 1056.82 563.72 1111.86 592.96 971.96 689.31 1064.42 799.14 1102.79 817.88
00008562 00000043 959.40 304.62 430.64 664.12 1056.85 564.90 1106.20 594.47 971.84 688.17 1064.41 796.23 1097.60 814.87
00008563 00000044 960.15 304.75 425.62 659.32 1057.39 564.75 1103.29 595.22 971.52 687.12 1065.04 793.65 1094.01 813.09
00008564 00000045 956.27 310.79 423.12 654.42 1053.61 563.51 1098.34 596.17 958.63 684.08 1054.58 793.64 1092.89 817.17
00008565 00000046 955.10 306.85 419.88 658.66 1051.49 563.34 1098.02 593.53 958.48 680.79 1051.14 792.59 1091.63 813.15
00008566 00000047 954.16 304.64 412.24 658.23 1051.48 562.41 1094.35 590.30 955.52 675.55 1046.99 790.52 1086.45 808.37
00008567 00000048 952.58 302.05 412.17 657.99 1046.96 562.78 1091.05 590.98 951.82 676.19 1045.29 788.46 1085.06 806.68
00008568 00000049 953.56 304.20 410.85 656.41 1044.87 567.63 1088.51 591.97 951.81 677.82 1045.11 790.46 1086.88 805.67
00008569 00000050 955.05 302.05 409.71 661.20 1047.01 569.36 1091.98 595.80 950.56 680.57 1046.14 791.13 1089.52 807.95
00008570 00000051 955.83 303.12 411.61 676.77 1044.86 571.09 1089.60 593.46 950.09 683.30 1053.63 800.57 1098.99 814.28
00008571 00000052 950.63 306.28 425.44 682.07 1046.13 573.49 1095.60 594.71 955.05 686.09 1049.35 808.58 1092.46 822.04
00008572 00000053 946.83 301.78 437.70 688.16 1046.59 569.25 1095.75 593.42 949.67 685.06 1040.87 809.02 1081.50 824.61
00008573 00000054 945.62 300.83 435.16 690.53 1046.64 564.04 1097.87 588.45 948.52 677.41 1036.52 806.65 1076.09 822.60
00008574 00000055 945.50 297.59 442.99 700.20 1046.74 559.19 1097.98 580.75 949.16 678.11 1044.08 808.71 1086.65 822.15
00008575 00000056 947.92 297.27 435.19 706.27 1047.39 556.98 1094.79 576.20 949.28 675.92 1055.80 809.00 1098.82 820.75
00008576 00000057 947.01 298.89 422.21 692.84 1044.68 552.64 1090.37 575.34 944.17 672.66 1049.33 798.92 1093.02 813.27
00008577 00000058 943.84 300.24 422.80 674.05 1042.64 551.63 1089.20 576.86 940.99 667.54 1034.81 792.30 1076.70 807.57
00008578 00000059 944.17 292.67 416.24 677.87 1045.04 551.51 1086.59 577.80 939.61 664.63 1034.11 787.20 1073.82 803.23
00008579 00000060 946.03 285.81 416.03 688.61 1046.01 549.49 1085.17 573.58 941.09 663.15 1040.35 787.60 1080.87 801.39
00008580 00000061 946.00 286.97 416.11 689.04 1046.44 549.55 1083.96 573.02 941.65 662.18 1042.82 787.31 1082.35 800.62
00008581 00000062 946.28 289.55 419.03 688.31 1044.82 552.17 1084.04 573.84 942.91 664.72 1044.56 789.90 1085.27 802.05
00008582 00000063 943.54 291.53 421.66 697.38 1045.80 550.57 1085.14 572.14 941.90 666.39 1046.77 798.30 1084.48 811.14
00008583 00000064 943.38 291.56 423.96 690.01 1046.68 550.88 1087.28 575.99 939.78 665.03 1038.82 792.94 1077.44 807.75
00008584 00000065 943.57 287.50 428.19 696.02 1047.22 552.45 1090.97 572.82 942.60 666.68 1037.78 794.01 1080.80 805.19
00008585 00000066 942.39 282.26 430.17 707.08 1047.65 547.09 1087.82 563.53 941.64 665.95 1040.46 797.38 1082.01 805.30
00008586 00000067 945.09 283.96 426.40 706.03 1049.59 544.14 1087.37 561.67 945.32 662.99 1044.46 794.71 1084.70 803.65
00008587 00000068 945.83 282.70 424.27 710.19 1049.80 541.90 1089.76 558.10 949.15 660.02 1046.78 795.99 1085.78 804.07
00008588 00000069 948.72 278.53 425.96 710.82 1051.28 537.84 1090.16 554.59 949.98 658.67 1048.98 792.28 1086.77 800.76
00008589 00000070 952.51 278.32 420.73 706.70 1050.80 531.57 1092.29 548.76 950.01 651.29 1046.92 787.61 1086.94 796.77
00008590 00000071 949.09 267.08 424.06 717.16 1054.53 525.25 1093.82 545.25 948.17 644.58 1042.95 783.24 1082.65 794.17
00008591 00000072 946.48 269.36 435.02 717.86 1055.34 521.59 1097.04 543.37 948.84 639.68 1041.97 781.71 1084.61 794.35
00008592 DELETE   954.02 270.08 433.17 716.35 1056.38 533.57 1106.08 558.05 951.91 640.68 1045.15 778.89 1094.58 793.66
00008593 00000074 960.23 269.52 429.43 714.97 1060.89 534.71 1111.33 556.71 957.34 640.03 1047.96 779.70 1098.05 792.79
00008594 00000075 962.80 267.52 427.26 711.69 1066.30 532.37 1115.65 554.08 961.86 635.28 1046.93 775.50 1095.74 788.90
00008595 00000076 960.10 260.60 432.97 710.69 1069.52 527.21 1113.62 548.82 963.88 632.55 1046.96 769.35 1094.07 782.71
00008596 00000077 957.26 255.76 434.95 708.85 1068.11 521.90 1111.20 543.10 962.63 627.81 1043.69 765.34 1089.26 778.36
00008597 00000078 958.70 251.91 428.92 709.56 1070.09 519.13 1109.86 538.76 962.90 624.23 1042.54 762.53 1085.12 774.17
00008598 00000079 962.06 259.12 415.75 696.74 1069.14 531.01 1110.74 548.92 959.09 624.26 1042.63 762.12 1081.29 771.89
00008599 00000080 966.70 248.01 407.74 704.01 1067.88 520.80 1102.27 546.03 963.15 617.18 1051.77 749.77 1081.97 768.09
00008600 00000081 964.26 243.76 407.33 705.63 1071.43 511.78 1101.12 539.07 962.26 612.72 1050.95 745.98 1078.44 765.56
00008601 00000082 963.83 243.42 401.45 710.96 1073.15 511.69 1105.52 536.58 966.02 611.91 1050.55 749.79 1080.01 767.14
00008602 00000083 963.86 249.29 399.81 713.56 1075.36 508.65 1103.53 529.99 963.41 612.19 1052.61 754.22 1081.30 768.43
00008603 00000084 964.13 250.14 401.49 715.22 1077.47 507.70 1105.91 526.27 965.77 613.30 1054.91 758.68 1082.31 770.54
00008604 00000085 965.14 247.78 403.90 724.61 1079.27 507.53 1105.93 524.39 964.94 614.19 1059.77 762.82 1085.45 773.18
00008605 00000086 965.10 247.30 405.67 724.30 1079.13 506.20 1105.42 523.05 964.37 614.15 1060.53 763.01 1085.68 773.22
00008606 00000087 964.73 245.87 407.42 723.61 1078.60 505.42 1105.82 523.18 963.86 614.95 1060.24 762.37 1085.76 773.28
00008607 00000088 964.38 244.82 408.95 723.08 1078.31 505.88 1105.08 523.81 963.24 615.37 1059.43 761.27 1084.76 772.35
00008608 00000089 964.19 249.10 407.62 713.26 1077.33 507.20 1104.82 526.11 963.47 614.49 1055.96 758.66 1082.06 770.70
00008609 00000090 959.75 244.74 412.58 717.54 1086.54 509.48 1106.70 533.76 976.89 614.63 1062.68 754.27 1072.97 770.56
00008610 00000091 959.61 243.07 415.79 715.90 1085.76 510.90 1108.15 536.33 978.26 616.90 1062.25 754.04 1073.26 771.35
00008611 00000092 960.28 246.10 413.32 712.34 1083.09 512.93 1108.04 538.49 978.49 617.54 1060.35 753.86 1072.94 771.41
00008612 00000093 959.15 245.68 416.37 699.66 1084.55 509.73 1108.52 536.91 977.18 613.09 1057.22 746.08 1069.22 764.66
00008613 00000094 957.58 240.18 417.99 699.57 1083.83 506.57 1108.60 534.36 977.14 605.19 1051.75 740.19 1062.76 759.28
00008614 00000095 957.31 246.94 408.39 678.34 1074.53 501.79 1114.05 531.54 966.37 599.41 1034.94 733.30 1070.54 754.69
00008615 00000096 957.82 244.52 406.85 678.11 1076.99 499.81 1115.77 530.83 964.99 596.81 1033.84 730.62 1069.56 752.87
00008616 00000097 959.36 232.63 409.64 694.03 1086.17 499.02 1108.81 530.29 974.20 593.78 1049.11 727.00 1058.57 748.53
00008617 00000098 959.24 236.11 406.99 689.42 1086.02 496.91 1108.77 528.04 974.12 592.99 1050.03 725.86 1060.04 747.24
00008618 00000099 959.05 234.53 408.61 692.83 1086.79 497.60 1109.03 527.51 974.55 593.81 1050.62 727.83 1060.44 748.28
00008619 00000100 959.00 238.55 407.99 691.27 1086.76 498.72 1108.77 528.21 975.04 594.63 1050.66 729.60 1060.01 749.73
00008620 00000101 958.84 238.79 408.47 694.67 1086.87 501.09 1108.96 529.71 976.67 595.04 1049.99 732.09 1059.38 751.76
00008621 00000102 956.89 247.11 402.97 683.27 1074.46 502.84 1115.44 531.39 966.51 597.72 1033.33 735.76 1069.34 756.34
00008622 00000103 958.36 241.55 402.90 697.49 1085.28 503.72 1108.07 533.73 978.21 597.24 1047.53 735.93 1057.53 757.45
00008623 00000104 956.69 241.46 405.89 700.44 1084.62 504.53 1108.12 534.12 978.24 598.16 1047.19 738.32 1057.12 759.59
00008624 00000105 956.01 242.23 405.60 704.65 1082.31 506.11 1107.08 536.19 977.37 600.11 1045.73 741.03 1056.64 762.95
00008625 00000106 956.11 242.06 406.79 707.89 1083.48 506.54 1106.84 537.66 976.51 602.07 1047.80 741.90 1058.18 764.43
00008626 00000107 956.80 243.88 405.64 711.88 1084.44 507.96 1107.41 538.02 977.30 601.68 1049.27 745.09 1058.98 766.77
00008627 00000108 957.20 244.79 403.93 715.49 1085.34 508.92 1106.17 539.77 976.80 602.04 1049.71 746.22 1059.80 768.47
00008628 00000109 960.64 250.90 405.92 709.83 1074.92 511.82 1109.83 538.22 964.36 606.74 1042.35 751.58 1073.35 770.35
00008629 00000110 962.15 249.83 407.55 720.47 1075.76 512.12 1109.01 538.40 963.89 609.24 1046.45 755.86 1076.35 774.46
00008630 00000111 962.58 256.12 404.60 718.08 1076.84 514.18 1110.03 539.40 965.85 610.17 1047.60 759.08 1077.34 776.93
00008631 00000112 962.43 258.45 406.07 715.45 1078.43 514.45 1109.81 539.22 966.03 610.02 1048.63 759.38 1077.09 776.66
00008632 00000113 963.90 257.94 406.36 718.29 1078.25 515.48 1109.98 540.34 967.06 612.68 1051.24 761.79 1079.89 779.29
00008633 00000114 963.84 257.99 405.68 719.10 1078.36 516.11 1109.43 539.40 966.89 612.29 1052.79 762.30 1081.18 778.50
00008634 00000115 963.80 258.18 406.21 718.96 1078.92 516.63 1108.97 538.84 966.91 613.13 1055.29 762.90 1083.46 778.02
00008635 00000116 962.69 257.33 408.35 721.77 1080.15 517.06 1108.76 539.43 967.12 613.12 1055.70 763.60 1082.58 778.74
00008636 00000117 962.36 256.98 406.73 725.72 1079.00 516.56 1109.88 539.99 967.78 613.58 1056.42 765.28 1084.13 781.27
00008637 00000118 962.26 254.76 407.38 730.41 1078.52 516.77 1108.08 539.50 967.33 613.78 1057.97 767.10 1083.93 782.38
00008638 00000119 962.88 252.26 408.22 735.00 1077.76 515.61 1106.98 539.47 967.26 614.43 1060.05 766.90 1085.58 783.28
00008639 00000120 963.04 253.65 406.62 733.65 1076.22 516.13 1105.49 539.52 967.47 615.17 1061.76 767.53 1087.17 783.59
00008640 00000121 963.11 255.60 406.76 733.12 1076.12 517.55 1104.04 540.38 967.41 616.14 1064.76 769.21 1089.42 784.39
00008641 00000122 963.51 255.59 407.64 730.52 1075.84 518.29 1102.42 540.70 967.73 617.82 1068.30 767.83 1092.49 782.43
00008642 00000123 965.87 258.59 402.72 726.46 1073.25 518.52 1100.63 541.55 968.85 622.40 1071.96 769.59 1095.83 784.75
00008643 00000124 966.99 261.33 397.69 714.77 1070.11 518.49 1099.52 541.42 970.60 623.17 1071.90 766.72 1096.83 782.15
00008644 00000125 967.56 263.14 395.69 710.89 1069.07 518.37 1101.04 542.42 973.61 621.67 1071.03 765.37 1096.60 782.22
00008645 00000126 968.65 263.15 394.72 706.82 1068.56 518.47 1100.25 542.35 972.74 622.62 1070.29 762.65 1097.16 779.53
00008646 00000127 963.54 257.83 401.83 715.40 1074.91 521.07 1101.24 543.16 976.36 617.63 1068.49 759.65 1088.85 774.11
00008647 00000128 969.46 262.03 394.35 704.15 1069.04 518.78 1098.90 542.70 972.18 623.65 1071.13 759.85 1098.27 776.49
00008648 00000129 969.43 262.70 394.38 703.09 1068.43 518.58 1099.06 543.37 971.72 623.85 1070.67 759.27 1098.80 776.55
00008649 00000130 969.47 261.09 395.12 704.46 1067.73 518.11 1099.38 543.25 971.08 624.24 1070.15 759.02 1099.14 776.61
00008650 00000131 964.01 258.18 403.97 711.51 1074.43 522.21 1102.42 544.66 977.50 617.62 1067.35 756.62 1090.21 771.41
00008651 00000132 962.96 258.58 404.84 709.00 1072.92 521.85 1101.70 544.35 976.81 617.09 1066.75 755.18 1090.38 769.95
00008652 00000133 963.27 256.79 403.02 707.86 1072.91 522.36 1101.41 545.28 977.35 617.08 1066.77 754.58 1088.76 769.75
00008653 00000134 962.74 257.09 402.00 706.60 1072.24 523.07 1100.88 545.78 977.10 616.24 1066.03 753.91 1088.35 768.93
00008654 00000135 962.13 257.06 404.54 707.12 1072.03 523.37 1100.67 545.38 976.54 616.90 1066.04 754.64 1088.75 769.00
00008655 00000136 961.92 256.70 401.23 706.77 1072.33 523.03 1099.97 545.46 976.57 616.65 1066.49 754.10 1088.28 768.80
00008656 00000137 962.85 256.68 400.33 705.18 1072.10 523.40 1100.12 546.38 976.69 617.05 1067.17 753.23 1089.62 768.39
00008657 00000138 962.58 256.85 400.52 705.67 1072.20 523.24 1099.72 546.47 976.04 617.19 1066.69 753.41 1088.85 768.84
00008658 00000139 961.73 256.90 403.60 705.38 1071.87 524.29 1100.83 548.57 978.14 617.55 1065.30 753.11 1087.16 769.59
00008659 00000140 966.21 261.56 395.05 690.31 1064.89 519.84 1100.31 546.15 970.62 620.88 1059.18 752.21 1091.30 771.16
00008660 00000141 964.42 261.86 396.85 683.10 1064.74 518.75 1100.44 546.98 970.20 618.27 1056.42 746.11 1089.69 766.44
00008661 00000142 963.62 258.96 397.60 682.76 1066.66 519.08 1099.10 546.85 970.33 617.99 1056.34 744.72 1086.82 764.69
00008662 00000143 964.47 259.17 395.99 682.13 1067.07 522.68 1099.34 548.51 972.52 618.07 1055.75 745.71 1085.43 764.61
00008663 00000144 965.89 256.70 398.95 683.77 1062.73 525.15 1102.38 549.49 966.58 617.14 1051.41 743.10 1088.81 760.72
00008664 00000145 966.72 255.10 397.72 687.07 1062.53 524.50 1101.34 547.60 964.61 616.99 1052.09 743.21 1090.40 759.74
00008665 00000146 967.17 252.01 402.04 699.44 1062.44 524.55 1101.63 544.92 964.02 616.56 1055.53 747.36 1095.27 761.15
00008666 00000147 966.71 248.34 402.12 723.52 1064.39 520.92 1100.03 539.79 963.75 614.05 1060.65 754.76 1096.10 767.25
00008667 DELETE   962.25 235.75 414.06 742.79 1065.25 512.81 1101.45 534.76 958.32 608.56 1061.98 754.12 1097.18 768.26
00008668 00000149 958.00 227.23 416.89 739.29 1065.24 501.17 1103.00 528.10 952.36 601.64 1052.77 742.65 1092.16 760.15
00008669 00000150 956.54 221.29 420.59 737.94 1061.46 495.42 1102.92 520.54 948.72 599.98 1047.23 737.64 1092.66 754.00
00008670 00000151 954.68 218.94 427.18 732.12 1059.82 494.03 1108.66 521.80 947.16 596.46 1037.77 730.62 1089.57 749.03
00008671 00000152 951.34 220.21 431.59 725.62 1060.55 495.29 1111.93 525.48 948.56 595.31 1028.79 728.93 1080.17 749.48
00008672 00000153 952.89 223.16 429.97 721.47 1063.34 498.14 1110.97 528.37 950.21 594.47 1028.02 730.69 1072.64 751.79
00008673 00000154 955.28 227.05 427.46 717.36 1066.63 500.14 1112.09 533.01 954.72 597.47 1031.90 731.42 1075.61 754.78
00008674 00000155 958.96 229.62 427.51 717.20 1070.05 500.70 1115.26 533.95 959.29 597.80 1035.89 734.00 1077.65 757.96
00008675 00000156 960.44 228.95 433.86 717.76 1074.58 501.69 1116.77 535.31 960.57 597.14 1039.13 734.21 1077.09 758.54
00008676 00000157 961.58 223.69 429.42 717.16 1076.94 499.18 1118.64 533.90 964.13 595.03 1040.79 731.30 1076.68 756.53
00008677 00000158 961.77 223.22 432.72 711.80 1075.87 497.82 1118.66 529.40 964.34 593.92 1041.34 731.97 1077.55 754.39
00008678 00000159 962.08 221.38 435.34 711.08 1076.52 494.45 1120.34 524.93 964.95 591.84 1040.55 731.39 1075.69 752.90
00008679 00000160 961.79 223.34 430.41 705.95 1075.13 494.85 1119.53 524.54 965.48 591.41 1040.32 730.53 1076.29 751.51
00008680 00000161 962.77 224.49 427.99 703.45 1071.86 495.86 1120.29 525.56 966.73 591.74 1041.83 728.95 1081.96 750.08
00008681 00000162 964.28 226.18 425.44 699.65 1066.85 496.46 1117.96 524.59 964.26 595.75 1044.67 730.91 1089.06 751.54
00008682 00000163 962.58 225.76 422.35 700.03 1065.06 494.80 1117.19 525.25 964.52 598.96 1046.19 728.22 1092.63 750.63
00008683 00000164 964.06 223.10 422.46 701.86 1063.39 494.43 1116.60 524.18 963.22 600.20 1050.04 726.19 1099.21 747.70
