Video ID: 	_5rNOD1nsDg
H: 	2160
W: 	3840
FPS: 	25.0

FRAME INDEX X0 Y0 W H [Landmarks (5 Points)]

00012259 00000000 1897.64 259.32 441.27 658.14 1983.34 528.07 2179.91 493.76 2073.18 606.39 2013.62 737.15 2194.91 711.23
00012260 00000001 1891.57 251.60 443.13 662.85 1976.07 520.47 2176.64 486.52 2066.14 599.04 2007.24 733.95 2189.04 708.23
00012261 00000002 1884.30 255.31 447.00 669.93 1967.76 528.49 2168.83 491.88 2055.42 609.31 2000.59 741.02 2185.78 712.80
00012262 DELETE   1873.95 266.29 459.51 692.79 1958.66 536.57 2164.81 495.61 2043.61 621.76 1992.94 759.75 2182.57 727.12
00012263 DELETE   1870.53 279.59 460.59 691.76 1956.12 550.45 2161.20 510.94 2041.39 631.19 1991.59 780.40 2173.25 749.51
00012264 DELETE   1866.91 282.47 463.14 692.63 1955.20 568.25 2158.55 526.62 2045.23 657.94 2004.87 810.53 2168.43 778.26
00012265 00000006 1869.50 283.87 467.24 699.26 1955.55 576.19 2169.80 536.41 2057.04 671.01 2014.55 827.21 2178.10 797.62
00012266 00000007 1872.73 284.91 475.64 718.52 1965.79 579.04 2181.21 541.70 2068.28 683.13 2023.08 838.03 2189.16 809.87
00012267 00000008 1878.89 288.71 476.62 721.22 1976.98 585.19 2190.58 549.71 2078.54 697.84 2034.62 843.79 2199.07 816.65
00012268 00000009 1883.60 296.35 478.99 720.04 1983.88 589.83 2197.72 554.72 2085.66 704.97 2041.51 851.94 2205.64 824.60
00012269 00000010 1887.02 300.69 481.79 725.11 1986.60 593.54 2201.83 558.73 2088.24 706.31 2042.91 854.34 2208.12 827.27
00012270 00000011 1884.68 298.05 484.63 721.67 1984.56 593.95 2202.06 560.95 2086.72 708.12 2038.97 848.34 2205.40 822.88
00012271 00000012 1883.08 299.27 485.60 728.33 1984.07 595.54 2200.64 562.72 2084.76 710.11 2036.94 850.40 2201.93 825.10
00012272 00000013 1882.09 299.89 485.39 722.22 1982.24 596.81 2199.79 566.60 2083.20 712.07 2033.69 847.57 2195.15 824.82
00012273 00000014 1880.81 305.19 483.27 711.26 1981.94 599.86 2197.70 570.44 2084.63 715.16 2034.97 846.80 2191.48 824.55
00012274 00000015 1884.37 309.02 477.35 731.58 1984.00 604.54 2198.47 571.21 2084.63 723.81 2035.15 861.39 2198.54 835.56
00012275 00000016 1884.49 312.57 477.57 727.73 1985.20 607.83 2197.09 573.27 2085.81 729.61 2033.73 862.61 2203.01 835.71
00012276 00000017 1882.57 311.42 480.94 721.84 1983.47 609.95 2197.80 573.86 2087.01 730.57 2032.78 861.98 2207.34 834.11
00012277 00000018 1884.28 311.25 480.63 721.20 1986.91 609.51 2200.11 574.36 2090.66 730.22 2039.87 862.61 2207.43 835.28
00012278 00000019 1886.83 307.66 478.00 723.61 1991.49 606.21 2201.55 572.14 2096.72 727.38 2047.23 863.28 2204.12 836.43
00012279 00000020 1889.90 317.03 477.24 711.14 1994.20 610.71 2203.01 574.86 2103.40 725.32 2051.05 865.43 2204.75 837.37
00012280 00000021 1891.15 319.71 478.37 702.78 1996.21 613.14 2204.73 582.31 2105.39 725.42 2052.25 861.08 2204.44 837.19
00012281 00000022 1890.83 317.18 478.18 705.13 1995.32 613.21 2204.09 583.89 2103.39 729.68 2049.87 861.64 2203.02 838.93
00012282 00000023 1890.76 313.20 478.11 715.74 1995.59 616.77 2202.38 586.60 2102.18 736.89 2049.97 869.08 2201.40 845.62
00012283 00000024 1895.31 310.09 470.14 734.94 1996.73 620.39 2202.29 588.45 2099.32 743.31 2048.98 877.15 2205.15 852.62
00012284 00000025 1895.39 312.40 470.09 735.38 1995.58 620.34 2202.52 589.01 2096.26 745.45 2041.63 876.34 2209.69 852.02
00012285 00000026 1892.82 314.02 469.66 737.74 1992.99 619.05 2200.52 589.37 2094.37 747.13 2035.48 875.80 2206.19 852.82
00012286 00000027 1887.47 315.50 470.59 740.49 1987.50 621.35 2196.95 591.27 2088.72 748.75 2029.28 877.24 2204.79 854.39
00012287 00000028 1881.46 319.44 468.22 726.73 1980.79 621.46 2189.44 593.18 2080.03 752.39 2025.03 878.58 2195.51 856.87
00012288 00000029 1877.23 322.34 464.16 729.98 1978.43 626.08 2178.28 598.61 2072.46 758.19 2021.64 879.87 2181.28 858.66
00012289 00000030 1872.51 323.80 462.03 718.41 1972.14 629.05 2171.49 604.85 2065.67 762.80 2015.91 881.21 2168.48 862.50
00012290 00000031 1866.90 332.33 460.92 708.32 1964.80 634.57 2163.52 611.77 2058.31 770.28 2011.93 887.94 2162.87 870.26
00012291 00000032 1858.51 339.69 464.29 709.16 1956.41 639.90 2159.59 615.02 2055.08 774.25 2007.46 895.73 2159.89 876.35
00012292 00000033 1854.82 342.63 459.11 714.68 1948.49 642.54 2152.35 616.78 2046.32 774.98 1995.44 894.73 2158.33 874.13
00012293 00000034 1852.80 341.60 458.52 705.66 1939.16 640.49 2143.91 612.80 2037.40 764.42 1986.79 889.39 2152.30 868.27
00012294 00000035 1846.94 343.52 455.00 709.88 1931.04 640.34 2136.03 610.69 2026.75 766.44 1982.12 901.61 2145.52 878.77
00012295 00000036 1832.94 344.98 458.55 710.15 1926.85 647.36 2129.00 619.65 2022.33 769.71 1978.12 902.94 2144.28 880.22
00012296 00000037 1833.97 346.78 454.66 706.76 1922.75 644.82 2121.47 614.14 2019.98 767.27 1974.90 890.36 2134.84 866.00
00012297 00000038 1829.19 351.10 453.15 699.47 1918.41 646.94 2116.84 615.51 2015.70 770.00 1969.61 889.51 2132.04 864.18
00012298 00000039 1826.00 355.56 451.86 695.46 1915.32 647.43 2112.56 616.88 2011.10 771.09 1965.16 888.04 2128.28 863.12
00012299 00000040 1820.19 354.33 451.73 696.16 1911.31 647.36 2108.93 615.83 2007.86 772.48 1962.38 887.06 2124.96 861.07
00012300 00000041 1818.78 354.32 447.31 687.40 1907.07 647.72 2107.87 613.38 2005.08 771.05 1959.83 888.25 2124.79 859.98
00012301 00000042 1815.22 356.42 446.94 688.35 1904.95 645.99 2104.26 609.04 2002.17 767.98 1958.26 888.23 2124.72 857.31
00012302 DELETE   1837.00 353.85 453.71 680.56 1929.22 624.22 2124.14 582.58 2027.61 709.25 1977.91 848.92 2155.79 815.90
00012303 00000044 1837.54 347.49 450.69 678.24 1926.45 615.26 2124.40 574.55 2022.47 696.95 1977.96 841.83 2148.17 809.64
00012304 00000045 1834.60 343.31 450.49 678.61 1923.11 611.29 2119.13 570.02 2019.00 691.96 1981.68 839.92 2139.53 807.44
00012305 00000046 1829.80 343.34 453.67 686.12 1919.71 612.00 2116.64 569.24 2016.05 695.18 1981.77 845.55 2136.47 811.90
00012306 00000047 1821.24 348.33 460.32 679.76 1918.31 621.65 2116.00 579.29 2019.45 707.08 1981.92 853.75 2134.32 820.24
00012307 00000048 1818.35 351.16 462.16 671.87 1916.51 628.38 2112.91 587.16 2016.65 718.37 1978.73 861.99 2128.24 829.35
00012308 00000049 1813.05 355.50 463.85 664.96 1913.58 633.80 2106.88 591.08 2014.01 726.74 1979.98 867.30 2124.23 833.40
00012309 00000050 1807.93 355.42 464.79 663.24 1907.54 633.43 2102.90 589.76 2007.86 727.21 1975.25 867.01 2117.68 832.58
00012310 00000051 1804.21 353.63 464.39 668.99 1900.43 632.26 2099.35 586.42 2000.38 718.79 1967.05 863.78 2112.39 828.00
00012311 00000052 1803.48 352.22 461.33 670.99 1897.43 629.59 2094.83 582.94 1995.02 711.80 1962.07 859.98 2105.20 823.78
00012312 00000053 1801.82 353.18 460.46 670.23 1894.94 629.16 2093.68 582.39 1993.02 714.16 1957.15 860.64 2103.95 823.96
00012313 00000054 1802.98 351.56 458.03 664.66 1895.94 629.18 2092.27 583.91 1991.84 719.03 1955.17 855.61 2100.38 820.06
00012314 00000055 1801.91 349.44 459.44 663.10 1896.63 627.69 2092.46 583.98 1991.60 719.04 1954.10 854.20 2095.11 819.92
00012315 00000056 1801.78 347.69 460.25 672.26 1897.29 625.62 2094.76 582.75 1993.45 717.61 1955.93 858.63 2098.64 824.97
00012316 00000057 1801.21 347.94 460.67 682.45 1895.48 624.50 2095.23 581.06 1992.00 712.65 1955.15 864.00 2097.34 830.02
00012317 00000058 1800.65 345.03 460.70 688.78 1895.30 622.19 2095.56 578.36 1992.83 707.86 1955.67 862.34 2095.38 828.17
00012318 00000059 1800.98 345.47 461.30 679.11 1894.19 620.88 2094.98 576.28 1992.35 700.30 1955.67 855.61 2096.40 821.06
00012319 00000060 1802.79 344.40 459.08 673.67 1893.78 619.41 2093.26 573.33 1990.13 697.92 1954.04 847.84 2100.54 812.29
00012320 00000061 1803.94 342.07 457.75 668.40 1892.73 621.60 2094.95 573.03 1988.80 699.10 1952.02 846.97 2104.97 809.84
00012321 00000062 1803.11 342.38 459.49 674.02 1892.15 621.31 2095.98 571.86 1989.20 697.41 1955.92 848.69 2106.55 810.88
00012322 00000063 1803.02 341.96 463.86 678.98 1894.58 620.42 2099.61 571.88 1992.66 698.71 1958.91 851.39 2111.33 814.04
00012323 00000064 1802.66 340.84 464.73 681.62 1896.50 619.84 2102.11 573.85 1995.33 698.77 1955.79 851.44 2110.10 815.99
00012324 00000065 1802.25 339.16 467.49 677.26 1898.24 621.66 2102.12 576.29 1998.29 702.19 1957.72 850.83 2107.56 815.97
00012325 00000066 1801.79 340.31 469.68 676.19 1898.77 621.87 2102.77 577.14 2000.30 705.14 1958.46 852.72 2108.53 818.11
00012326 00000067 1803.03 340.68 469.13 673.09 1899.16 622.69 2105.06 577.93 2001.72 708.37 1959.55 854.19 2113.68 819.46
00012327 00000068 1803.32 340.76 468.11 676.20 1900.11 621.97 2105.22 576.78 2002.28 706.20 1959.82 852.45 2114.52 817.22
00012328 00000069 1803.75 341.32 470.12 679.27 1901.34 621.01 2106.47 576.13 2003.58 706.36 1961.06 852.00 2118.19 816.82
00012329 00000070 1806.76 341.74 467.41 676.94 1903.79 619.63 2107.86 576.39 2005.61 709.22 1962.51 851.57 2123.59 817.36
00012330 00000071 1807.96 343.45 468.06 681.54 1905.92 619.42 2108.53 576.18 2007.44 709.39 1963.81 851.16 2127.78 816.66
00012331 00000072 1811.67 341.30 466.19 681.31 1909.62 617.69 2111.76 575.16 2010.88 709.61 1965.94 848.83 2133.88 814.75
00012332 00000073 1816.87 342.93 465.86 685.48 1913.16 616.22 2115.16 572.38 2014.84 707.36 1971.74 852.02 2142.89 816.87
00012333 00000074 1821.77 340.83 466.45 678.94 1918.81 615.51 2120.41 572.04 2018.75 705.99 1979.71 849.62 2148.19 814.80
00012334 00000075 1825.78 341.15 467.34 678.39 1921.79 614.44 2124.49 572.53 2023.54 695.17 1987.42 845.94 2141.79 813.20
00012335 00000076 1831.27 338.14 465.92 678.55 1929.42 613.34 2129.29 572.92 2032.59 689.75 1996.99 843.54 2146.50 812.08
00012336 00000077 1834.27 337.98 465.15 682.20 1934.63 614.02 2132.92 571.60 2039.18 689.39 2002.46 841.86 2152.74 808.68
00012337 00000078 1837.24 336.92 464.29 690.61 1934.92 611.41 2136.62 569.67 2037.28 691.58 1995.33 843.58 2162.45 810.90
00012338 00000079 1836.25 337.15 464.88 692.35 1935.27 613.09 2136.93 571.16 2038.05 695.67 1990.28 846.64 2166.25 813.60
00012339 00000080 1832.93 343.31 464.97 678.46 1932.12 618.55 2134.59 575.05 2038.18 698.71 1991.90 849.85 2162.83 815.37
00012340 00000081 1828.56 349.97 464.99 671.15 1930.95 623.34 2130.20 578.37 2038.66 697.97 1999.35 852.53 2158.83 816.74
00012341 00000082 1829.09 350.27 462.04 670.69 1929.99 620.33 2128.02 576.62 2036.00 693.62 1996.13 848.05 2157.76 813.13
00012342 00000083 1827.06 350.86 458.33 669.18 1930.05 615.81 2125.78 573.36 2035.56 687.60 1992.51 840.91 2155.93 807.05
00012343 00000084 1827.83 342.59 453.00 663.60 1929.54 609.22 2125.39 568.68 2034.63 677.86 1987.20 827.85 2152.62 795.77
00012344 00000085 1827.38 335.63 452.49 654.68 1925.34 594.27 2124.72 555.48 2032.04 658.50 1985.95 818.85 2148.02 788.62
00012345 00000086 1830.78 323.85 444.73 653.91 1925.41 585.18 2121.64 543.15 2033.56 644.50 1992.65 803.92 2141.22 771.24
00012346 00000087 1832.57 310.57 440.29 655.49 1925.21 579.13 2117.45 535.31 2030.88 634.60 1991.64 793.35 2135.53 759.40
00012347 00000088 1831.31 313.42 439.68 644.99 1926.29 570.05 2113.12 528.67 2024.47 626.61 1983.80 779.29 2131.61 744.81
00012348 00000089 1829.96 309.86 436.53 647.41 1920.58 561.68 2110.02 521.11 2013.18 620.20 1969.28 777.08 2127.26 743.43
00012349 00000090 1825.62 305.64 439.60 646.81 1915.93 556.70 2106.60 514.06 2007.65 616.54 1966.87 776.16 2125.03 741.07
00012350 00000091 1824.17 311.36 441.66 636.76 1905.59 559.17 2106.82 516.26 2002.23 620.46 1964.63 772.53 2120.86 735.57
00012351 00000092 1821.13 316.61 441.76 626.94 1900.95 567.27 2100.49 519.89 1999.27 616.76 1965.04 770.13 2113.74 729.80
00012352 00000093 1815.38 316.56 440.54 643.62 1897.39 579.61 2088.38 521.88 1996.56 620.84 1962.92 781.81 2104.23 734.60
00012353 DELETE   1810.70 328.27 439.03 637.80 1894.54 590.02 2081.26 533.87 1989.11 637.90 1957.77 795.80 2090.86 751.01
00012354 DELETE   1804.48 337.67 439.84 633.00 1887.84 598.47 2073.92 545.12 1978.09 651.11 1947.09 804.62 2081.83 762.60
00012355 00000096 1798.75 344.45 443.27 636.25 1878.42 610.81 2067.54 554.36 1970.42 663.01 1944.88 813.94 2081.75 769.44
00012356 00000097 1794.37 354.72 443.19 631.17 1875.21 620.42 2060.88 565.55 1967.28 671.19 1943.04 819.87 2074.44 776.45
00012357 00000098 1789.63 358.17 446.12 629.87 1872.06 621.52 2056.52 570.92 1962.45 678.42 1940.02 824.54 2069.72 784.93
00012358 00000099 1787.48 358.56 450.75 635.85 1872.66 623.35 2057.34 571.44 1964.64 679.56 1943.86 828.47 2072.24 787.81
00012359 00000100 1791.16 356.49 451.62 645.65 1876.72 623.64 2060.64 570.22 1968.55 684.30 1948.87 832.29 2079.64 790.70
00012360 00000101 1796.67 352.13 451.55 647.87 1880.57 622.22 2067.40 569.74 1972.35 688.00 1948.12 833.45 2085.59 792.98
00012361 00000102 1800.44 353.53 453.93 656.38 1882.20 627.08 2073.75 574.87 1974.96 695.20 1947.93 845.50 2091.21 805.55
00012362 00000103 1799.64 354.95 458.89 664.82 1884.40 628.19 2078.60 577.24 1977.70 698.80 1950.24 849.87 2096.73 810.59
00012363 00000104 1800.28 353.30 460.46 675.25 1885.65 626.82 2083.15 575.57 1978.15 696.79 1947.55 853.25 2098.39 813.31
00012364 00000105 1802.95 353.17 459.22 677.21 1888.58 623.95 2089.48 573.20 1982.14 696.71 1948.73 853.03 2106.85 813.16
00012365 00000106 1804.92 344.28 460.75 681.19 1889.98 620.71 2093.76 569.67 1986.26 696.85 1952.69 852.33 2112.46 812.73
00012366 00000107 1809.55 339.85 460.63 691.20 1893.16 617.88 2099.23 565.74 1989.29 694.78 1952.31 854.31 2122.21 813.64
00012367 00000108 1812.32 339.13 462.17 689.33 1894.35 618.22 2101.20 562.70 1990.51 695.94 1954.13 855.94 2133.31 812.45
00012368 00000109 1812.22 336.76 463.86 688.29 1896.16 618.64 2104.75 563.81 1994.97 701.05 1955.71 857.34 2137.62 814.64
00012369 00000110 1809.85 335.26 471.02 696.23 1897.02 623.51 2108.95 569.20 1999.76 706.29 1959.43 864.78 2137.93 822.52
00012370 00000111 1808.88 341.08 474.75 700.21 1898.34 629.40 2110.05 576.82 2000.95 719.46 1959.81 877.20 2138.74 836.45
00012371 00000112 1809.67 347.62 477.36 700.33 1900.50 634.72 2108.76 583.29 2002.83 729.60 1962.37 883.52 2138.50 843.26
00012372 00000113 1811.09 342.86 483.52 727.24 1902.45 641.11 2109.33 595.89 2001.11 734.61 1968.31 889.72 2135.10 854.53
00012373 00000114 1815.29 344.03 486.34 723.18 1908.36 637.85 2114.05 588.44 2007.17 736.58 1971.20 891.37 2147.24 852.39
00012374 00000115 1819.55 340.67 490.07 725.46 1914.50 637.63 2119.56 588.95 2012.90 736.13 1977.19 890.75 2152.78 852.25
00012375 00000116 1823.27 337.67 491.27 722.94 1918.06 636.84 2123.45 588.79 2016.08 736.11 1980.08 888.19 2155.43 850.49
00012376 00000117 1824.78 333.26 493.26 729.39 1919.94 635.92 2125.10 587.74 2016.99 736.39 1983.07 885.68 2156.76 848.05
00012377 00000118 1824.56 333.57 495.69 739.34 1920.83 638.55 2122.69 587.87 2014.37 738.19 1989.06 889.78 2156.65 850.61
00012378 00000119 1823.22 330.81 498.47 750.91 1919.54 644.09 2120.48 591.57 2013.00 745.39 1991.53 897.29 2151.97 857.16
00012379 00000120 1821.13 332.73 500.82 762.78 1916.90 651.60 2125.47 604.31 2017.22 751.60 1997.05 908.59 2158.83 872.37
00012380 00000121 1818.00 332.32 503.23 769.53 1915.65 662.09 2126.28 615.06 2019.47 762.97 1995.72 923.68 2158.37 888.26
00012381 00000122 1819.78 338.93 502.41 770.15 1920.73 672.30 2135.49 621.33 2023.80 767.78 1999.06 939.78 2164.57 901.00
00012382 00000123 1819.64 344.48 506.75 768.45 1919.40 681.05 2136.40 633.37 2024.06 782.43 1992.08 940.20 2163.17 904.51
00012383 00000124 1826.52 354.15 503.03 769.29 1927.61 683.86 2142.07 633.50 2024.29 790.00 1995.88 947.78 2169.76 908.15
00012384 00000125 1827.81 355.04 504.26 766.00 1929.23 683.21 2144.35 634.43 2027.08 789.28 1995.20 946.82 2168.73 908.62
00012385 00000126 1826.70 348.36 502.16 765.27 1923.15 680.53 2140.34 636.71 2023.94 789.76 1985.52 938.93 2163.29 905.64
00012386 00000127 1822.12 346.99 501.35 757.44 1917.30 679.96 2135.43 633.68 2020.53 785.85 1981.92 932.23 2162.74 897.37
00012387 00000128 1815.90 347.01 502.08 756.95 1911.04 678.75 2127.94 628.07 2015.46 783.99 1980.60 929.65 2162.65 891.36
00012388 00000129 1812.98 350.02 501.14 754.92 1907.08 673.76 2122.76 625.92 2008.21 778.38 1976.24 925.39 2153.39 889.08
00012389 00000130 1807.43 354.36 501.23 750.76 1903.93 669.08 2119.77 624.00 2004.89 777.41 1972.46 920.39 2149.44 885.58
00012390 00000131 1805.53 356.15 498.07 750.58 1900.79 667.29 2114.99 622.40 1998.32 773.96 1968.74 920.69 2142.74 885.98
00012391 00000132 1799.87 361.68 495.26 735.44 1896.27 666.97 2109.84 621.89 1996.39 770.58 1967.96 918.21 2135.27 883.42
00012392 00000133 1797.81 361.56 484.89 729.05 1890.42 667.61 2105.69 620.89 1994.07 767.65 1962.17 918.42 2129.04 882.52
00012393 00000134 1792.64 375.35 480.71 717.39 1886.60 670.80 2097.73 625.01 1988.34 769.98 1953.18 915.64 2116.58 879.76
00012394 00000135 1787.10 380.64 480.59 716.85 1881.51 674.02 2093.99 628.59 1982.14 772.94 1944.22 917.26 2112.68 880.98
00012395 00000136 1783.68 380.25 475.43 718.65 1877.77 671.11 2088.22 627.14 1975.52 771.41 1936.40 914.13 2107.83 878.16
00012396 00000137 1780.92 380.76 468.09 714.53 1870.77 665.07 2080.14 620.81 1969.68 761.66 1931.13 907.38 2103.24 870.97
00012397 00000138 1778.63 378.14 463.08 702.09 1865.59 661.92 2074.16 615.09 1966.02 754.13 1927.79 899.88 2100.37 861.76
00012398 00000139 1773.65 379.91 458.46 684.36 1862.36 661.54 2067.35 610.56 1964.16 751.19 1925.36 897.96 2100.41 855.74
00012399 00000140 1772.61 377.66 457.39 672.79 1860.95 658.45 2063.69 608.75 1962.16 743.18 1923.54 888.36 2094.02 847.47
00012400 00000141 1771.92 376.23 455.40 666.82 1859.87 655.70 2061.23 605.34 1960.81 740.88 1922.59 882.14 2092.91 840.58
00012401 00000142 1767.50 379.80 455.24 653.52 1861.43 658.78 2051.76 608.54 1962.69 731.64 1917.90 871.99 2086.87 832.57
00012402 00000143 1766.75 375.36 453.72 656.28 1860.79 656.70 2050.70 606.75 1961.24 723.14 1913.95 868.17 2086.05 828.63
00012403 00000144 1764.18 373.85 452.26 648.23 1858.71 650.91 2046.38 602.27 1958.41 720.08 1911.08 859.82 2084.27 821.35
00012404 00000145 1761.92 376.90 451.58 645.67 1856.14 649.79 2044.51 599.32 1955.69 718.25 1910.04 856.55 2084.42 815.94
00012405 00000146 1760.54 377.34 449.24 645.60 1854.14 649.16 2041.45 596.96 1952.74 717.16 1907.88 855.24 2082.68 812.64
00012406 00000147 1757.85 376.92 451.39 642.67 1852.55 646.07 2040.68 595.33 1950.81 711.56 1906.97 852.05 2078.86 810.85
00012407 00000148 1758.90 376.28 450.33 641.62 1852.96 643.23 2040.28 592.96 1950.50 709.66 1909.42 850.41 2078.21 809.91
00012408 00000149 1761.53 374.51 448.99 636.60 1853.80 639.70 2040.63 589.12 1949.90 707.19 1911.23 847.37 2079.41 807.01
00012409 00000150 1763.65 373.52 448.90 637.32 1855.59 639.25 2041.60 586.52 1950.57 705.30 1912.42 844.80 2082.92 802.29
00012410 00000151 1765.73 371.85 449.96 640.35 1857.22 639.01 2045.31 583.29 1953.66 703.16 1909.61 845.50 2091.61 800.28
00012411 00000152 1767.36 370.23 451.45 648.42 1860.54 641.24 2047.08 584.30 1958.50 703.49 1913.10 841.58 2098.34 794.11
00012412 00000153 1772.69 371.73 452.33 657.95 1861.57 646.96 2049.18 585.34 1958.44 710.40 1913.84 847.81 2109.07 795.02
00012413 DELETE   1730.95 253.84 599.84 895.06 1841.10 630.09 2105.67 544.14 1975.41 716.29 1926.44 913.09 2185.98 837.70
00012414 DELETE   1739.39 258.13 601.36 906.85 1852.49 639.06 2113.36 553.01 1985.06 735.51 1938.68 920.84 2196.54 845.22
CROP_BBOX: 1135 0 2785 1665
