Video ID: 	E5GTMa4D3Ag
H: 	2160
W: 	3840
FPS: 	23.976023976023978

FRAME INDEX X0 Y0 W H [Landmarks (5 Points)]

00112792 00000000 2126.62 281.93 633.40 921.87 2245.00 683.89 2512.41 619.90 2359.80 779.78 2326.49 987.09 2542.65 939.44
00112793 00000001 2128.49 290.16 627.73 905.11 2241.19 676.84 2513.58 616.08 2358.88 768.82 2318.40 977.95 2537.68 932.97
00112794 00000002 2133.62 282.92 632.47 909.42 2251.37 683.53 2522.59 626.52 2366.74 771.99 2322.17 975.71 2544.38 934.33
00112795 DELETE   2137.31 277.21 643.25 920.31 2264.93 694.89 2537.03 637.77 2386.64 781.79 2337.73 982.19 2564.45 940.68
00112796 00000004 2146.12 273.95 640.64 926.00 2278.38 690.11 2548.95 634.79 2407.45 783.66 2354.10 985.22 2578.92 945.35
00112797 00000005 2157.88 282.68 638.48 915.62 2286.70 669.25 2567.09 622.94 2426.82 780.08 2377.47 978.80 2584.41 940.87
00112798 00000006 2159.14 263.13 636.43 920.46 2296.54 666.79 2567.21 611.81 2430.85 761.86 2370.57 972.49 2593.29 932.40
00112799 00000007 2162.85 262.19 634.83 909.57 2297.37 662.52 2569.26 610.29 2428.89 756.81 2365.14 962.02 2591.87 924.37
00112800 00000008 2167.58 275.44 630.14 910.24 2294.15 664.71 2571.92 614.20 2421.39 763.35 2354.81 970.30 2593.82 933.09
00112801 00000009 2173.31 290.45 632.57 940.38 2288.74 666.69 2576.08 631.60 2417.51 784.94 2361.27 984.60 2590.78 955.65
00112802 00000010 2180.28 281.84 622.36 960.19 2311.80 683.14 2583.97 647.06 2431.47 782.07 2360.50 992.66 2597.68 967.09
00112803 00000011 2181.21 281.78 646.29 943.15 2315.41 670.03 2601.87 639.91 2444.08 793.71 2376.04 979.63 2613.87 955.79
00112804 00000012 2191.48 271.56 640.96 927.76 2337.58 671.66 2611.46 635.34 2466.71 778.29 2393.19 969.42 2627.02 943.96
00112805 00000013 2194.26 269.38 641.31 926.39 2341.91 666.30 2616.69 631.71 2470.76 772.48 2395.84 965.02 2627.53 941.34
00112806 00000014 2195.54 271.81 642.47 929.74 2341.11 669.13 2617.11 636.62 2468.19 782.08 2388.89 967.62 2631.74 945.31
00112807 00000015 2196.96 270.64 640.41 935.05 2339.07 673.47 2610.56 643.68 2461.71 790.15 2384.72 970.42 2622.90 950.91
00112808 00000016 2198.10 273.40 640.63 938.21 2339.43 676.10 2610.40 646.97 2460.61 795.65 2382.74 972.49 2623.37 953.52
00112809 00000017 2199.48 273.88 640.42 936.14 2340.55 675.30 2612.53 646.27 2461.06 797.26 2381.62 971.48 2625.84 952.68
00112810 00000018 2199.83 272.86 639.91 932.23 2341.19 675.23 2612.44 646.74 2461.39 799.84 2381.89 970.67 2624.23 952.36
00112811 00000019 2200.10 272.38 640.08 929.68 2340.96 678.66 2612.00 648.99 2461.95 804.34 2383.74 973.26 2624.90 953.96
00112812 00000020 2198.75 270.68 640.92 934.65 2338.25 683.53 2608.10 652.42 2459.22 808.29 2385.53 979.85 2621.29 959.51
00112813 00000021 2198.12 273.15 641.40 932.05 2336.43 685.88 2606.42 653.59 2457.76 812.17 2384.88 981.48 2622.29 959.96
00112814 00000022 2197.86 272.49 640.63 927.76 2335.80 687.12 2607.12 654.22 2457.96 814.36 2385.13 980.97 2623.89 958.82
00112815 00000023 2196.85 280.41 642.40 922.26 2332.89 692.14 2611.53 658.76 2460.15 810.63 2384.04 981.09 2627.44 958.34
00112816 00000024 2197.67 281.61 638.96 917.66 2331.64 694.54 2609.33 661.89 2458.43 812.55 2382.49 980.54 2626.05 958.27
00112817 00000025 2196.22 281.15 638.67 917.76 2329.41 698.33 2609.74 665.55 2455.79 815.34 2379.39 981.55 2625.91 959.16
00112818 00000026 2195.69 275.77 636.19 921.12 2327.28 698.27 2604.01 666.52 2451.69 824.66 2376.42 982.56 2622.10 960.83
00112819 00000027 2192.79 277.96 637.38 926.50 2325.01 700.30 2598.32 669.06 2447.11 828.59 2373.98 989.17 2615.72 967.92
00112820 00000028 2190.16 271.39 635.60 954.02 2326.19 695.55 2590.68 664.19 2442.21 826.45 2371.69 996.25 2608.29 976.47
00112821 00000029 2188.32 274.95 635.13 960.30 2325.17 695.14 2589.42 663.52 2441.77 827.21 2370.60 999.15 2607.33 979.18
00112822 00000030 2185.30 274.56 636.00 960.13 2322.70 696.41 2586.90 665.39 2439.25 830.36 2368.75 1001.31 2603.95 981.65
00112823 00000031 2184.67 276.63 634.65 966.11 2321.65 697.06 2585.84 666.13 2437.59 831.78 2368.46 1006.01 2602.29 986.62
00112824 00000032 2184.94 278.27 633.32 971.08 2323.15 696.17 2586.27 665.89 2438.31 832.03 2369.76 1007.64 2601.50 988.93
00112825 00000033 2186.51 278.26 635.20 969.22 2326.36 695.99 2585.70 667.34 2437.44 830.72 2369.78 997.20 2603.07 979.26
00112826 00000034 2190.19 280.83 633.18 956.06 2324.35 695.33 2589.34 666.00 2436.95 818.53 2365.83 988.49 2604.97 970.73
00112827 00000035 2190.96 280.65 634.51 960.40 2324.31 692.77 2591.30 663.96 2437.63 815.94 2362.19 985.41 2609.29 967.32
00112828 00000036 2190.98 276.26 633.22 959.65 2321.56 688.76 2590.31 661.62 2433.67 813.30 2359.27 985.11 2604.38 968.83
00112829 00000037 2191.00 272.73 631.62 961.79 2317.08 686.64 2583.54 661.87 2425.36 815.67 2355.96 988.24 2594.57 974.02
00112830 00000038 2190.52 276.05 625.22 957.66 2312.64 684.71 2572.51 662.40 2412.25 818.72 2353.32 990.13 2580.81 977.67
00112831 00000039 2194.55 276.57 615.40 962.25 2309.97 682.12 2560.67 661.33 2398.77 821.10 2351.21 993.73 2566.17 982.38
00112832 00000040 2196.65 274.13 611.11 967.74 2306.25 679.36 2556.39 661.19 2389.74 818.44 2342.35 993.65 2559.24 984.24
00112833 00000041 2196.03 273.04 615.33 957.68 2304.62 678.97 2555.78 660.72 2387.36 818.75 2340.86 991.20 2555.56 981.50
00112834 00000042 2195.55 271.73 624.08 942.29 2306.47 681.82 2563.56 662.85 2395.34 822.02 2345.37 987.91 2566.10 977.61
00112835 00000043 2200.46 276.67 628.73 927.00 2311.19 689.73 2575.81 665.39 2407.79 827.31 2356.04 988.41 2579.08 973.09
00112836 00000044 2203.25 276.97 632.12 926.37 2316.88 687.14 2585.30 665.82 2418.70 829.32 2361.15 986.07 2587.20 972.99
00112837 00000045 2204.69 276.77 633.91 929.23 2320.12 685.93 2589.16 665.45 2423.26 830.45 2363.51 985.85 2592.01 973.17
00112838 00000046 2210.67 285.70 629.81 921.69 2321.05 683.25 2597.59 665.67 2423.99 822.31 2355.52 990.75 2589.43 979.45
00112839 00000047 2210.91 289.79 620.05 933.88 2327.09 697.09 2592.97 676.03 2418.81 823.87 2357.96 998.16 2594.13 984.12
00112840 00000048 2211.30 289.42 619.03 945.96 2327.77 699.38 2590.93 677.78 2412.70 825.26 2358.64 1002.77 2592.65 988.10
00112841 00000049 2211.29 288.44 618.07 946.76 2326.91 696.72 2585.19 675.64 2411.43 828.01 2359.77 999.88 2590.72 985.24
00112842 00000050 2203.96 285.50 629.62 944.08 2316.78 699.21 2579.92 674.91 2412.31 830.77 2357.28 994.91 2590.89 979.20
00112843 00000051 2203.58 284.40 630.10 943.09 2316.90 695.63 2580.39 670.85 2414.40 829.62 2359.02 991.53 2594.67 975.41
00112844 00000052 2203.34 285.10 628.85 940.48 2316.27 694.05 2578.16 667.94 2412.96 828.31 2359.76 990.23 2593.53 972.99
00112845 00000053 2203.64 284.41 627.84 939.02 2316.18 693.17 2577.46 666.64 2412.11 826.47 2360.17 989.34 2592.51 971.84
00112846 00000054 2202.67 283.43 629.10 937.81 2315.53 693.65 2576.78 666.43 2411.02 826.30 2360.43 987.94 2592.55 969.93
00112847 00000055 2202.44 281.68 628.59 932.19 2315.04 694.41 2577.10 666.92 2411.59 826.04 2360.97 986.66 2591.58 968.48
00112848 00000056 2201.72 282.00 628.69 932.47 2314.36 693.90 2576.09 665.68 2410.96 825.65 2361.14 986.74 2591.60 967.90
00112849 00000057 2200.90 281.94 628.78 934.17 2313.58 693.79 2575.00 664.89 2410.65 825.80 2360.73 987.17 2591.70 967.79
00112850 00000058 2198.54 282.72 628.90 932.76 2311.83 693.53 2572.11 663.30 2408.36 823.79 2359.55 986.62 2589.85 966.21
00112851 00000059 2196.79 272.76 624.23 945.54 2311.32 684.92 2569.00 661.10 2403.79 819.13 2351.68 983.87 2584.70 969.46
00112852 00000060 2195.28 273.56 622.32 945.55 2307.63 684.82 2563.90 660.82 2396.86 819.25 2348.17 982.27 2581.27 967.44
00112853 00000061 2195.16 272.73 617.01 944.92 2305.08 685.29 2558.56 659.47 2392.55 817.07 2347.06 982.50 2577.38 966.60
00112854 00000062 2194.32 271.48 616.51 945.65 2304.63 684.59 2557.27 657.58 2392.83 816.11 2347.93 982.21 2577.56 965.31
00112855 00000063 2193.75 270.31 620.72 944.78 2304.67 684.63 2558.64 655.22 2395.30 813.16 2349.80 982.38 2579.47 963.90
00112856 00000064 2193.06 268.48 624.44 944.03 2304.66 683.38 2560.38 652.17 2397.98 810.11 2350.96 981.98 2582.88 962.19
00112857 00000065 2193.35 268.39 622.26 945.15 2304.54 681.38 2558.99 650.39 2396.59 808.64 2350.52 980.17 2581.43 960.51
00112858 00000066 2194.24 270.44 617.02 950.51 2303.82 679.43 2555.85 649.06 2392.39 808.03 2349.88 981.63 2579.22 962.22
00112859 00000067 2194.39 274.16 614.08 959.96 2302.84 679.31 2552.31 648.39 2387.45 806.13 2348.30 984.14 2577.41 963.45
00112860 00000068 2194.30 275.00 613.18 959.81 2303.20 677.14 2554.05 646.75 2389.50 804.82 2348.91 984.54 2578.52 964.20
00112861 00000069 2194.42 274.44 620.75 961.41 2310.22 679.43 2566.66 646.66 2403.93 802.02 2354.09 984.04 2591.44 961.46
00112862 00000070 2194.65 274.86 627.04 961.84 2321.56 683.32 2582.74 647.15 2427.19 797.54 2364.14 981.77 2607.64 956.42
00112863 00000071 2191.46 278.68 638.95 948.85 2324.22 687.09 2592.80 646.46 2440.58 798.47 2376.50 981.95 2620.54 951.75
00112864 00000072 2190.40 274.94 635.71 931.19 2321.73 688.23 2594.22 647.63 2443.46 799.44 2374.46 979.34 2620.17 949.91
00112865 00000073 2185.62 269.50 629.15 926.38 2312.94 688.33 2578.94 651.88 2427.70 805.06 2357.64 978.69 2601.66 955.20
00112866 00000074 2186.37 269.92 619.05 926.61 2301.88 687.00 2565.59 655.48 2404.77 804.21 2343.47 977.74 2579.55 958.34
00112867 00000075 2188.84 272.54 614.00 920.58 2290.34 682.84 2555.73 655.14 2387.93 806.28 2330.41 976.96 2562.81 960.11
00112868 00000076 2183.79 284.94 631.62 899.67 2282.08 674.73 2554.46 659.59 2381.62 817.18 2322.93 974.13 2546.10 965.18
00112869 00000077 2194.46 271.29 622.12 919.07 2300.99 681.24 2566.25 665.17 2387.69 810.24 2329.47 977.01 2561.69 968.52
00112870 00000078 2206.70 268.22 628.77 925.49 2319.20 685.03 2590.68 668.91 2413.85 813.23 2348.46 977.05 2582.98 968.08
00112871 DELETE   2217.13 266.13 636.92 937.90 2340.36 674.80 2616.80 663.72 2441.99 814.73 2368.58 975.60 2604.83 971.33
00112872 00000080 2232.49 267.74 636.00 944.84 2371.93 670.57 2650.38 665.65 2480.46 811.35 2390.25 975.37 2634.74 977.11
00112873 DELETE   2248.13 260.04 633.25 944.37 2398.04 664.80 2677.78 661.17 2519.78 813.94 2415.34 975.71 2656.41 978.26
00112874 00000082 2266.39 264.87 639.80 917.84 2424.24 663.66 2710.36 669.91 2545.58 815.05 2435.24 961.27 2684.73 969.43
00112875 00000083 2275.61 258.81 634.90 925.44 2441.43 663.38 2729.18 670.86 2572.30 817.91 2447.85 963.69 2705.48 972.49
00112876 00000084 2279.72 261.02 638.96 937.38 2452.94 668.66 2735.13 678.37 2588.30 824.20 2466.14 979.42 2703.88 990.54
00112877 00000085 2281.52 265.13 639.31 952.65 2452.99 673.63 2737.04 687.31 2588.63 830.85 2464.48 989.28 2699.64 1004.06
00112878 00000086 2279.59 271.72 641.33 953.81 2446.76 676.78 2729.92 688.91 2574.19 831.83 2455.81 987.47 2694.86 1001.44
00112879 00000087 2276.94 276.29 644.03 951.21 2437.13 676.92 2720.09 688.40 2555.07 830.47 2447.35 987.07 2686.64 1000.29
00112880 00000088 2277.65 277.32 635.85 966.04 2430.55 673.64 2712.00 687.83 2538.54 831.69 2434.05 994.18 2683.36 1007.63
00112881 00000089 2271.99 281.08 634.90 965.07 2421.29 675.03 2702.07 688.83 2527.68 834.37 2426.73 993.87 2671.91 1007.04
00112882 00000090 2263.33 275.14 631.69 961.39 2411.75 675.84 2686.55 679.70 2520.75 832.57 2425.29 987.15 2656.33 996.65
00112883 00000091 2258.39 273.25 632.09 960.47 2406.09 676.08 2682.81 678.22 2517.21 832.71 2418.43 984.90 2658.36 992.87
00112884 00000092 2253.94 274.75 631.65 959.17 2402.39 677.69 2679.45 676.23 2517.42 831.23 2417.19 984.19 2661.06 989.12
00112885 00000093 2252.75 282.18 631.47 949.33 2402.42 683.83 2681.59 678.44 2521.78 826.19 2422.71 983.63 2662.84 985.27
00112886 00000094 2250.11 280.54 632.06 954.62 2401.66 685.13 2678.08 679.32 2522.15 825.77 2425.01 987.34 2657.84 988.66
00112887 00000095 2247.12 282.50 632.85 957.17 2396.04 687.08 2674.15 678.37 2516.45 826.96 2422.47 991.80 2657.78 990.59
00112888 00000096 2241.29 283.22 632.36 958.98 2388.36 688.99 2661.72 679.98 2506.64 832.07 2415.35 993.55 2650.38 991.92
00112889 00000097 2235.80 279.41 632.45 961.48 2380.48 690.29 2650.13 679.47 2490.85 832.20 2409.10 993.38 2641.92 990.49
00112890 00000098 2229.90 284.46 634.03 955.04 2368.74 689.11 2635.99 673.55 2473.64 831.07 2403.94 995.66 2633.08 988.54
00112891 00000099 2222.26 279.90 637.26 958.00 2354.59 690.87 2619.62 674.35 2454.58 832.59 2389.59 993.45 2622.43 985.49
00112892 00000100 2215.77 274.19 637.56 958.41 2338.76 692.42 2604.52 672.72 2439.45 834.62 2379.43 996.51 2609.66 985.55
00112893 00000101 2213.17 275.72 634.42 955.77 2328.66 693.17 2588.97 673.19 2421.27 836.04 2369.23 995.60 2596.15 983.66
00112894 00000102 2209.49 278.07 633.33 951.49 2319.54 692.21 2579.66 669.70 2408.78 831.78 2362.05 994.90 2588.41 980.33
00112895 00000103 2208.61 278.28 629.55 948.48 2316.29 691.82 2574.96 666.37 2403.97 829.11 2360.74 994.73 2586.06 977.69
00112896 00000104 2208.41 280.36 629.39 940.45 2317.19 689.74 2578.42 662.64 2408.32 824.26 2363.21 991.77 2591.54 973.82
00112897 00000105 2207.45 276.34 630.81 948.49 2318.97 685.51 2581.55 658.44 2413.42 820.84 2365.03 992.22 2596.66 974.15
00112898 00000106 2206.74 275.23 630.33 945.39 2318.16 682.76 2581.46 654.70 2414.38 814.98 2365.84 992.68 2592.99 974.13
00112899 DELETE   2201.12 273.00 629.15 930.11 2310.06 688.11 2572.01 656.89 2404.58 808.06 2359.65 986.21 2577.26 965.82
00112900 00000108 2195.06 267.40 617.47 928.31 2295.94 687.33 2551.70 658.16 2381.35 803.98 2338.21 979.50 2553.52 961.87
00112901 DELETE   2182.47 268.29 610.28 929.82 2274.29 686.39 2528.45 660.90 2353.08 812.45 2315.67 978.33 2534.38 962.54
00112902 DELETE   2163.66 276.15 613.09 921.16 2255.49 693.92 2507.43 665.80 2327.68 817.78 2298.88 977.99 2519.65 959.78
00112903 00000111 2149.80 275.55 617.20 919.29 2241.13 698.86 2487.86 665.03 2306.92 823.64 2290.18 982.29 2504.32 959.68
00112904 00000112 2146.39 276.90 617.09 923.66 2237.69 696.33 2479.89 662.42 2299.88 825.06 2287.57 982.35 2498.18 959.59
00112905 00000113 2146.79 278.99 615.87 922.02 2239.06 696.82 2480.38 661.35 2302.35 825.04 2290.92 983.80 2499.66 959.81
00112906 00000114 2149.82 279.72 616.18 916.43 2241.29 697.65 2487.26 662.01 2309.30 825.04 2293.60 981.93 2506.75 957.71
00112907 00000115 2156.61 278.11 612.53 910.92 2246.38 702.67 2499.98 668.45 2324.32 826.30 2293.90 978.87 2519.92 955.87
00112908 00000116 2161.65 279.70 610.00 914.11 2255.55 702.38 2510.86 669.62 2338.64 828.04 2304.14 981.44 2533.98 959.27
00112909 00000117 2160.14 282.45 616.83 924.82 2260.31 706.38 2517.37 672.24 2349.63 829.51 2312.64 991.69 2538.94 968.47
00112910 00000118 2160.47 284.46 618.96 935.35 2263.94 710.58 2519.08 671.70 2356.12 830.48 2319.67 998.06 2546.75 971.79
00112911 00000119 2161.10 284.27 620.29 934.51 2266.07 712.98 2521.48 672.69 2359.70 830.10 2321.86 997.54 2550.65 970.26
00112912 00000120 2161.68 284.23 617.97 940.98 2265.11 712.31 2519.22 673.07 2356.02 830.37 2319.65 998.30 2549.35 971.65
00112913 00000121 2163.59 285.48 614.61 948.25 2263.67 711.75 2516.11 673.94 2349.36 829.41 2315.86 999.37 2545.71 973.32
00112914 00000122 2167.84 289.48 612.04 951.36 2266.77 714.97 2515.70 677.54 2347.90 825.49 2315.99 1002.29 2543.36 976.23
00112915 00000123 2176.75 288.07 609.24 949.81 2272.08 706.80 2523.47 676.50 2354.08 825.15 2319.96 999.29 2545.08 979.32
00112916 00000124 2184.48 290.96 611.46 930.27 2282.18 707.08 2540.01 676.49 2369.19 823.21 2330.59 996.70 2556.70 976.72
00112917 DELETE   2194.26 284.13 614.35 930.67 2303.94 699.75 2564.77 670.55 2398.61 815.89 2347.08 989.81 2579.98 971.29
00112918 DELETE   2195.97 284.71 632.20 935.25 2317.79 700.84 2584.74 668.36 2424.98 819.72 2364.86 990.26 2602.56 968.31
00112919 00000127 2196.60 284.36 639.93 944.90 2330.09 693.85 2597.75 662.34 2442.68 820.68 2375.91 989.61 2619.14 968.51
00112920 00000128 2197.77 283.52 641.66 948.96 2335.02 692.37 2604.48 660.35 2450.93 819.35 2381.60 991.58 2625.45 970.24
00112921 00000129 2197.53 286.91 640.56 934.96 2333.02 696.27 2602.51 664.60 2448.38 826.72 2379.21 991.04 2623.07 970.00
00112922 00000130 2195.82 284.81 639.28 928.19 2327.27 698.17 2596.98 667.65 2441.66 831.95 2372.99 990.50 2616.79 970.06
00112923 00000131 2193.44 279.32 634.01 944.73 2321.57 695.87 2585.44 668.58 2430.31 831.49 2363.56 994.44 2602.73 977.50
00112924 00000132 2190.97 279.90 629.27 945.52 2316.76 698.01 2578.02 673.18 2419.37 832.48 2358.73 997.25 2588.60 983.00
00112925 00000133 2189.67 281.02 629.10 943.50 2315.07 699.77 2576.02 676.29 2415.93 834.07 2353.55 993.46 2588.35 980.08
00112926 00000134 2191.22 278.47 631.36 950.76 2318.97 697.22 2580.16 675.00 2422.48 833.93 2356.29 994.49 2588.11 982.61
00112927 00000135 2193.56 272.72 634.39 955.65 2326.49 692.26 2590.77 669.75 2437.54 831.07 2363.65 993.82 2596.70 981.81
00112928 00000136 2195.55 281.09 644.52 940.41 2333.29 699.96 2604.47 674.22 2450.95 824.76 2379.28 992.42 2612.59 976.27
00112929 00000137 2203.47 285.16 637.08 932.83 2346.67 694.15 2616.63 667.42 2466.09 819.36 2393.97 995.21 2621.53 977.23
00112930 00000138 2198.12 295.20 649.78 928.99 2344.57 693.68 2629.00 663.14 2477.46 827.03 2400.07 1002.03 2630.47 978.43
00112931 00000139 2194.86 288.00 651.22 933.37 2346.65 694.90 2627.41 660.62 2483.43 824.39 2405.52 998.46 2634.18 972.07
00112932 00000140 2190.86 275.47 644.97 944.74 2340.49 703.96 2611.53 666.23 2475.75 821.73 2395.85 996.38 2634.38 970.49
00112933 00000141 2181.57 268.59 641.87 960.94 2331.18 700.79 2594.29 664.04 2456.55 828.91 2377.25 995.03 2613.48 971.42
00112934 00000142 2173.94 279.55 635.49 948.96 2316.60 702.21 2577.03 668.17 2435.47 833.21 2361.60 995.35 2597.26 973.44
00112935 00000143 2169.15 284.70 627.82 943.02 2302.86 707.07 2558.66 675.25 2411.43 838.25 2351.58 1000.55 2575.14 980.09
00112936 00000144 2166.08 292.36 624.85 949.60 2290.43 712.77 2544.14 682.34 2392.72 848.61 2343.93 1013.43 2557.81 993.64
00112937 00000145 2160.67 291.86 626.89 958.77 2277.99 718.85 2539.65 684.69 2380.31 861.06 2328.39 1034.65 2560.44 1011.55
00112938 00000146 2154.37 293.17 626.65 946.41 2268.34 726.44 2535.11 696.14 2374.60 871.76 2320.96 1037.58 2554.33 1016.75
00112939 00000147 2153.28 295.72 624.05 944.68 2265.95 728.39 2532.08 702.06 2369.84 880.68 2317.99 1041.41 2547.29 1023.22
00112940 00000148 2153.70 297.61 626.99 948.39 2270.15 731.67 2536.90 704.13 2376.47 882.74 2324.97 1045.30 2552.09 1026.40
CROP_BBOX: 1793 0 3322 1523
