Video ID: 	Pr86_SwNgJw
H: 	1080
W: 	1920
FPS: 	23.976023976023978

FRAME INDEX X0 Y0 W H [Landmarks (5 Points)]

00086759 00000000 708.75 217.53 412.44 641.56 853.82 462.07 1048.90 445.83 999.32 561.89 898.21 692.28 1065.97 676.26
00086760 DELETE   714.51 223.51 410.89 616.76 858.33 455.02 1055.35 444.84 1000.86 553.36 896.63 677.62 1067.72 666.97
00086761 DELETE   718.46 216.55 411.02 609.19 866.27 448.04 1061.50 445.00 1006.98 544.64 897.53 664.54 1068.36 660.21
00086762 00000003 719.57 218.98 412.65 607.08 871.06 445.08 1066.51 450.23 1006.32 547.91 893.87 661.73 1066.22 664.62
00086763 DELETE   721.62 220.69 412.70 616.61 872.85 451.72 1073.24 458.90 1005.99 559.73 890.28 670.60 1068.14 675.46
00086764 DELETE   727.12 220.71 410.97 634.23 880.88 467.88 1078.55 475.04 1013.21 578.22 897.12 691.13 1069.31 695.72
00086765 DELETE   728.64 248.88 412.92 630.27 879.57 474.98 1073.88 479.91 1009.96 594.84 893.36 704.56 1062.14 706.97
00086766 00000007 730.85 269.64 416.94 619.22 883.80 478.76 1076.77 487.46 1011.31 602.80 894.98 709.08 1063.03 714.78
00086767 00000008 738.19 274.68 416.92 612.53 888.77 480.49 1081.07 497.54 1008.56 611.69 899.93 710.31 1052.14 723.07
00086768 00000009 741.03 271.15 420.74 618.48 892.66 479.92 1091.22 498.07 1015.52 613.83 903.59 713.11 1060.43 726.21
00086769 00000010 745.91 273.26 420.90 617.65 898.38 482.00 1098.13 500.33 1022.45 616.05 907.26 714.44 1068.47 727.56
00086770 00000011 747.64 276.01 422.54 615.89 903.35 486.28 1101.16 505.03 1028.57 619.94 912.79 716.65 1073.52 730.01
00086771 00000012 749.52 281.83 423.25 610.60 908.02 491.39 1103.37 505.67 1034.08 623.05 922.90 722.30 1076.99 731.93
00086772 00000013 751.35 288.66 422.86 600.74 910.20 494.24 1106.21 506.80 1037.33 623.24 925.98 722.05 1083.23 730.43
00086773 00000014 751.39 288.60 424.91 600.97 913.35 493.00 1108.69 506.35 1040.40 622.34 928.64 720.52 1084.77 729.59
00086774 00000015 753.16 284.27 422.75 607.21 913.04 490.77 1107.65 505.20 1038.19 621.45 928.28 721.17 1079.99 730.95
00086775 00000016 752.74 281.30 423.37 613.14 910.08 489.25 1106.58 502.14 1037.32 621.36 928.15 725.31 1078.83 733.42
00086776 00000017 750.46 285.64 425.37 607.74 906.48 488.30 1105.84 500.58 1034.60 621.40 924.03 723.20 1081.16 730.73
00086777 00000018 751.84 275.17 422.90 616.99 906.52 485.92 1104.65 499.16 1033.93 617.42 924.52 721.43 1079.25 729.64
00086778 00000019 752.29 271.19 420.93 622.82 904.18 482.01 1103.18 496.64 1031.03 613.92 920.51 720.22 1076.33 729.43
00086779 00000020 750.39 265.95 419.95 629.85 902.25 479.05 1099.90 494.98 1026.94 610.33 917.93 718.46 1071.90 728.64
00086780 00000021 747.97 269.15 419.96 621.82 898.26 477.54 1099.08 492.35 1024.59 607.23 917.12 716.36 1071.51 725.40
00086781 00000022 746.29 267.20 421.18 623.79 897.09 476.83 1098.21 490.48 1023.32 606.32 917.35 714.39 1070.84 722.48
00086782 00000023 747.75 264.71 419.21 623.87 898.28 476.42 1098.57 488.50 1025.21 604.99 919.55 714.08 1072.49 720.91
00086783 00000024 747.26 260.36 419.95 628.83 899.18 475.36 1098.69 490.11 1025.06 603.71 918.01 710.91 1071.49 719.89
00086784 00000025 747.39 256.33 420.19 633.28 899.39 475.67 1098.27 490.40 1025.71 602.45 916.60 708.34 1073.29 717.35
00086785 00000026 745.72 254.39 422.16 641.37 898.96 474.18 1098.17 489.83 1026.48 604.27 914.58 710.07 1074.21 719.70
00086786 00000027 746.23 255.01 422.06 641.27 899.78 476.46 1098.84 494.29 1026.07 603.36 910.88 708.32 1075.48 720.08
00086787 00000028 747.11 259.13 419.41 628.53 899.47 476.42 1099.70 494.17 1025.74 602.60 909.75 705.19 1074.95 717.49
00086788 00000029 747.28 260.66 418.91 624.50 899.77 476.94 1100.05 493.56 1026.78 602.20 910.00 703.56 1076.75 715.04
00086789 00000030 748.19 253.34 418.95 631.59 900.74 474.92 1100.53 492.28 1027.70 600.88 909.82 702.21 1075.92 714.44
00086790 00000031 745.11 235.82 421.36 648.35 897.20 476.88 1099.23 487.19 1027.65 600.30 908.41 706.69 1083.16 714.98
00086791 00000032 745.03 235.08 420.30 651.03 897.12 477.24 1098.95 486.60 1028.71 600.37 910.47 709.80 1083.07 717.34
00086792 00000033 748.82 245.58 419.28 641.51 899.67 470.87 1098.76 488.30 1026.06 597.74 912.30 703.89 1070.86 715.85
00086793 00000034 744.63 231.86 419.90 652.80 897.72 474.11 1095.67 486.01 1026.01 595.49 908.15 706.47 1076.78 716.20
00086794 00000035 744.13 223.32 420.10 657.97 895.76 472.07 1093.38 484.86 1022.93 591.99 906.34 703.91 1075.67 714.21
00086795 00000036 742.29 224.05 419.27 655.18 892.35 470.97 1092.19 484.84 1019.99 590.56 902.12 701.16 1074.76 712.35
00086796 00000037 740.04 224.96 418.55 654.15 888.69 471.74 1085.22 485.15 1012.42 589.75 900.80 701.03 1068.82 712.07
00086797 00000038 737.33 226.06 419.59 654.50 885.32 471.91 1079.78 484.36 1008.56 589.17 896.64 700.74 1064.62 711.10
00086798 00000039 735.98 225.88 419.10 654.52 882.29 471.52 1075.72 483.56 1003.95 590.22 891.72 699.65 1060.13 709.84
00086799 00000040 735.10 226.36 418.18 647.54 878.84 469.24 1075.14 481.98 1000.00 588.63 886.94 696.61 1058.41 707.17
00086800 00000041 736.80 229.51 412.34 641.88 880.82 469.43 1075.07 482.65 998.41 584.55 888.60 696.74 1058.20 706.34
00086801 00000042 736.23 230.19 412.63 640.15 880.13 467.81 1074.52 482.08 997.03 583.61 887.63 695.44 1056.60 705.78
00086802 00000043 737.01 230.12 412.15 641.76 880.86 467.77 1074.15 482.04 998.05 583.30 889.17 696.42 1056.05 706.83
00086803 00000044 738.10 230.50 411.53 642.86 882.28 468.29 1075.32 481.84 1000.55 582.51 891.75 698.03 1057.57 707.90
00086804 00000045 739.13 230.11 410.36 647.67 883.20 468.20 1078.52 480.35 1004.52 582.38 895.93 702.32 1061.43 710.63
00086805 00000046 734.43 225.04 417.76 651.48 881.57 468.61 1074.07 481.01 1002.02 585.76 890.54 697.60 1055.01 708.12
00086806 00000047 733.30 224.28 418.18 656.21 879.39 466.94 1073.04 480.05 999.92 584.02 888.57 698.56 1054.65 709.61
00086807 00000048 738.10 224.31 408.02 659.68 880.35 462.00 1075.08 475.16 997.27 580.25 887.32 700.20 1056.86 709.25
00086808 00000049 730.84 226.43 414.14 650.77 869.49 463.78 1068.46 470.54 989.25 578.88 873.69 693.90 1045.94 698.67
00086809 00000050 727.36 219.80 413.65 657.03 864.74 456.35 1065.16 468.44 978.75 573.88 868.86 693.18 1047.13 701.57
00086810 00000051 721.80 218.77 417.53 653.65 859.28 456.00 1059.88 467.77 971.27 571.74 864.31 690.12 1042.80 698.18
00086811 00000052 716.38 221.47 420.65 646.48 854.11 455.64 1055.12 468.16 967.11 568.39 860.43 685.99 1039.88 694.63
00086812 00000053 715.45 219.19 419.43 641.23 853.42 454.25 1054.99 465.30 969.02 567.18 863.20 683.51 1041.28 690.83
00086813 00000054 716.31 219.25 417.57 641.86 854.54 453.34 1055.55 463.48 970.42 566.07 865.36 682.89 1044.44 689.33
00086814 00000055 717.98 218.32 416.62 640.97 858.57 450.66 1058.72 460.28 977.96 562.92 868.00 679.28 1046.99 685.44
00086815 00000056 725.05 218.49 408.61 629.46 865.65 443.64 1062.66 457.13 982.77 552.78 872.82 670.16 1048.53 680.01
00086816 00000057 731.71 217.66 404.23 621.65 871.94 438.14 1067.11 450.73 990.98 547.50 879.02 665.14 1051.60 674.71
00086817 00000058 734.34 215.02 404.27 616.23 875.20 432.17 1069.11 442.97 997.38 535.64 883.94 654.46 1059.03 662.61
00086818 00000059 734.84 203.70 405.21 613.78 876.78 426.77 1070.06 434.76 1002.63 523.18 890.91 647.76 1060.18 653.21
00086819 00000060 736.32 199.63 405.88 607.59 877.23 424.91 1070.87 429.36 1006.27 515.82 895.34 643.19 1064.21 645.66
00086820 00000061 740.97 199.62 401.55 599.50 880.29 422.06 1072.93 425.99 1010.16 508.43 899.90 638.34 1067.22 640.53
00086821 00000062 743.26 195.88 400.50 601.12 885.00 418.06 1074.24 423.03 1015.47 503.30 903.34 632.27 1068.50 635.39
00086822 00000063 744.76 197.64 400.07 600.32 887.93 412.76 1077.91 419.29 1017.94 500.19 904.38 630.60 1071.23 634.92
00086823 00000064 745.68 198.84 399.38 599.12 888.32 411.42 1078.17 419.89 1017.05 501.65 902.44 629.60 1069.48 635.63
00086824 00000065 744.64 190.75 400.75 612.79 887.59 413.96 1076.74 423.88 1014.00 505.93 899.60 632.69 1067.37 640.15
00086825 00000066 742.71 198.61 402.85 612.07 886.31 419.39 1074.88 429.69 1011.03 512.87 898.42 638.59 1065.27 646.22
00086826 00000067 743.63 201.26 401.72 614.28 884.93 421.25 1076.42 430.44 1009.33 518.03 895.95 643.89 1064.84 650.77
00086827 00000068 743.71 203.37 400.89 624.65 887.53 420.60 1078.22 432.07 1011.41 520.94 895.18 647.96 1064.56 656.80
00086828 00000069 744.08 202.06 399.56 630.78 888.08 422.14 1079.33 434.11 1012.03 524.22 894.80 650.40 1065.63 659.58
00086829 00000070 742.98 202.42 400.51 631.01 886.60 422.92 1079.11 435.45 1011.11 525.42 893.67 651.18 1065.94 660.72
00086830 00000071 741.57 207.51 401.02 624.60 885.33 424.92 1077.44 437.84 1009.63 529.95 892.21 651.36 1064.87 661.31
00086831 00000072 740.56 211.84 402.00 621.63 883.71 426.21 1076.82 438.98 1006.67 534.29 889.69 652.03 1064.65 661.86
00086832 00000073 741.18 210.05 401.63 622.23 883.04 429.36 1076.40 440.40 1005.98 536.16 890.52 653.52 1065.08 661.93
00086833 00000074 741.37 213.47 401.36 616.56 881.88 431.88 1075.89 442.29 1005.47 538.80 891.42 654.58 1065.28 662.51
00086834 00000075 740.54 220.38 401.37 608.76 883.02 433.96 1074.63 444.07 1005.95 541.82 893.37 655.71 1064.70 663.32
00086835 00000076 742.32 219.86 399.67 607.20 884.66 435.30 1075.77 445.59 1007.14 542.72 895.98 656.65 1065.06 664.41
00086836 00000077 743.94 222.43 398.92 601.80 885.29 435.87 1076.79 446.07 1007.30 541.83 897.28 655.14 1066.67 662.94
00086837 00000078 745.83 221.01 398.56 601.28 885.55 434.78 1077.18 445.29 1006.67 540.15 897.30 654.10 1066.63 662.22
00086838 00000079 745.87 220.02 399.83 600.75 886.47 433.80 1078.05 445.28 1007.18 537.70 897.83 652.13 1067.38 661.15
00086839 00000080 746.02 220.88 401.01 597.57 886.01 432.26 1078.18 444.11 1006.34 536.13 895.98 648.76 1067.49 658.32
00086840 00000081 745.30 217.96 402.09 596.17 883.59 433.38 1077.06 445.49 1003.61 538.68 891.74 647.95 1064.74 657.99
00086841 00000082 744.46 221.19 403.13 594.07 882.38 432.56 1074.89 444.31 1001.12 536.75 889.82 644.15 1064.73 653.82
00086842 00000083 742.00 219.00 405.29 597.62 882.41 429.40 1073.09 442.21 1001.11 534.26 890.73 643.38 1062.27 653.77
00086843 00000084 738.27 215.56 405.88 606.97 880.32 425.67 1070.81 439.82 997.92 534.13 887.76 645.17 1058.63 656.15
00086844 00000085 735.51 215.47 407.13 604.84 874.74 425.98 1066.43 438.99 992.65 533.04 883.93 643.55 1055.69 653.25
00086845 00000086 734.97 211.65 405.84 606.69 872.22 424.86 1065.29 435.86 991.60 528.86 882.49 643.05 1054.53 651.09
00086846 00000087 734.63 211.05 406.53 607.50 871.22 421.20 1064.78 431.03 991.78 523.50 882.65 641.31 1054.87 648.19
00086847 00000088 733.91 208.88 407.61 611.66 871.90 418.27 1064.62 428.34 991.34 520.27 882.25 639.60 1053.60 646.51
00086848 00000089 733.60 205.33 407.67 618.37 872.85 415.29 1064.07 425.80 990.47 517.84 881.95 640.48 1050.50 647.70
00086849 00000090 733.79 206.21 407.07 619.18 875.14 413.69 1063.86 425.43 990.04 518.33 882.10 641.55 1046.43 649.94
00086850 00000091 732.17 205.92 408.73 623.46 875.07 415.83 1064.23 427.95 990.85 519.55 882.47 644.80 1046.15 653.33
00086851 00000092 730.74 208.11 410.25 621.39 873.21 416.03 1064.27 428.79 989.54 521.73 880.91 645.84 1045.11 654.75
00086852 00000093 729.94 205.09 410.90 624.62 872.97 416.89 1064.26 430.37 989.20 521.95 879.53 645.64 1045.04 655.11
00086853 00000094 728.80 208.69 411.73 620.75 870.10 417.53 1063.48 430.45 986.85 523.73 877.91 647.12 1044.07 656.07
00086854 00000095 727.17 211.12 413.92 617.73 868.59 418.63 1063.05 432.81 984.87 524.86 876.36 646.48 1043.06 656.55
00086855 00000096 725.69 211.32 415.24 617.65 866.58 419.30 1061.77 432.98 982.49 526.69 873.60 646.44 1042.55 656.12
00086856 00000097 725.91 210.40 414.39 617.09 864.86 419.84 1060.63 432.26 981.15 526.82 872.55 646.51 1041.85 655.26
00086857 00000098 725.21 212.96 414.85 614.05 864.09 418.67 1059.78 431.92 979.88 525.54 871.00 647.04 1037.61 656.74
00086858 00000099 725.45 212.40 413.81 617.16 863.86 419.11 1059.34 431.03 978.53 526.73 873.21 650.89 1036.02 659.40
00086859 00000100 725.08 209.00 412.79 621.46 861.37 421.65 1058.38 432.68 975.72 529.43 871.01 653.30 1036.23 661.00
00086860 00000101 724.53 209.75 412.47 622.61 860.45 425.13 1056.15 436.95 973.56 530.81 868.49 654.27 1035.16 662.86
00086861 00000102 725.09 208.11 412.53 623.90 859.53 428.93 1055.61 441.27 970.27 532.05 864.95 653.89 1035.54 662.95
00086862 00000103 725.91 207.11 411.64 626.08 859.63 429.88 1055.90 443.14 969.56 534.51 864.11 654.65 1035.89 664.33
00086863 00000104 725.76 206.61 411.90 635.03 858.44 428.36 1058.01 442.34 967.84 535.31 861.36 658.11 1036.79 668.28
00086864 00000105 726.59 206.94 410.89 648.02 858.19 426.11 1058.33 440.67 965.44 534.06 857.50 663.81 1034.54 674.64
00086865 00000106 724.59 203.89 412.40 656.47 856.54 428.25 1055.16 443.32 961.28 537.78 854.59 666.44 1030.10 677.53
00086866 00000107 721.83 203.49 413.67 652.53 854.12 430.60 1053.14 445.66 958.73 539.66 854.44 666.69 1029.28 677.59
00086867 00000108 721.00 205.99 415.08 645.26 851.60 432.04 1049.53 443.83 957.92 541.73 857.97 666.93 1029.35 674.95
00086868 00000109 717.24 204.02 419.08 634.42 849.43 434.90 1045.14 445.95 957.37 538.95 861.11 659.14 1030.89 666.55
00086869 00000110 715.02 207.62 422.06 632.84 847.22 436.98 1043.02 446.44 954.59 541.36 858.48 656.28 1034.06 662.05
00086870 00000111 715.35 206.48 419.45 639.49 845.18 437.59 1041.82 446.24 953.55 542.60 857.26 661.07 1032.79 666.25
00086871 00000112 715.64 201.77 413.90 657.11 847.10 437.71 1044.15 446.11 954.50 544.23 858.98 674.36 1030.72 678.94
00086872 00000113 715.37 203.14 411.96 671.82 846.60 434.80 1043.77 442.74 953.85 545.87 855.07 679.63 1032.00 683.80
00086873 00000114 714.91 202.93 411.35 672.54 843.89 435.17 1041.87 441.41 953.01 544.99 854.28 681.01 1031.93 683.90
00086874 00000115 713.30 204.85 413.54 665.22 838.74 437.67 1039.44 437.31 948.18 539.23 858.73 683.73 1032.63 681.03
00086875 00000116 711.53 204.00 415.23 657.73 833.93 435.82 1034.56 431.94 943.01 532.62 859.92 679.45 1029.14 673.75
00086876 00000117 707.67 204.07 419.82 652.70 827.96 433.07 1031.39 428.90 935.90 531.39 854.71 674.56 1024.62 668.48
00086877 00000118 702.42 206.27 425.62 639.01 818.86 431.54 1022.49 430.14 925.87 530.27 841.73 662.83 1017.01 658.85
00086878 00000119 696.12 210.09 428.50 629.64 808.76 430.95 1011.52 432.13 911.11 529.58 827.29 653.24 1008.27 651.57
00086879 00000120 695.87 210.82 424.19 620.80 800.94 428.11 1004.04 431.97 896.86 529.40 816.77 648.27 995.16 649.48
00086880 00000121 695.18 219.51 420.93 615.24 790.68 428.25 996.84 433.26 881.23 530.03 798.76 652.36 980.27 655.18
00086881 00000122 694.83 219.84 416.74 615.21 785.65 425.56 990.19 432.37 868.73 533.24 790.83 654.05 960.90 659.14
00086882 00000123 692.42 217.44 415.04 616.45 779.50 426.11 983.25 433.64 859.37 529.58 782.96 651.78 954.71 657.98
00086883 00000124 689.75 216.56 414.66 614.04 778.48 425.58 977.73 436.70 855.45 530.07 776.65 646.53 948.54 656.04
00086884 00000125 688.41 216.48 411.61 606.07 776.63 425.10 974.98 438.62 851.69 527.55 772.86 641.47 944.37 653.24
00086885 00000126 686.73 218.82 411.20 601.32 773.90 426.35 973.18 438.14 848.82 526.08 770.44 640.99 946.29 651.26
00086886 00000127 686.03 222.70 409.26 596.57 771.55 426.85 972.45 437.42 846.68 525.93 769.29 640.75 948.53 649.73
00086887 00000128 685.30 221.77 406.63 599.17 772.49 428.45 973.55 439.85 848.52 528.68 769.03 643.62 950.06 653.35
00086888 00000129 685.02 220.28 405.66 605.00 772.15 429.67 974.36 439.36 849.26 530.09 771.42 648.55 951.77 656.68
00086889 00000130 682.65 219.17 408.90 616.80 770.69 429.38 973.63 437.37 848.05 533.16 771.12 652.37 951.95 658.93
00086890 00000131 681.34 221.90 408.18 615.11 769.87 429.41 972.90 436.45 848.85 533.82 771.26 651.76 954.04 657.30
00086891 00000132 679.03 220.26 407.35 610.06 768.90 429.42 971.34 435.55 850.92 532.45 773.43 649.30 953.23 654.10
00086892 00000133 671.86 218.22 412.78 611.59 766.80 435.56 971.04 437.40 851.71 537.57 773.96 652.61 956.48 653.16
00086893 00000134 668.08 214.29 413.97 613.15 767.53 439.36 969.18 443.63 854.16 542.79 772.97 650.58 957.75 652.86
00086894 00000135 664.03 221.47 415.74 603.15 763.63 440.23 964.85 443.40 851.91 544.00 771.14 648.73 957.93 649.86
00086895 00000136 661.37 222.20 414.42 600.52 760.54 439.55 961.99 441.93 850.84 542.16 768.71 646.66 958.96 647.20
00086896 00000137 658.36 219.87 414.46 600.16 757.13 439.29 959.14 439.04 848.66 538.11 768.58 646.90 955.95 645.22
00086897 00000138 656.25 213.09 412.97 607.28 754.02 439.70 955.29 436.85 845.71 535.12 767.87 647.23 953.77 643.67
00086898 00000139 653.23 214.89 412.16 606.24 752.08 437.99 951.96 435.29 844.34 532.35 766.41 646.12 950.98 642.51
00086899 00000140 649.86 211.20 413.73 612.04 749.04 436.01 948.87 433.51 840.87 529.86 764.07 646.10 948.29 642.27
00086900 00000141 647.36 214.93 415.12 604.24 744.27 433.55 943.94 429.57 835.08 526.41 761.40 643.70 943.76 638.46
00086901 00000142 646.04 215.07 413.41 600.68 739.83 433.71 939.42 426.66 829.97 522.76 758.35 640.86 942.53 633.32
00086902 00000143 645.83 212.99 409.13 597.06 737.24 432.65 935.91 427.08 824.67 519.55 756.11 638.13 937.79 631.95
00086903 00000144 643.43 212.29 409.72 595.95 736.19 430.97 932.38 425.12 823.04 516.15 755.16 635.25 932.48 628.73
00086904 00000145 640.38 209.13 413.11 609.82 733.23 428.68 932.70 422.11 822.20 515.79 752.90 640.05 934.38 633.17
00086905 00000146 639.06 210.13 413.28 614.69 734.33 425.30 934.11 419.05 823.72 513.16 754.74 645.04 932.63 638.34
00086906 00000147 639.06 209.52 412.29 615.36 736.57 426.13 935.86 421.86 826.48 514.99 756.49 646.80 933.61 641.43
00086907 00000148 637.64 207.33 414.61 618.28 738.57 430.47 938.20 426.83 831.59 520.17 757.72 644.92 938.82 640.17
00086908 00000149 638.19 207.84 414.41 611.00 742.41 433.10 939.91 429.92 838.15 523.18 763.73 643.13 941.30 638.80
00086909 00000150 636.63 211.78 414.93 608.25 741.22 432.96 938.97 429.43 837.99 522.95 762.98 644.37 940.86 639.71
00086910 00000151 629.24 213.58 419.55 610.28 733.40 430.33 932.10 424.16 831.44 522.65 761.25 648.39 932.70 640.80
CROP_BBOX: 335 0 1373 1048
