Video ID: 	7IxUnZZidG8
H: 	2026
W: 	3840
FPS: 	23.976023976023978

FRAME INDEX X0 Y0 W H [Landmarks (5 Points)]

00000488 00000000 1433.59 183.47 749.66 1043.98 1557.52 637.55 1877.37 553.62 1681.87 741.24 1651.54 995.77 1907.60 926.99
00000489 00000001 1445.08 179.96 741.95 1050.26 1566.79 628.26 1890.39 551.30 1698.17 739.17 1658.45 989.17 1924.41 927.19
00000490 DELETE   1453.89 176.91 737.55 1057.01 1581.27 625.99 1901.63 558.22 1719.00 749.69 1670.41 986.64 1940.45 932.37
00000491 00000003 1459.19 172.34 735.64 1065.25 1592.26 625.46 1915.24 564.74 1733.80 756.12 1676.60 989.46 1950.25 940.67
00000492 00000004 1463.32 173.44 733.09 1064.79 1599.16 625.02 1921.52 567.99 1742.70 755.83 1681.08 990.17 1957.57 944.15
00000493 00000005 1465.12 171.03 730.54 1064.27 1604.07 619.67 1925.07 566.00 1748.10 747.68 1685.44 982.86 1961.39 939.47
00000494 00000006 1466.90 165.50 727.92 1066.57 1608.99 611.37 1928.99 562.47 1754.78 742.83 1688.62 976.37 1962.28 936.88
00000495 00000007 1473.68 151.16 720.37 1079.04 1615.08 603.84 1937.36 557.17 1764.40 743.65 1695.20 973.13 1966.40 936.19
00000496 00000008 1480.10 149.03 713.64 1080.48 1623.92 600.82 1947.16 555.91 1776.57 741.60 1701.91 969.49 1973.14 934.41
00000497 00000009 1487.76 151.49 709.47 1077.43 1631.31 601.83 1952.92 557.16 1784.29 743.38 1707.04 969.92 1979.18 935.40
00000498 00000010 1489.57 153.39 713.35 1077.55 1635.94 603.61 1956.00 558.82 1789.15 747.71 1710.43 970.64 1983.85 935.32
00000499 00000011 1495.16 154.26 712.22 1074.22 1641.18 605.57 1960.93 558.87 1795.31 750.97 1714.40 970.24 1991.50 933.07
00000500 00000012 1501.93 152.71 710.79 1073.67 1645.62 608.69 1968.60 560.69 1800.57 752.10 1717.42 972.29 1997.14 934.15
00000501 00000013 1505.33 154.52 710.14 1071.90 1655.59 608.90 1979.87 565.29 1817.11 760.14 1729.80 977.65 2005.33 942.50
00000502 00000014 1508.06 151.20 712.18 1078.17 1662.03 611.11 1986.47 569.12 1827.85 766.28 1739.60 983.18 2012.39 948.95
00000503 00000015 1507.83 152.94 715.72 1077.66 1668.64 611.51 1993.43 572.88 1837.23 771.90 1744.42 984.12 2015.19 952.54
00000504 00000016 1509.90 154.78 716.48 1075.30 1670.82 612.70 2000.23 574.63 1841.66 773.50 1745.50 984.90 2020.33 953.96
00000505 00000017 1511.00 154.94 718.68 1076.18 1672.23 614.59 2003.35 578.82 1841.45 777.82 1744.62 985.94 2022.03 956.87
00000506 00000018 1511.43 159.43 718.69 1073.27 1672.38 615.36 2004.70 581.95 1841.80 782.59 1744.26 987.58 2021.64 960.77
00000507 00000019 1509.90 159.40 720.98 1075.11 1672.79 615.55 2008.31 584.29 1845.24 787.33 1745.13 990.72 2022.72 965.45
00000508 00000020 1511.72 158.92 720.09 1077.21 1674.99 616.94 2011.04 586.60 1848.04 792.31 1747.76 993.87 2023.12 969.26
00000509 00000021 1513.02 161.67 719.35 1071.93 1677.18 618.57 2012.76 586.31 1852.85 796.04 1751.93 996.55 2023.79 970.26
00000510 00000022 1510.89 160.69 722.70 1080.48 1677.61 620.08 2013.80 585.78 1855.97 797.19 1755.75 1000.64 2026.84 973.14
00000511 00000023 1510.32 163.45 723.32 1077.12 1677.69 620.82 2015.39 586.64 1856.41 798.03 1754.96 1000.91 2026.79 973.47
00000512 00000024 1506.56 165.27 726.19 1076.52 1677.37 620.16 2013.50 586.65 1856.79 798.07 1755.40 1000.94 2024.25 974.23
00000513 00000025 1507.07 161.75 724.20 1080.94 1676.42 619.62 2014.60 588.36 1855.98 799.58 1753.43 1002.46 2023.46 977.39
00000514 00000026 1505.94 162.72 724.69 1082.01 1676.44 618.77 2014.06 589.79 1856.15 801.69 1753.71 1002.77 2023.47 979.55
00000515 00000027 1506.23 164.81 723.72 1081.14 1676.09 619.83 2013.45 590.22 1855.76 804.15 1754.13 1004.64 2022.80 981.04
00000516 00000028 1504.08 163.50 726.63 1086.18 1675.99 621.73 2012.65 592.32 1855.75 805.15 1753.13 1004.98 2024.18 981.23
00000517 00000029 1503.04 161.73 729.15 1092.17 1676.59 621.87 2010.57 592.43 1854.80 805.52 1754.98 1005.78 2022.80 981.66
00000518 00000030 1503.49 161.29 728.05 1091.62 1678.65 620.63 2009.81 591.41 1855.53 805.90 1756.31 1004.67 2020.97 980.56
00000519 00000031 1505.34 163.00 727.70 1088.23 1678.97 618.77 2012.89 589.39 1857.41 801.49 1753.76 1001.30 2023.73 977.43
00000520 00000032 1506.04 160.64 726.16 1084.44 1677.52 617.56 2015.39 583.57 1858.36 796.36 1750.97 996.34 2028.37 968.90
00000521 00000033 1506.81 161.28 726.90 1074.39 1680.96 613.25 2016.66 579.61 1861.27 790.49 1751.16 986.51 2029.64 958.64
00000522 00000034 1505.42 155.82 729.87 1081.14 1682.55 610.75 2017.49 574.33 1864.93 783.79 1755.31 985.09 2034.06 954.61
00000523 00000035 1508.03 154.96 726.45 1088.84 1686.23 608.12 2020.04 573.57 1867.93 783.17 1757.06 987.21 2035.33 958.33
00000524 00000036 1508.75 157.19 726.68 1090.68 1691.01 604.63 2019.61 571.82 1872.45 783.38 1763.11 990.88 2031.60 963.24
00000525 00000037 1510.72 159.57 725.60 1085.13 1693.14 603.78 2023.93 570.64 1874.94 782.49 1765.46 990.86 2034.92 962.94
00000526 00000038 1513.59 158.14 723.85 1084.52 1695.34 601.47 2025.47 569.83 1876.77 780.93 1766.74 987.85 2035.83 961.15
00000527 00000039 1519.81 156.01 718.32 1075.48 1693.85 595.34 2028.32 565.72 1874.89 771.41 1762.87 977.51 2041.26 952.70
00000528 DELETE   1527.42 151.41 715.14 1074.09 1712.73 589.19 2045.21 567.69 1898.08 750.16 1766.46 960.56 2052.20 943.79
00000529 DELETE   1547.01 166.47 713.68 1054.31 1756.15 569.15 2083.16 566.53 1944.93 728.92 1791.21 940.04 2076.07 937.28
00000530 DELETE   1570.07 158.63 706.25 1080.12 1806.99 548.15 2122.41 571.09 2003.50 705.32 1849.02 936.36 2097.05 954.83
00000531 00000043 1579.50 148.60 706.95 1110.34 1838.67 534.54 2147.04 565.30 2050.76 686.71 1880.53 945.69 2117.58 969.57
00000532 DELETE   1572.48 152.92 709.28 1072.85 1828.55 533.65 2135.28 558.41 2030.20 676.31 1870.66 916.43 2114.92 935.16
00000533 DELETE   1557.44 132.91 708.70 1058.42 1798.40 524.89 2117.42 548.35 2001.00 669.85 1843.65 905.04 2089.95 925.47
00000534 DELETE   1549.06 121.00 711.41 1055.52 1766.85 524.78 2107.43 524.27 1976.12 650.39 1811.67 912.84 2086.20 912.19
00000535 00000047 1546.88 109.32 709.95 1077.99 1762.80 529.51 2101.75 527.40 1970.17 674.32 1802.76 922.30 2079.93 920.32
00000536 DELETE   1543.58 120.27 716.63 1089.78 1775.11 545.04 2114.16 561.09 1980.30 720.84 1797.54 938.03 2080.27 951.20
00000537 DELETE   1548.67 139.61 724.00 1116.53 1803.11 575.74 2140.18 612.10 2004.71 778.83 1806.07 967.50 2088.50 999.03
00000538 DELETE   1558.06 134.01 732.20 1162.20 1818.98 599.32 2145.68 649.55 2023.57 835.24 1810.78 999.25 2093.19 1040.64
00000539 00000051 1557.47 154.95 735.73 1161.51 1819.61 610.97 2150.47 662.76 2027.61 856.16 1810.01 1012.79 2098.99 1056.09
00000540 00000052 1548.30 165.58 727.53 1145.99 1807.04 614.41 2140.72 662.18 2017.52 854.49 1796.29 1012.66 2091.97 1053.10
00000541 00000053 1535.42 173.57 723.30 1153.42 1788.26 625.19 2119.63 654.07 1992.19 839.14 1791.08 1020.93 2081.77 1045.57
00000542 00000054 1534.98 163.66 710.86 1184.79 1780.68 640.50 2103.55 667.73 1975.82 839.93 1774.03 1030.73 2063.88 1053.49
00000543 00000055 1531.52 161.81 707.47 1186.46 1773.08 648.77 2097.52 671.19 1968.93 853.29 1778.23 1048.69 2058.29 1067.34
00000544 00000056 1523.75 162.41 716.08 1162.95 1769.00 647.32 2095.79 665.39 1968.12 859.82 1790.72 1041.57 2065.59 1055.40
00000545 00000057 1522.26 158.38 715.67 1148.93 1768.07 646.69 2092.78 658.94 1968.66 866.76 1799.09 1041.17 2065.93 1050.27
00000546 00000058 1525.93 163.12 711.64 1148.13 1767.56 647.07 2091.97 658.23 1967.89 862.31 1799.73 1041.82 2068.26 1050.03
00000547 00000059 1531.84 166.92 708.27 1138.44 1768.15 657.91 2089.51 667.49 1963.90 858.71 1799.73 1039.87 2067.26 1047.21
00000548 00000060 1531.30 167.42 709.04 1125.60 1764.67 656.17 2090.53 665.91 1964.19 850.73 1794.05 1026.88 2070.21 1036.01
00000549 00000061 1529.40 164.97 713.32 1118.53 1763.17 637.81 2089.26 649.26 1961.44 845.17 1794.48 1016.49 2066.51 1027.01
00000550 00000062 1530.25 160.93 712.16 1119.00 1761.04 627.30 2087.73 637.93 1960.55 837.23 1798.13 1013.95 2066.78 1023.52
00000551 00000063 1525.37 158.18 719.89 1117.52 1756.23 622.96 2082.26 634.61 1954.75 831.55 1798.87 1010.13 2060.99 1020.62
00000552 00000064 1525.66 156.82 722.95 1121.06 1753.92 620.03 2081.58 630.78 1951.23 824.42 1799.43 1008.80 2061.87 1018.56
00000553 00000065 1528.37 157.37 721.29 1124.85 1753.93 613.37 2084.79 627.40 1948.65 816.58 1793.00 1005.41 2062.34 1017.73
00000554 00000066 1530.19 156.92 720.86 1130.76 1756.33 607.29 2088.67 621.44 1952.53 806.38 1795.47 1002.55 2069.08 1015.69
00000555 00000067 1536.08 164.88 714.51 1123.25 1759.65 598.84 2096.51 613.76 1954.86 796.58 1792.27 996.34 2076.01 1009.84
00000556 00000068 1536.78 163.56 718.09 1096.83 1753.31 604.39 2092.28 617.57 1948.31 797.32 1786.72 986.05 2072.53 999.26
00000557 00000069 1532.09 158.50 720.12 1086.42 1733.31 607.44 2079.66 617.92 1920.66 792.92 1765.72 980.25 2062.69 990.24
00000558 00000070 1526.62 153.82 718.98 1084.56 1717.74 606.03 2067.57 615.36 1898.89 791.95 1749.79 981.02 2047.23 988.66
00000559 00000071 1526.76 154.17 717.98 1089.34 1716.26 600.78 2066.22 613.22 1894.04 787.24 1744.96 979.88 2041.47 990.37
00000560 00000072 1526.68 155.30 723.21 1097.96 1723.05 598.63 2067.03 610.56 1901.24 784.63 1754.21 983.93 2040.60 994.46
00000561 00000073 1528.53 156.03 724.72 1101.67 1730.08 597.90 2072.40 609.99 1911.42 789.87 1765.27 988.41 2044.00 999.45
00000562 00000074 1529.19 154.60 725.52 1105.66 1732.91 598.76 2073.69 610.51 1915.82 791.92 1768.05 989.55 2045.40 1000.83
00000563 00000075 1528.71 155.67 727.24 1109.31 1734.57 599.36 2072.24 611.25 1916.32 791.93 1770.19 990.15 2044.44 1000.82
00000564 00000076 1528.39 156.25 725.65 1104.85 1730.13 598.71 2070.10 609.01 1911.92 788.55 1767.28 990.12 2042.02 999.72
00000565 00000077 1527.47 154.84 723.40 1104.40 1724.99 597.30 2066.78 606.48 1905.88 786.20 1763.57 990.11 2041.11 998.38
00000566 00000078 1523.43 154.30 722.62 1100.19 1715.00 600.46 2060.72 603.80 1898.37 788.94 1758.32 993.43 2036.38 997.39
00000567 00000079 1521.56 152.66 720.88 1100.01 1710.31 602.02 2056.06 603.44 1893.96 789.40 1754.08 992.32 2035.18 995.24
00000568 00000080 1517.44 157.02 723.26 1099.67 1708.65 603.51 2047.51 602.36 1889.60 789.63 1752.95 989.66 2031.37 990.19
00000569 00000081 1521.10 160.66 712.62 1102.87 1712.82 619.79 2045.66 618.58 1888.65 791.02 1755.21 991.48 2036.25 992.75
00000570 00000082 1522.38 161.18 711.76 1104.05 1708.99 624.88 2043.38 614.62 1887.78 789.29 1756.65 994.38 2044.23 988.62
00000571 00000083 1518.59 159.83 716.09 1104.54 1704.29 618.46 2040.75 606.60 1884.36 788.41 1755.30 994.60 2043.26 986.47
00000572 00000084 1511.08 159.94 724.08 1107.96 1696.19 616.94 2035.68 603.12 1879.22 793.88 1752.50 998.95 2040.38 988.19
00000573 00000085 1510.33 161.05 724.71 1109.57 1693.80 620.00 2033.84 607.93 1872.83 808.91 1751.00 1005.64 2035.21 996.26
00000574 00000086 1510.67 161.56 726.10 1108.91 1693.00 621.52 2033.35 610.95 1868.84 814.12 1750.36 1007.80 2033.17 999.07
00000575 00000087 1512.14 163.06 726.48 1105.66 1691.96 619.41 2033.68 606.24 1867.86 810.25 1751.23 1007.15 2034.39 996.29
00000576 00000088 1513.54 164.09 724.96 1099.42 1693.72 616.57 2036.77 601.96 1871.84 803.79 1753.57 1003.67 2037.10 991.84
00000577 00000089 1515.55 163.27 725.92 1093.51 1697.14 617.40 2040.98 600.83 1876.53 798.27 1756.57 1003.47 2037.29 990.80
00000578 00000090 1523.16 163.95 721.09 1077.59 1700.66 617.66 2049.85 601.98 1880.62 804.66 1762.52 1007.51 2039.52 995.70
00000579 00000091 1528.40 165.93 721.19 1070.95 1711.17 614.69 2053.15 605.80 1892.13 804.03 1765.36 997.23 2039.39 991.72
00000580 DELETE   1538.67 174.08 721.50 1063.79 1744.85 606.93 2079.26 615.22 1928.80 800.96 1784.26 981.46 2055.81 989.60
00000581 DELETE   1559.26 170.96 723.46 1085.08 1786.47 595.29 2114.13 625.20 1973.28 792.74 1799.03 968.82 2079.72 993.39
00000582 DELETE   1578.14 151.21 718.52 1111.89 1823.75 587.35 2144.56 628.66 2017.37 784.96 1832.09 963.68 2109.51 996.09
00000583 00000095 1584.22 152.67 714.15 1104.98 1835.64 580.67 2160.42 628.87 2031.24 774.98 1837.53 957.51 2116.28 995.74
00000584 00000096 1585.38 151.50 714.36 1106.04 1832.80 577.81 2157.08 626.45 2024.60 769.08 1831.65 953.70 2111.18 992.35
00000585 00000097 1582.37 146.77 714.76 1112.43 1827.43 576.56 2147.30 625.48 2013.76 767.16 1823.09 955.54 2096.88 994.98
00000586 00000098 1582.38 143.71 712.44 1115.45 1821.41 577.78 2145.27 620.90 2010.04 769.73 1825.06 960.67 2099.85 995.29
00000587 00000099 1584.30 142.59 713.32 1112.55 1818.40 580.21 2143.69 618.40 2006.50 773.25 1823.44 961.09 2101.37 991.67
00000588 00000100 1585.04 146.78 711.88 1108.79 1816.56 595.57 2137.77 633.52 1999.41 785.43 1821.19 965.98 2097.30 996.55
00000589 00000101 1584.33 150.69 713.05 1111.55 1814.59 607.44 2137.33 646.50 1998.10 798.38 1824.16 976.52 2095.95 1007.75
00000590 00000102 1582.46 150.48 714.54 1124.49 1806.44 615.51 2131.31 647.35 1992.32 813.02 1821.80 991.21 2094.41 1016.77
00000591 00000103 1579.26 156.56 715.74 1132.74 1803.36 614.64 2116.79 640.11 1984.22 811.45 1827.21 1005.10 2082.61 1026.55
00000592 00000104 1582.50 159.24 712.40 1129.83 1802.30 618.24 2115.38 645.32 1977.54 805.73 1824.96 1005.76 2081.26 1028.64
00000593 00000105 1583.69 156.86 715.45 1127.38 1796.55 622.97 2117.19 649.11 1971.29 806.81 1818.70 1000.35 2085.86 1021.87
00000594 00000106 1584.00 159.16 717.27 1121.16 1794.70 620.32 2118.04 643.40 1970.25 811.24 1820.87 1001.06 2090.43 1019.63
00000595 00000107 1584.03 160.47 718.06 1109.98 1789.67 621.65 2116.52 635.18 1970.26 819.67 1823.60 1000.15 2097.45 1010.94
00000596 00000108 1582.72 161.38 722.69 1107.55 1785.02 620.58 2117.51 631.82 1968.78 824.97 1820.85 1000.57 2101.23 1009.04
00000597 00000109 1584.15 161.42 724.60 1111.73 1785.62 621.04 2118.32 631.65 1968.45 827.18 1821.86 1000.26 2105.46 1007.82
00000598 00000110 1588.10 160.82 724.66 1114.12 1787.30 621.96 2120.67 631.70 1967.67 828.57 1821.23 997.53 2108.75 1004.33
00000599 00000111 1590.82 156.79 723.02 1114.06 1787.65 622.16 2124.32 630.84 1969.11 827.89 1822.64 995.08 2115.93 1000.75
00000600 00000112 1594.52 158.60 722.35 1110.99 1790.87 619.83 2132.55 629.06 1974.99 822.64 1824.91 992.16 2122.16 998.97
00000601 00000113 1596.02 158.12 724.77 1115.86 1795.46 620.13 2136.37 631.47 1977.88 822.64 1826.64 994.99 2120.55 1003.18
00000602 00000114 1596.88 159.92 726.18 1122.40 1798.75 617.75 2137.37 634.23 1976.73 820.43 1822.33 994.96 2115.08 1007.41
00000603 00000115 1594.22 161.55 726.20 1118.42 1795.15 616.61 2134.74 633.79 1972.73 820.26 1817.74 994.95 2112.34 1007.91
00000604 00000116 1592.37 162.81 724.69 1113.32 1787.59 616.57 2125.23 630.69 1960.76 817.08 1815.37 992.15 2109.89 1002.31
00000605 00000117 1595.33 166.68 715.20 1101.34 1778.39 613.34 2115.49 627.76 1938.06 819.68 1802.03 988.73 2095.16 999.72
00000606 00000118 1597.18 167.75 701.51 1086.62 1768.09 617.60 2102.18 631.67 1916.79 805.60 1791.28 981.67 2084.02 993.15
00000607 00000119 1597.21 170.59 698.82 1077.58 1769.06 623.01 2093.17 638.65 1912.82 791.10 1796.67 973.71 2074.05 986.67
00000608 00000120 1599.12 174.13 698.67 1067.72 1770.28 610.12 2090.15 622.54 1912.27 778.64 1801.35 967.75 2066.18 978.47
00000609 00000121 1602.47 170.88 700.30 1067.25 1770.96 601.70 2090.71 605.77 1916.68 772.74 1805.19 968.47 2068.46 973.18
00000610 00000122 1605.29 165.54 699.52 1059.53 1773.95 597.50 2095.08 598.93 1925.16 768.77 1809.55 965.99 2074.63 968.78
00000611 00000123 1610.35 168.58 694.46 1051.23 1777.89 606.52 2098.26 603.56 1932.50 772.49 1816.53 968.60 2082.36 968.68
00000612 00000124 1612.71 170.39 694.63 1059.47 1785.64 619.27 2100.74 615.04 1942.72 774.77 1825.54 966.01 2094.66 966.65
00000613 00000125 1614.36 169.29 695.50 1061.26 1787.90 609.56 2108.20 604.29 1945.20 771.67 1827.13 969.21 2095.86 967.98
00000614 00000126 1616.51 165.52 694.09 1063.58 1789.28 599.01 2109.96 593.32 1946.27 765.20 1828.79 972.52 2093.79 970.58
00000615 00000127 1616.17 161.38 696.11 1075.51 1791.70 592.68 2111.41 587.17 1953.08 759.57 1836.10 973.15 2098.85 970.52
00000616 00000128 1615.64 160.02 696.02 1080.69 1791.40 591.36 2116.28 582.50 1957.47 756.44 1837.94 975.35 2109.22 969.69
00000617 00000129 1612.59 159.96 694.68 1083.03 1789.06 588.60 2118.82 581.89 1957.80 752.63 1832.52 972.95 2110.88 969.02
00000618 00000130 1606.85 159.03 699.13 1088.77 1787.18 586.83 2119.09 581.06 1959.95 758.48 1833.71 974.89 2112.66 971.04
00000619 00000131 1604.10 160.07 701.01 1091.54 1783.87 589.43 2116.52 581.02 1958.96 766.06 1834.95 981.07 2111.09 974.91
00000620 00000132 1596.42 159.94 710.45 1103.12 1779.06 594.24 2115.89 583.30 1960.92 774.25 1833.10 987.58 2116.34 979.21
00000621 00000133 1590.32 160.16 714.28 1110.85 1777.70 594.93 2115.72 584.81 1963.02 778.51 1834.08 992.17 2117.44 983.52
00000622 00000134 1586.20 155.96 718.30 1122.91 1776.26 594.96 2114.47 584.15 1964.71 781.97 1834.22 996.11 2118.02 986.56
00000623 00000135 1584.47 157.69 720.66 1120.94 1776.64 595.49 2113.33 586.06 1963.77 783.24 1833.08 994.25 2117.31 986.00
00000624 00000136 1584.16 159.56 720.44 1118.46 1776.63 598.15 2113.81 588.46 1964.13 785.03 1832.60 995.56 2118.05 986.81
00000625 00000137 1582.28 158.28 720.74 1124.54 1773.48 601.21 2111.04 592.40 1961.12 789.10 1829.16 997.90 2117.41 990.44
00000626 00000138 1578.80 162.04 723.06 1118.81 1770.97 602.79 2108.97 594.44 1957.24 790.84 1827.21 998.15 2114.88 990.82
00000627 00000139 1579.40 162.33 718.99 1118.89 1768.87 604.73 2107.88 597.00 1953.96 792.52 1824.40 1000.87 2111.77 994.24
00000628 00000140 1577.10 161.45 719.90 1120.09 1767.18 606.18 2105.17 598.23 1951.71 796.18 1823.65 1003.36 2109.36 996.18
00000629 00000141 1577.58 163.42 719.67 1116.42 1767.21 607.17 2105.74 599.43 1951.30 796.88 1823.99 1002.82 2109.73 995.54
00000630 00000142 1577.00 164.51 720.35 1113.11 1766.81 606.38 2106.13 597.02 1952.59 795.36 1824.55 1000.44 2112.48 991.99
00000631 00000143 1579.02 165.60 718.61 1106.94 1769.60 606.30 2107.01 596.34 1956.16 792.60 1829.57 997.04 2115.81 988.41
00000632 00000144 1580.35 164.75 721.01 1105.15 1772.15 603.89 2109.04 594.86 1958.51 790.96 1832.38 995.86 2115.25 987.76
00000633 00000145 1579.90 166.68 722.03 1097.74 1773.40 603.45 2109.33 594.43 1960.50 789.82 1833.45 991.83 2114.50 983.88
00000634 00000146 1580.54 169.16 721.47 1090.07 1773.50 604.00 2109.35 596.55 1959.04 789.40 1832.88 989.01 2113.16 982.06
00000635 00000147 1578.99 165.86 721.91 1098.95 1771.57 603.45 2108.46 595.24 1958.08 789.37 1830.99 992.56 2112.95 985.13
00000636 00000148 1577.79 160.87 722.03 1119.46 1770.52 602.19 2107.19 594.08 1956.47 790.93 1827.50 998.92 2114.54 991.39
00000637 00000149 1579.50 156.68 720.24 1132.89 1773.84 598.15 2106.06 593.65 1956.96 791.69 1825.73 1001.82 2108.86 996.86
00000638 00000150 1582.16 158.27 714.80 1109.76 1776.64 595.26 2109.17 589.70 1961.04 785.69 1829.01 992.21 2105.88 987.30
00000639 00000151 1591.84 156.91 706.68 1101.86 1781.53 589.42 2114.48 581.90 1967.27 778.26 1837.28 990.28 2106.53 984.76
00000640 00000152 1593.45 150.08 706.65 1117.18 1783.64 586.59 2112.42 579.92 1967.39 775.13 1834.80 985.36 2109.60 980.00
00000641 00000153 1590.95 153.59 706.63 1119.03 1781.76 581.05 2105.57 570.21 1962.88 763.26 1843.72 981.92 2110.51 972.06
00000642 00000154 1587.93 157.83 703.79 1111.10 1769.35 582.37 2091.87 565.03 1945.52 756.39 1839.77 983.26 2105.16 968.28
CROP_BBOX: 1032 0 2807 1617
