Video ID: 	EWGf92nRCqs
H: 	1080
W: 	1920
FPS: 	29.97002997002997

FRAME INDEX X0 Y0 W H [Landmarks (5 Points)]

00004861 00000000 510.78 169.23 579.09 748.05 638.60 473.64 891.16 417.57 789.40 632.19 739.74 741.84 948.89 693.24
00004862 00000001 510.90 171.23 577.24 741.72 642.20 477.96 890.29 429.61 791.73 633.48 740.40 738.50 942.95 696.34
00004863 00000002 519.11 174.19 572.43 741.71 648.83 481.04 893.83 434.59 796.58 635.40 744.35 740.07 945.59 699.83
00004864 00000003 528.77 181.36 571.89 735.28 659.36 482.20 906.36 439.35 807.14 643.53 750.69 741.57 952.46 704.42
00004865 00000004 540.51 188.51 566.01 728.15 670.51 486.18 917.52 445.57 817.56 650.18 758.08 742.44 962.50 707.26
00004866 00000005 551.86 178.85 560.18 739.72 682.00 487.71 931.46 453.92 825.62 659.87 759.22 742.15 979.44 711.27
00004867 00000006 569.64 178.74 554.27 742.82 696.19 491.53 946.48 461.01 839.98 665.50 766.68 742.01 988.33 714.41
00004868 00000007 585.99 181.30 545.75 742.50 710.71 493.52 960.90 469.03 853.16 668.57 772.75 744.94 992.13 722.72
00004869 00000008 601.27 186.22 543.77 737.02 727.74 494.21 976.22 474.38 865.77 671.72 782.26 743.22 1000.58 725.61
00004870 00000009 616.13 184.44 540.16 739.94 743.25 495.06 991.06 477.86 877.23 671.84 791.79 742.49 1010.56 727.43
00004871 DELETE   630.35 182.94 535.21 741.74 760.91 488.57 1015.29 479.73 895.13 675.53 798.44 737.86 1030.60 728.60
00004872 00000011 653.49 194.57 522.85 733.95 780.71 494.71 1031.80 491.02 912.11 684.43 811.51 743.61 1042.22 738.68
00004873 DELETE   668.97 200.74 522.89 737.59 797.05 497.64 1050.79 502.53 924.84 694.30 811.97 742.38 1048.40 746.20
00004874 DELETE   679.59 209.16 528.80 735.16 815.70 504.38 1070.03 515.43 940.42 699.48 821.06 745.09 1061.37 754.47
00004875 00000014 692.84 220.26 536.60 727.78 833.77 504.65 1088.56 520.21 954.85 710.03 831.64 748.10 1071.32 762.14
00004876 00000015 701.23 214.72 529.35 731.72 846.21 503.17 1104.54 525.68 970.90 708.65 835.51 743.36 1085.06 762.03
00004877 00000016 716.51 214.34 527.52 732.36 858.57 499.08 1115.70 526.44 980.41 707.73 841.90 737.46 1096.44 760.36
00004878 00000017 724.58 213.98 525.23 732.31 871.98 494.09 1125.63 526.66 991.10 705.62 851.67 733.59 1101.46 761.03
00004879 00000018 734.18 209.98 525.91 736.53 879.75 492.24 1133.43 523.53 998.83 702.63 859.14 735.22 1106.32 761.70
00004880 00000019 737.15 208.68 529.36 738.68 886.03 491.22 1139.54 525.01 1004.03 704.47 862.08 732.84 1110.90 761.41
00004881 00000020 741.17 209.32 530.18 741.42 890.59 491.61 1143.68 529.73 1005.26 708.86 861.95 732.25 1110.38 764.72
00004882 00000021 744.14 214.21 531.31 739.07 892.62 492.68 1145.56 534.09 1005.67 712.08 862.85 733.91 1111.40 769.05
00004883 00000022 744.99 217.87 529.95 735.89 892.86 492.68 1145.41 536.82 1003.52 711.89 862.13 734.91 1109.50 772.38
00004884 00000023 743.72 215.48 528.05 736.29 889.62 491.43 1141.93 533.67 1000.48 709.51 861.01 734.44 1107.87 770.17
00004885 00000024 739.71 213.32 527.56 735.72 886.32 489.05 1140.22 530.20 999.65 705.07 859.26 732.89 1107.15 767.51
00004886 00000025 733.32 206.90 531.51 737.50 881.61 486.34 1133.98 526.16 994.13 701.16 856.73 729.15 1102.18 762.63
00004887 00000026 726.85 207.93 532.96 732.18 876.98 482.55 1128.65 523.15 990.14 693.85 852.72 725.83 1098.32 759.65
00004888 00000027 720.29 202.34 534.98 730.42 869.57 477.56 1122.66 518.74 983.29 687.54 846.97 722.37 1091.61 756.75
00004889 00000028 710.43 187.57 534.41 743.50 856.83 476.31 1110.60 517.25 967.99 686.42 834.56 719.57 1078.97 753.52
00004890 00000029 696.86 187.96 535.17 741.73 843.23 479.83 1100.23 509.82 958.17 683.96 827.01 720.49 1072.21 744.98
00004891 00000030 682.58 185.51 538.15 741.29 827.33 478.95 1085.53 503.75 943.60 679.03 813.31 719.12 1060.18 739.25
00004892 00000031 684.21 191.02 532.76 740.09 821.73 477.56 1066.27 498.87 933.00 677.55 816.65 720.40 1053.00 738.25
00004893 00000032 668.92 191.48 528.82 739.54 804.03 478.14 1056.65 494.44 921.28 677.77 802.62 718.86 1046.15 731.49
00004894 00000033 662.50 192.61 530.31 741.04 788.56 478.96 1045.75 494.60 909.48 680.04 797.32 723.35 1041.96 735.36
00004895 00000034 651.44 191.69 529.38 740.03 778.29 481.55 1033.98 493.70 899.65 679.65 790.64 724.37 1034.21 733.14
00004896 00000035 641.21 192.70 533.33 740.96 769.69 483.89 1023.21 491.00 892.23 676.25 785.95 727.23 1027.36 731.50
00004897 00000036 634.93 193.13 533.04 737.50 760.77 482.42 1015.52 485.06 885.09 674.97 779.84 726.83 1023.53 727.17
00004898 00000037 628.64 187.94 531.02 748.96 755.16 483.78 1006.33 481.35 879.86 669.79 774.96 726.21 1022.57 721.87
00004899 00000038 621.84 188.97 532.98 747.96 750.67 483.40 1001.91 481.36 875.22 669.13 768.99 725.07 1020.91 720.65
00004900 00000039 616.20 187.93 533.94 747.57 745.62 482.65 999.25 480.05 871.21 669.32 764.41 726.79 1015.71 721.94
00004901 00000040 613.29 188.85 533.80 747.04 742.70 483.26 995.87 478.87 868.80 670.38 763.27 727.05 1012.63 720.71
00004902 00000041 609.78 190.24 536.24 745.71 739.19 481.95 992.62 477.11 865.31 670.55 762.43 726.36 1009.82 719.58
00004903 00000042 608.63 188.48 535.14 747.52 737.73 481.36 990.96 476.38 863.32 669.34 760.73 725.81 1007.39 718.95
00004904 00000043 607.54 189.35 535.73 746.18 736.93 479.32 989.23 473.39 862.81 667.20 761.89 725.56 1006.39 717.96
00004905 00000044 606.76 185.35 534.43 749.38 735.85 476.95 987.40 471.22 861.36 664.84 760.84 723.71 1004.40 716.41
00004906 00000045 606.22 184.00 532.99 749.77 734.81 474.27 986.41 469.47 860.22 662.59 760.62 722.41 1003.33 715.96
00004907 00000046 606.72 182.24 531.41 749.65 734.55 470.53 985.56 466.21 859.22 659.82 760.25 720.70 1001.66 714.75
00004908 00000047 605.57 181.21 532.96 748.22 734.24 467.64 986.07 463.40 859.32 656.56 759.86 719.48 999.86 713.74
00004909 00000048 605.26 179.61 533.36 747.81 733.73 464.32 986.64 460.70 859.25 653.71 760.32 718.40 999.01 713.35
00004910 00000049 616.27 180.00 537.10 744.75 738.93 465.40 988.64 461.29 865.18 651.62 768.95 720.57 1003.20 716.42
00004911 00000050 607.56 177.26 533.15 745.14 735.85 462.25 988.29 457.99 861.71 648.97 765.07 718.34 1000.96 712.73
00004912 00000051 617.46 176.71 538.47 746.81 741.57 463.37 990.82 458.30 867.95 647.52 772.10 719.54 1004.74 714.79
00004913 00000052 618.38 174.86 540.14 748.81 743.00 460.98 991.68 456.16 869.08 644.87 774.82 719.48 1005.73 715.05
00004914 00000053 619.28 171.59 539.91 750.75 743.53 458.92 992.97 454.16 870.07 642.59 774.56 718.35 1006.43 713.94
00004915 00000054 620.97 167.50 540.17 755.68 745.51 456.65 994.46 452.80 871.03 640.96 775.78 718.19 1007.04 714.61
00004916 00000055 622.92 165.91 538.95 757.47 746.76 455.96 996.09 451.93 872.10 640.39 776.14 717.35 1009.04 713.76
00004917 00000056 624.80 165.10 537.66 759.57 747.97 454.84 997.68 450.18 873.66 639.38 777.47 716.46 1012.29 712.47
00004918 00000057 626.14 161.49 537.39 762.91 748.80 452.28 999.78 447.51 874.69 638.94 778.28 716.35 1013.62 712.51
00004919 00000058 618.46 157.45 535.73 762.83 749.95 450.49 1004.06 450.51 875.02 637.89 772.56 710.23 1012.53 708.64
00004920 00000059 621.77 153.00 535.87 764.12 754.21 447.64 1007.00 448.38 879.44 637.00 776.67 708.53 1014.35 707.88
00004921 00000060 623.32 148.58 538.09 769.91 758.13 443.82 1009.98 446.10 883.02 633.96 780.17 707.28 1015.99 708.06
00004922 00000061 625.43 145.32 538.00 771.42 761.68 441.53 1013.41 444.85 886.64 630.74 783.58 705.99 1018.25 707.54
00004923 00000062 627.39 144.71 537.43 771.65 764.93 439.61 1014.63 443.10 889.46 628.55 785.31 705.03 1019.01 706.77
00004924 00000063 628.23 142.83 537.63 773.96 766.67 439.58 1017.17 442.93 892.40 628.06 786.56 705.86 1019.93 707.59
00004925 00000064 630.29 141.31 537.80 777.46 769.33 438.32 1018.15 440.90 894.91 626.12 790.32 707.03 1020.89 708.04
00004926 00000065 632.41 142.46 537.64 775.73 771.73 439.16 1018.27 440.16 896.37 624.80 796.74 710.92 1018.86 710.67
00004927 00000066 634.15 141.58 537.12 776.53 773.73 438.12 1019.84 438.72 897.22 622.23 801.35 713.90 1016.59 713.34
00004928 00000067 635.81 141.27 535.78 775.72 774.27 437.37 1021.72 436.65 898.32 621.08 804.02 716.74 1017.02 715.12
00004929 00000068 637.71 137.83 535.15 778.08 775.61 436.12 1022.31 434.51 899.12 617.19 805.78 718.79 1014.84 716.58
00004930 00000069 637.70 136.53 534.98 776.93 776.25 436.50 1022.97 434.37 899.98 614.84 807.30 719.09 1015.30 716.31
00004931 00000070 648.40 138.12 529.42 782.54 781.07 445.25 1024.58 443.96 902.11 614.34 802.46 722.32 1013.51 720.69
00004932 00000071 650.40 136.38 525.69 777.91 779.17 445.42 1023.22 444.07 899.47 613.89 800.43 721.36 1011.29 719.86
00004933 00000072 649.41 137.56 525.22 770.30 777.17 441.77 1022.83 442.25 897.67 613.32 798.50 717.06 1011.04 717.06
00004934 00000073 647.73 136.43 525.06 766.33 774.94 438.74 1019.36 438.30 894.65 609.45 796.80 712.75 1008.63 712.15
00004935 00000074 645.40 137.31 525.68 765.50 771.93 433.53 1017.37 433.08 891.76 605.69 793.56 708.51 1007.53 707.86
00004936 00000075 641.56 134.16 527.16 769.01 768.35 427.68 1015.84 427.93 888.19 601.30 789.82 703.46 1004.96 703.48
00004937 00000076 635.88 130.59 530.39 774.53 766.33 423.22 1011.58 423.21 885.65 597.01 789.33 701.01 1001.41 700.97
00004938 00000077 628.57 123.22 530.81 778.39 765.01 421.35 1007.85 419.32 885.83 595.15 791.29 698.17 999.70 695.76
00004939 00000078 626.69 121.33 531.86 775.53 756.35 422.99 1005.17 418.32 878.37 591.83 783.02 697.56 997.85 693.54
00004940 00000079 622.89 120.62 533.37 773.54 754.46 421.75 1005.21 416.06 878.90 590.55 782.92 696.73 999.10 691.69
00004941 00000080 619.55 119.58 533.66 770.57 752.86 421.10 1003.72 413.19 879.40 588.45 783.92 695.53 999.71 688.48
00004942 00000081 618.71 118.14 532.40 767.59 751.88 421.06 1001.68 410.16 879.45 586.11 785.45 695.17 998.46 685.76
00004943 00000082 622.66 116.58 531.60 771.62 749.67 419.71 997.49 410.84 879.36 584.36 787.36 693.84 999.82 686.92
00004944 00000083 617.83 115.15 533.79 771.78 747.06 419.58 995.74 409.89 878.42 583.57 784.18 692.56 999.20 684.89
00004945 00000084 614.60 117.21 535.28 769.23 743.09 418.35 992.14 408.57 874.88 584.04 781.94 691.74 995.81 684.03
00004946 00000085 614.10 118.52 533.17 765.11 741.74 418.38 989.51 410.67 871.77 587.09 778.26 690.75 992.47 684.58
00004947 00000086 612.42 117.23 534.19 777.07 741.25 418.67 987.45 411.28 869.59 587.85 774.67 692.71 992.21 686.46
00004948 00000087 604.33 118.01 533.94 776.17 735.17 417.74 987.21 407.89 861.81 586.98 765.55 692.66 987.78 683.54
00004949 00000088 601.87 116.17 534.55 774.66 732.89 416.05 986.25 406.97 859.56 586.24 764.01 691.91 984.56 683.57
00004950 00000089 611.02 113.75 529.08 771.76 734.46 413.17 983.68 408.15 863.30 584.93 768.73 688.66 983.53 684.56
00004951 00000090 611.38 110.62 527.51 770.09 734.01 412.24 984.29 406.79 863.15 583.61 768.38 688.03 981.08 683.92
00004952 00000091 611.62 111.28 527.57 769.86 733.75 410.79 984.70 405.28 863.94 582.78 770.37 689.70 981.55 685.72
00004953 00000092 612.50 111.58 527.14 770.35 734.27 409.21 984.99 403.33 864.65 582.13 772.72 690.50 980.72 686.35
00004954 00000093 613.56 110.35 527.21 772.10 735.35 408.85 985.95 402.30 865.84 580.44 774.84 691.18 981.95 686.51
00004955 00000094 613.54 109.84 528.66 773.88 736.52 409.35 986.64 401.50 867.04 579.14 777.59 692.32 982.99 686.62
00004956 00000095 614.76 109.34 530.53 778.66 739.90 410.42 987.77 402.35 869.22 578.37 781.61 693.71 985.81 687.70
00004957 00000096 617.61 107.92 530.70 781.78 742.98 411.51 990.76 402.40 873.23 577.47 785.81 696.19 988.89 689.30
00004958 00000097 620.36 109.34 530.59 780.83 749.25 413.15 994.88 403.27 879.81 576.75 791.88 697.43 994.69 689.86
00004959 00000098 617.41 110.95 535.11 775.53 758.38 412.20 1005.47 399.77 888.67 576.73 798.04 698.16 1001.05 687.64
00004960 00000099 625.96 109.15 532.71 780.53 769.61 405.33 1017.80 396.11 904.32 574.62 805.62 695.76 1014.21 687.95
00004961 00000100 636.17 110.53 528.66 777.19 781.87 403.96 1030.60 395.36 922.60 573.51 819.01 694.37 1026.23 687.04
00004962 00000101 646.92 108.23 522.24 775.09 796.38 403.47 1042.93 395.32 943.22 572.09 833.14 691.13 1039.80 684.34
00004963 00000102 653.59 103.01 521.02 774.97 807.97 402.89 1054.22 396.74 956.63 569.79 842.25 686.80 1049.56 681.81
00004964 00000103 656.91 104.71 520.87 776.19 813.82 401.37 1059.90 395.49 966.01 569.04 848.86 684.48 1057.98 679.46
00004965 00000104 660.50 102.52 518.80 779.39 821.22 401.36 1063.69 395.35 972.59 566.39 855.80 683.18 1063.71 677.73
00004966 00000105 662.56 103.14 518.08 780.93 825.88 401.59 1066.39 394.26 978.58 566.50 860.57 684.35 1067.25 677.81
00004967 00000106 663.89 103.78 517.59 778.67 827.08 402.32 1069.14 395.21 980.76 567.80 860.77 685.22 1068.26 678.93
00004968 00000107 666.84 106.06 514.42 771.49 827.86 402.65 1069.57 394.65 981.84 568.44 861.92 684.13 1069.23 677.11
00004969 00000108 669.68 107.94 512.17 773.14 830.35 401.35 1070.98 394.45 984.48 568.59 864.81 685.00 1069.52 678.85
00004970 00000109 671.54 108.03 510.93 777.50 832.71 401.02 1071.41 394.91 986.53 568.19 865.65 685.27 1069.18 679.77
00004971 00000110 673.74 109.11 510.39 779.26 834.31 401.08 1072.99 395.96 987.48 567.64 865.73 685.20 1070.12 680.49
00004972 00000111 672.69 105.35 514.78 784.18 836.59 398.78 1075.84 395.40 988.66 566.37 866.20 683.77 1071.10 680.29
00004973 00000112 675.22 105.75 513.62 782.02 839.35 395.54 1078.36 393.22 990.38 563.69 868.37 681.95 1070.49 679.33
00004974 00000113 677.79 105.89 513.34 779.24 842.01 393.06 1081.77 391.52 993.05 561.07 871.77 679.92 1072.80 677.69
00004975 00000114 680.35 103.47 515.40 780.00 845.23 390.96 1084.80 389.63 994.63 559.82 875.71 678.42 1075.58 676.42
00004976 00000115 683.53 102.03 516.31 778.74 850.86 387.51 1089.76 387.45 998.94 558.63 878.98 676.83 1078.10 675.85
00004977 00000116 686.54 101.23 515.72 777.61 856.40 385.83 1093.51 387.61 1003.15 557.85 881.22 675.45 1079.28 676.06
00004978 00000117 686.61 98.74 517.08 781.05 861.22 385.43 1097.66 388.35 1007.92 558.12 882.12 676.07 1080.54 677.64
00004979 00000118 690.27 96.61 516.36 781.88 865.24 385.39 1101.78 390.37 1010.50 559.20 883.94 677.13 1081.44 680.42
00004980 00000119 693.13 97.24 514.52 779.82 868.91 386.31 1103.80 391.16 1013.84 560.04 885.89 677.13 1082.90 680.43
00004981 00000120 693.88 98.21 514.18 780.34 871.56 387.63 1104.93 392.24 1016.66 561.02 887.71 678.13 1084.69 681.16
00004982 00000121 697.88 98.04 511.54 779.70 874.18 388.97 1106.37 392.61 1018.78 560.67 890.35 678.61 1086.36 680.90
00004983 00000122 700.18 100.45 511.26 776.05 877.29 390.79 1109.13 394.35 1021.29 561.68 893.17 679.62 1088.04 681.82
00004984 00000123 701.17 100.10 511.59 769.97 879.03 392.90 1111.29 397.16 1023.27 563.52 894.54 677.94 1090.19 680.55
00004985 00000124 701.78 100.46 513.68 768.68 882.74 395.18 1114.63 398.95 1028.09 564.58 897.98 678.70 1092.31 680.91
00004986 00000125 703.10 100.60 513.52 766.01 888.17 401.70 1115.27 405.99 1030.68 566.39 902.02 679.11 1093.49 681.84
00004987 00000126 703.72 97.77 511.32 771.62 886.11 411.59 1113.22 415.25 1027.96 569.48 898.02 681.02 1091.89 683.38
00004988 00000127 707.06 101.88 512.91 769.97 880.28 412.75 1118.90 415.40 1024.90 570.88 890.03 684.07 1089.65 685.51
00004989 00000128 705.42 102.49 511.11 765.66 883.65 411.19 1112.98 415.86 1022.51 570.94 892.50 681.12 1090.45 684.62
00004990 00000129 706.84 102.43 509.07 765.06 880.40 408.98 1109.33 413.31 1018.45 572.01 889.85 681.15 1086.64 684.48
00004991 00000130 705.00 103.61 510.42 766.31 875.48 408.31 1107.89 411.91 1015.65 572.40 885.88 682.68 1084.88 685.30
00004992 00000131 703.38 102.82 512.00 768.70 871.92 405.93 1107.94 411.33 1012.05 573.36 882.47 682.60 1084.06 686.48
00004993 00000132 702.33 104.03 511.00 768.37 870.37 404.10 1106.64 411.30 1010.08 573.43 878.92 681.36 1081.78 686.67
00004994 00000133 699.91 104.49 512.55 768.88 867.87 403.05 1105.42 410.48 1008.37 574.01 877.68 681.62 1081.16 687.14
00004995 00000134 699.10 104.20 512.75 770.40 865.96 402.64 1103.92 409.33 1006.75 573.59 876.37 681.67 1080.40 686.63
00004996 00000135 698.10 105.54 514.03 768.66 864.04 401.49 1102.99 408.30 1004.85 573.76 875.09 680.89 1079.70 685.93
00004997 00000136 698.19 105.74 513.28 767.85 863.16 400.57 1102.19 407.90 1003.37 573.25 874.59 679.72 1079.35 685.19
00004998 00000137 696.45 107.25 516.08 765.10 858.67 399.33 1100.62 404.62 1000.98 573.68 873.83 680.94 1079.06 684.78
00004999 00000138 693.88 106.97 517.87 772.03 856.41 396.78 1097.88 401.15 999.74 571.55 873.93 682.10 1076.21 685.19
00005000 00000139 694.55 105.97 517.22 781.00 857.56 392.13 1098.53 399.40 999.71 568.61 873.60 683.07 1071.52 688.64
00005001 00000140 696.07 117.97 514.15 773.49 863.60 387.85 1104.93 396.17 1007.07 560.58 881.73 688.27 1068.65 695.02
00005002 00000141 695.81 114.45 516.50 776.97 864.34 384.57 1104.49 394.18 1005.21 550.58 885.25 687.29 1066.05 695.19
00005003 00000142 695.72 113.29 518.54 776.94 863.52 379.96 1103.08 390.07 1002.31 543.20 886.38 686.72 1064.53 695.10
00005004 00000143 696.00 116.67 516.52 772.49 861.73 379.22 1100.80 388.46 999.82 541.53 885.91 686.62 1063.19 694.44
CROP_BBOX: 293 0 1493 1080
