Video ID: 	8a5Cl7TEcgs
H: 	1080
W: 	1920
FPS: 	25.0

FRAME INDEX X0 Y0 W H [Landmarks (5 Points)]

00003671 00000000 398.20 164.30 437.02 622.61 501.36 437.60 697.57 401.41 620.75 526.90 566.09 651.70 724.85 620.07
00003672 00000001 399.17 162.38 437.91 628.38 502.93 436.65 700.94 401.24 623.13 526.26 564.28 651.53 727.54 620.45
00003673 00000002 400.41 161.11 437.01 634.23 505.03 437.32 703.25 401.63 626.91 525.49 564.88 651.93 730.33 620.69
00003674 00000003 402.46 161.86 436.57 632.02 507.15 437.48 704.91 401.75 628.57 525.26 566.01 651.45 731.28 620.11
00003675 00000004 405.41 163.88 434.93 626.75 508.57 437.13 706.20 401.39 628.85 521.98 566.16 649.64 731.12 618.26
00003676 00000005 407.28 161.10 433.59 622.68 511.30 430.80 708.38 398.55 631.10 514.66 566.16 642.94 729.65 614.31
00003677 00000006 411.80 156.40 428.89 617.44 513.52 423.79 711.68 392.17 634.77 502.88 566.47 633.27 732.00 606.01
00003678 00000007 414.33 149.82 425.69 616.27 515.74 418.59 712.82 388.34 633.64 493.94 565.60 624.54 732.66 598.27
00003679 DELETE   417.23 142.18 421.05 616.84 517.72 416.73 713.01 387.76 633.69 486.08 566.03 616.99 733.62 592.48
00003680 00000009 418.91 135.64 416.89 616.89 519.96 414.21 711.64 386.33 633.57 478.47 570.11 612.74 732.76 589.62
00003681 00000010 417.82 132.57 416.66 617.43 518.55 412.46 709.94 384.28 632.10 473.77 568.74 609.81 731.92 586.10
00003682 DELETE   417.30 130.90 414.96 617.97 516.92 412.30 707.55 383.72 630.46 473.52 566.84 608.79 730.21 585.10
00003683 DELETE   416.11 128.52 414.80 619.74 515.46 413.06 706.16 384.36 629.25 473.38 565.21 608.27 729.17 584.42
00003684 00000013 413.48 128.89 415.16 619.64 513.84 412.84 702.49 384.95 628.19 474.50 563.34 607.65 725.86 584.54
00003685 DELETE   412.50 128.67 414.42 621.10 512.17 413.03 698.75 384.90 625.45 474.83 561.71 608.47 721.30 585.44
00003686 DELETE   411.27 130.71 413.37 619.21 510.64 414.64 698.85 386.99 624.56 477.80 560.55 609.55 720.30 586.80
00003687 DELETE   408.15 133.72 414.67 615.27 508.32 411.96 701.74 384.99 624.41 479.22 558.80 609.66 721.47 587.19
00003688 00000017 406.38 137.18 415.99 614.34 504.37 409.32 702.12 379.12 623.96 480.48 556.02 611.21 722.88 586.21
00003689 00000018 406.83 137.70 414.25 614.47 504.03 404.42 699.92 375.21 622.94 481.44 556.22 611.13 720.64 586.61
00003690 00000019 406.17 138.01 415.39 614.12 502.81 400.24 699.68 371.40 622.28 482.42 556.61 611.55 719.47 587.08
00003691 00000020 406.69 138.77 415.34 614.58 501.91 399.74 697.94 369.86 621.21 483.46 555.93 611.61 719.30 586.26
00003692 00000021 404.39 140.87 417.41 613.61 500.98 399.78 695.70 367.24 621.54 483.75 556.66 612.06 718.59 584.50
00003693 00000022 404.20 143.42 419.31 609.02 498.45 404.57 695.64 371.11 618.30 486.77 552.37 611.41 723.36 582.65
00003694 00000023 405.13 148.78 419.80 601.59 498.04 412.01 695.93 377.99 618.76 492.82 551.30 612.68 725.42 583.57
00003695 00000024 406.95 154.64 419.82 597.34 500.20 414.82 696.34 383.58 619.69 498.40 551.65 612.20 727.16 585.05
00003696 00000025 408.39 155.71 419.92 602.66 500.77 417.42 695.11 384.39 619.94 503.16 553.74 615.50 729.96 586.70
00003697 00000026 408.74 156.27 420.92 605.41 502.42 416.30 696.31 382.87 620.58 502.63 557.13 618.36 730.07 589.04
00003698 00000027 410.54 152.12 418.40 606.93 503.46 413.06 697.01 381.20 620.31 500.33 557.37 616.70 728.20 588.68
00003699 00000028 410.64 151.78 418.45 601.61 504.58 410.43 697.31 379.76 621.91 497.51 559.26 614.92 725.77 588.02
00003700 00000029 410.43 150.43 419.41 599.28 504.40 410.13 697.05 379.04 620.70 498.10 559.06 612.86 724.56 585.89
00003701 00000030 410.52 149.36 420.20 600.33 505.23 410.06 698.08 378.93 622.35 497.70 560.89 613.87 725.52 586.78
00003702 00000031 412.41 149.76 417.65 601.51 507.94 409.81 698.01 379.95 624.05 499.10 565.68 617.09 722.53 591.15
00003703 00000032 413.66 151.78 416.00 603.25 508.98 412.19 698.53 380.51 625.24 501.16 567.92 621.35 722.71 594.56
00003704 00000033 413.66 152.89 415.55 603.57 508.50 412.39 698.15 380.81 624.65 500.93 567.23 622.35 722.18 595.70
00003705 00000034 412.93 153.03 415.64 604.41 507.18 411.95 697.77 380.62 624.26 500.20 565.96 622.84 721.38 596.40
00003706 00000035 412.63 151.44 414.52 604.99 507.10 409.69 697.79 380.05 623.53 500.26 565.44 624.21 717.08 599.31
00003707 00000036 411.59 151.47 416.75 605.41 506.20 409.23 698.63 378.49 624.58 500.59 566.07 625.09 719.13 599.26
00003708 00000037 412.42 149.92 416.88 611.34 507.17 410.11 698.79 377.71 625.85 500.03 567.48 627.65 721.10 600.33
00003709 00000038 411.15 153.18 420.35 612.33 507.63 412.24 698.78 377.46 626.99 501.30 568.93 627.50 727.06 597.54
00003710 00000039 409.02 156.34 424.87 613.96 506.18 418.03 698.18 380.45 625.64 506.70 566.06 628.84 731.18 596.21
00003711 00000040 407.63 158.84 427.84 614.43 506.17 425.90 699.14 386.00 625.86 514.05 567.10 633.20 734.30 598.09
00003712 00000041 406.78 166.41 429.85 610.73 509.37 434.73 698.61 389.35 631.13 521.98 576.89 643.35 735.84 603.69
00003713 00000042 409.72 171.50 426.99 610.15 508.85 447.13 695.67 395.75 631.47 535.46 581.34 654.90 735.64 610.79
00003714 00000043 406.02 182.35 427.85 603.79 506.58 458.01 691.04 405.23 629.26 549.17 585.33 663.98 732.36 619.02
00003715 00000044 404.27 189.10 426.72 607.37 502.80 465.66 688.29 415.12 623.52 555.35 578.88 670.87 728.40 627.97
00003716 00000045 409.74 201.72 420.04 600.64 498.13 473.83 687.59 419.85 619.47 559.62 573.98 681.98 728.97 636.57
00003717 00000046 407.79 207.26 419.40 594.78 495.65 476.12 685.89 423.55 616.23 565.58 571.49 683.95 727.31 639.52
00003718 00000047 406.45 213.41 420.94 588.38 493.69 479.18 685.28 426.60 613.48 568.66 566.80 684.32 727.23 639.92
00003719 00000048 403.85 218.10 423.42 581.53 492.68 479.21 684.99 426.80 611.96 570.96 564.36 682.99 725.35 638.33
00003720 00000049 403.22 220.33 425.09 579.50 492.43 479.72 683.94 426.21 611.29 570.49 562.27 680.35 726.23 634.71
00003721 00000050 400.69 220.12 425.77 577.59 490.45 478.34 683.52 424.88 609.14 567.75 558.65 678.13 724.63 632.54
00003722 00000051 392.85 211.29 433.80 581.20 490.26 474.32 685.47 421.70 610.98 569.13 559.40 667.88 725.69 623.23
00003723 00000052 391.96 209.72 433.14 580.85 489.30 471.98 686.13 420.79 609.68 567.05 556.53 664.41 726.65 620.87
00003724 00000053 391.64 208.75 433.36 580.13 488.64 468.78 686.15 418.77 608.76 564.15 553.59 660.64 725.53 618.26
00003725 00000054 390.63 203.31 435.08 582.27 486.96 464.12 686.55 416.39 607.06 561.57 552.01 657.46 725.43 616.89
00003726 00000055 389.59 199.14 435.52 584.24 486.45 461.20 685.92 413.42 607.01 558.34 551.66 655.05 725.42 614.37
00003727 00000056 388.68 193.95 435.21 586.33 487.45 458.87 687.01 411.66 608.33 553.16 551.35 652.27 725.45 612.17
00003728 00000057 388.33 185.04 435.58 589.73 486.85 455.14 687.91 407.70 608.32 546.30 552.27 649.24 727.01 608.90
00003729 00000058 389.97 182.62 433.92 589.34 486.70 451.18 687.59 404.38 608.26 542.38 552.61 645.63 727.50 606.02
00003730 00000059 392.68 181.29 432.52 588.88 489.11 447.58 688.09 401.29 610.30 538.39 554.77 642.94 727.38 603.93
00003731 00000060 393.89 180.27 431.43 587.21 490.21 445.66 686.97 398.35 611.10 534.68 556.68 641.40 727.26 601.98
00003732 00000061 395.47 176.37 431.49 589.07 492.61 443.98 687.43 395.65 613.59 530.97 559.86 639.98 728.17 599.73
00003733 00000062 397.69 176.76 430.10 589.64 495.60 441.58 687.83 393.95 616.37 528.25 564.90 640.83 728.37 600.89
00003734 00000063 398.85 173.01 430.45 599.40 496.33 440.66 689.06 392.09 617.73 526.99 566.54 643.29 730.36 602.21
00003735 00000064 400.18 173.88 432.33 601.90 498.55 438.77 690.40 391.07 619.75 525.93 569.33 644.19 731.23 603.53
00003736 00000065 400.97 170.30 434.70 607.13 501.25 437.85 690.98 390.43 621.22 523.98 571.99 643.73 731.99 603.17
00003737 00000066 402.68 170.53 435.12 608.33 503.11 437.37 693.29 389.82 623.53 521.20 573.11 643.50 734.20 602.41
00003738 00000067 403.59 165.18 435.52 617.88 505.97 436.64 695.57 389.44 626.44 520.86 574.94 645.22 735.51 604.31
00003739 00000068 406.04 165.70 434.99 634.81 509.51 434.09 698.34 386.86 630.88 522.88 579.53 652.75 740.49 611.55
00003740 00000069 409.70 168.94 432.89 637.16 510.27 431.36 701.56 384.71 634.41 523.60 579.74 655.77 742.90 615.01
00003741 00000070 412.28 167.73 430.87 635.82 512.73 429.64 703.49 384.12 636.45 521.98 581.67 653.71 743.78 613.68
00003742 00000071 412.59 166.32 431.43 625.93 514.69 428.54 705.61 383.76 637.95 518.60 581.47 646.21 743.87 606.73
00003743 00000072 411.34 168.68 432.30 601.29 514.96 428.27 707.20 385.11 639.20 515.70 578.95 633.00 744.89 594.67
00003744 00000073 414.01 171.06 433.42 592.97 516.16 429.47 707.41 385.96 638.76 517.74 578.18 627.27 747.65 588.50
00003745 00000074 413.66 169.94 433.98 592.54 516.39 429.06 707.93 385.88 639.08 517.54 576.93 625.41 748.88 586.90
00003746 00000075 415.18 169.00 432.12 594.44 516.53 431.10 708.68 387.49 638.43 519.04 576.68 626.48 749.95 587.62
00003747 00000076 413.97 168.38 433.26 596.62 516.90 431.11 709.36 388.14 638.13 520.20 576.27 627.39 749.61 589.08
00003748 00000077 414.72 168.66 431.53 599.89 517.31 431.23 709.49 388.39 638.82 521.39 576.39 629.64 749.32 591.42
00003749 00000078 415.80 167.73 429.79 609.29 518.96 431.40 710.11 389.79 640.65 521.79 575.97 632.07 749.90 594.77
00003750 00000079 416.36 167.33 429.30 613.54 520.94 430.87 711.74 390.66 642.48 521.23 575.99 632.20 750.29 596.10
00003751 00000080 415.39 168.02 429.30 615.84 521.51 430.32 711.82 390.40 643.47 519.78 576.08 633.02 749.47 597.21
00003752 00000081 415.23 166.33 428.50 618.68 522.28 430.28 711.47 391.19 643.85 518.30 576.11 633.50 747.41 598.51
00003753 00000082 416.09 165.41 428.58 623.25 522.90 429.31 713.10 390.35 644.29 518.16 577.42 636.10 748.31 601.22
00003754 00000083 418.46 166.81 426.61 623.81 524.37 427.43 714.45 389.13 644.75 516.24 578.23 636.37 748.92 602.12
00003755 00000084 421.68 164.72 423.92 622.94 528.15 425.24 717.39 388.58 647.53 513.25 581.19 634.97 749.10 602.20
00003756 00000085 425.39 162.48 422.62 622.65 530.98 419.74 719.46 383.90 650.37 507.27 584.50 630.51 753.07 598.29
00003757 00000086 425.19 156.32 423.44 625.61 532.02 415.40 722.92 375.21 657.55 499.81 588.95 629.19 756.57 593.21
00003758 00000087 429.20 152.86 420.06 624.21 535.92 411.85 727.93 371.74 662.78 497.38 591.85 624.52 761.08 588.94
00003759 00000088 431.93 148.29 417.24 625.04 540.86 410.96 729.98 370.07 669.15 493.90 597.18 622.12 762.80 586.48
00003760 00000089 435.87 144.38 414.03 626.54 546.43 411.12 733.95 372.34 673.97 496.82 602.24 623.02 763.30 589.30
00003761 00000090 439.75 147.04 410.95 624.47 550.98 413.86 737.87 377.00 678.69 502.13 605.62 627.91 763.31 596.04
00003762 00000091 439.16 148.21 413.01 623.09 553.42 418.16 739.21 382.79 680.66 507.77 608.38 631.89 762.40 601.15
00003763 00000092 439.79 150.10 415.24 615.94 553.59 421.67 742.39 386.11 681.53 510.57 608.28 632.29 764.00 601.46
00003764 00000093 441.17 151.68 416.43 612.27 554.45 425.74 742.88 388.40 682.45 513.09 608.47 630.26 767.05 598.49
00003765 00000094 442.13 151.02 418.38 608.06 556.68 424.75 745.59 386.50 684.81 511.42 609.26 626.50 769.29 593.81
00003766 00000095 445.35 147.60 416.73 604.82 557.78 419.60 746.80 380.56 684.30 504.83 611.16 619.12 772.51 585.74
00003767 00000096 447.89 129.60 417.25 615.72 556.04 410.52 746.90 372.51 678.25 492.81 617.33 602.42 779.34 571.03
00003768 00000097 449.23 125.96 417.69 607.07 555.57 399.33 746.12 358.95 678.26 480.39 619.19 592.87 779.65 559.67
00003769 00000098 450.60 116.10 418.10 604.69 557.67 389.06 751.02 351.22 680.14 469.41 617.94 582.65 781.61 551.22
00003770 00000099 451.74 112.63 419.65 597.48 559.63 379.48 751.62 342.34 681.30 461.08 621.47 574.86 784.29 543.75
00003771 00000100 451.26 109.52 421.60 591.34 559.49 375.36 751.49 335.53 682.69 454.47 624.43 570.64 787.37 537.15
00003772 00000101 450.82 109.72 420.84 589.81 558.10 373.26 749.69 332.29 681.15 451.50 624.74 569.66 786.58 535.35
00003773 00000102 449.48 110.92 422.16 590.11 557.02 374.52 748.73 331.91 681.02 451.65 624.66 570.60 787.25 534.86
00003774 00000103 449.35 110.87 420.82 595.66 556.42 376.39 746.69 333.05 681.05 454.48 622.48 571.93 786.38 535.41
00003775 00000104 448.66 112.01 421.09 599.62 555.43 378.13 745.91 336.37 679.86 460.21 620.42 575.24 784.60 540.18
00003776 00000105 447.38 118.05 422.16 599.60 553.56 383.99 744.99 341.46 678.70 464.57 620.79 581.00 783.83 545.35
00003777 00000106 448.30 119.24 421.75 602.53 553.15 390.27 743.65 346.80 677.09 471.01 620.03 585.03 782.99 548.82
00003778 00000107 447.34 120.27 420.53 606.45 549.54 395.80 741.12 350.48 674.14 478.90 618.77 591.96 781.73 554.28
00003779 00000108 445.41 124.84 421.28 605.69 546.40 399.15 738.35 353.97 671.08 482.87 616.98 596.41 779.24 559.13
00003780 00000109 446.04 124.06 419.08 609.53 547.78 397.20 736.06 353.92 670.07 479.91 617.94 595.04 776.01 559.34
00003781 00000110 447.47 116.65 418.78 615.57 552.55 390.67 741.01 351.52 674.14 474.67 618.09 589.35 777.10 556.85
00003782 00000111 448.24 112.10 418.08 614.74 555.07 383.72 743.38 346.81 676.73 467.54 613.73 580.14 777.48 549.28
00003783 00000112 449.44 107.61 418.45 610.37 558.33 376.36 745.76 340.06 680.64 460.50 619.06 576.12 779.43 545.64
00003784 00000113 451.50 104.20 416.92 612.90 559.77 372.39 744.96 336.09 681.34 456.70 621.83 575.70 779.54 545.17
00003785 00000114 451.93 103.56 416.68 612.81 560.43 372.44 745.60 335.56 680.98 456.19 623.11 574.96 780.48 543.85
00003786 00000115 451.11 104.84 418.36 610.29 560.98 374.61 744.80 337.21 682.05 457.73 624.06 574.49 780.58 542.95
00003787 00000116 450.76 105.91 419.56 607.57 560.17 374.91 745.73 336.57 681.75 457.70 622.57 572.55 783.63 540.14
00003788 00000117 450.27 106.05 422.04 607.32 558.03 375.98 747.88 336.04 681.49 458.27 620.22 571.37 788.40 537.30
00003789 00000118 450.08 104.18 421.39 609.48 557.90 375.28 748.58 335.96 681.99 457.84 616.77 568.60 790.21 535.06
00003790 00000119 450.30 104.44 421.02 609.39 557.92 374.83 749.98 335.52 682.89 457.48 614.62 566.97 791.39 533.50
00003791 00000120 450.65 104.50 420.91 609.04 558.27 374.48 750.70 335.33 683.33 457.60 613.97 565.92 792.42 532.60
00003792 00000121 451.02 104.05 420.46 610.76 558.89 374.95 750.80 336.29 684.01 457.90 613.99 566.50 792.08 533.69
00003793 00000122 452.15 104.81 420.01 612.02 560.06 374.53 750.87 336.56 684.20 458.58 617.59 569.92 790.80 537.72
00003794 00000123 452.96 102.55 416.97 620.59 563.20 374.03 749.12 337.75 685.41 457.80 624.77 577.82 783.33 547.47
00003795 00000124 452.67 102.58 413.73 623.65 563.29 374.55 747.28 340.00 684.44 459.17 625.86 581.34 777.73 552.80
00003796 00000125 451.24 100.72 413.43 630.68 561.50 375.65 744.15 339.48 683.63 460.37 627.92 586.31 777.09 556.40
00003797 00000126 450.25 100.26 413.08 630.27 558.83 375.70 742.19 336.66 682.37 459.44 627.63 587.65 777.13 555.28
00003798 00000127 448.80 100.68 413.24 626.20 555.02 376.31 737.97 332.76 680.85 457.10 626.71 586.95 778.32 550.64
00003799 00000128 442.09 100.37 420.05 619.83 548.58 374.87 733.35 329.59 675.75 453.38 620.47 582.74 777.42 544.92
00003800 00000129 436.73 94.53 425.70 620.36 538.55 376.34 726.77 327.76 663.48 451.88 610.24 579.28 774.78 538.51
00003801 00000130 427.24 103.36 429.69 615.02 533.91 383.29 722.29 329.29 661.21 456.11 602.42 585.97 763.12 539.24
00003802 00000131 428.33 100.06 429.41 613.54 536.24 379.11 725.23 327.62 664.13 454.53 603.89 582.46 764.25 537.85
00003803 00000132 439.91 94.61 427.66 606.40 543.54 365.10 739.41 322.96 667.40 444.86 610.56 565.86 780.67 531.26
00003804 DELETE   459.84 92.46 415.24 601.83 564.28 366.19 758.54 326.65 687.30 441.66 626.33 563.18 790.81 531.52
00003805 00000134 476.93 91.70 408.23 599.12 582.35 363.34 773.44 330.46 706.72 438.06 636.22 556.38 800.56 530.00
00003806 00000135 489.59 86.69 405.36 608.68 598.18 352.76 790.78 325.49 724.89 431.85 648.32 556.54 812.52 533.77
00003807 00000136 489.94 76.06 410.36 621.20 606.64 347.67 800.16 321.08 737.41 427.88 659.62 558.64 817.35 536.05
00003808 00000137 491.80 73.50 409.89 622.69 609.42 345.16 800.31 316.03 741.35 422.32 663.36 555.43 819.40 531.54
00003809 00000138 490.29 73.63 410.39 621.66 608.23 344.54 798.39 313.66 741.10 420.90 664.60 554.70 820.72 529.17
00003810 00000139 487.96 80.08 409.23 612.78 604.01 347.33 792.79 315.59 736.29 422.54 662.43 554.85 817.61 528.89
00003811 00000140 480.28 86.13 412.44 609.72 592.63 353.58 783.15 320.66 723.95 429.47 651.88 557.38 811.77 530.21
00003812 DELETE   463.29 91.98 422.12 607.48 577.75 362.85 767.97 324.63 709.02 439.17 642.58 564.96 801.92 533.68
00003813 DELETE   453.20 110.04 422.09 599.61 565.97 379.23 762.52 341.32 693.04 457.46 627.66 574.97 795.50 543.72
00003814 DELETE   448.18 119.61 416.65 608.32 553.47 396.02 746.30 355.22 679.10 477.95 612.67 589.03 781.56 555.13
00003815 00000144 427.25 135.03 417.91 613.21 532.19 410.48 726.18 363.82 661.68 492.77 593.96 615.39 761.49 575.30
00003816 00000145 421.65 144.74 413.00 615.29 526.46 410.74 716.61 369.92 655.45 500.13 586.94 622.82 748.65 587.56
00003817 00000146 412.95 145.36 416.20 616.59 515.34 411.38 707.80 371.89 643.71 502.63 573.53 621.98 739.31 588.54
00003818 00000147 408.87 141.58 413.15 617.35 506.22 409.47 696.47 370.09 632.63 500.59 564.36 616.52 733.66 583.57
00003819 00000148 402.43 138.50 413.99 618.93 502.02 406.44 690.95 369.58 626.69 494.91 559.29 612.10 728.12 580.96
00003820 00000149 393.42 134.84 416.35 624.20 495.26 403.18 684.02 365.57 621.68 492.13 549.05 608.37 724.55 576.18
00003821 00000150 386.43 135.27 414.01 623.29 488.28 404.31 677.27 366.20 613.90 491.97 538.91 605.18 719.18 572.70
00003822 00000151 365.07 135.91 423.55 616.92 474.38 409.78 665.72 365.42 601.24 494.85 522.08 602.59 704.55 563.93
00003823 00000152 347.60 135.72 431.32 612.27 454.08 413.88 649.07 364.17 584.48 495.51 506.75 602.43 695.78 558.78
00003824 DELETE   336.54 140.84 432.31 611.43 440.55 419.11 634.44 365.21 573.24 504.34 495.03 604.01 687.63 557.95
00003825 00000154 328.59 145.13 428.73 613.77 426.92 422.63 620.97 370.47 557.57 511.82 483.64 610.26 677.63 566.66
00003826 00000155 314.76 143.69 435.92 616.56 413.61 423.36 612.01 369.23 543.79 513.60 476.35 613.84 673.56 567.75
00003827 00000156 306.69 144.23 439.26 616.08 408.37 420.09 604.39 366.20 536.57 509.15 473.22 613.27 665.94 567.02
00003828 00000157 306.76 139.19 437.80 619.54 407.95 415.42 603.63 362.44 535.41 506.65 470.01 608.02 664.36 562.07
00003829 00000158 312.97 138.99 433.94 618.15 412.23 411.73 608.03 361.81 538.72 502.24 470.34 602.63 666.61 559.33
00003830 00000159 318.74 138.34 435.23 616.52 418.24 407.20 615.36 359.91 545.39 499.37 473.32 597.82 672.78 556.51
00003831 00000160 324.97 138.18 440.89 614.40 423.74 409.18 622.10 360.52 550.50 499.61 479.15 598.36 679.40 555.38
00003832 00000161 334.00 138.70 440.45 614.48 431.38 414.07 626.77 363.00 555.68 501.05 486.09 600.50 684.11 555.64
00003833 00000162 336.89 140.33 444.99 617.12 436.96 421.47 632.29 367.88 560.33 509.01 493.66 608.75 687.56 561.55
00003834 00000163 340.07 143.04 451.68 617.67 443.79 427.99 641.77 373.76 566.50 514.12 500.76 615.70 694.19 567.11
CROP_BBOX: 45 0 1128 986
