Video ID: 	z624pNAYDf0
H: 	2160
W: 	3840
FPS: 	29.97002997002997

FRAME INDEX X0 Y0 W H [Landmarks (5 Points)]

00080984 00000000 1892.73 355.80 552.53 736.13 2110.62 686.84 2346.47 670.33 2307.43 736.08 2190.94 924.06 2381.77 911.05
00080985 00000001 1893.86 347.02 551.46 732.24 2112.51 683.68 2344.25 664.41 2307.30 735.01 2191.68 918.03 2380.94 902.68
00080986 00000002 1890.03 349.38 554.96 729.50 2111.06 684.05 2342.61 664.31 2306.41 735.06 2188.85 917.71 2380.29 902.02
00080987 00000003 1889.03 348.38 553.24 738.05 2106.73 683.03 2340.14 668.95 2305.67 727.06 2184.98 917.06 2378.39 906.93
00080988 00000004 1885.45 349.31 559.72 732.40 2106.93 680.28 2337.85 663.38 2303.96 722.84 2183.64 911.49 2378.15 898.74
00080989 00000005 1877.67 341.87 569.42 741.82 2102.57 676.66 2335.95 659.56 2302.96 714.89 2183.73 908.32 2376.83 895.64
00080990 00000006 1874.24 342.17 568.97 744.05 2098.17 671.04 2331.00 654.45 2300.06 716.81 2178.96 910.23 2370.49 898.02
00080991 00000007 1873.34 339.51 569.45 742.13 2095.69 668.98 2331.51 645.75 2298.56 712.89 2180.12 909.37 2373.17 891.75
00080992 DELETE   1874.93 336.44 572.27 746.49 2094.73 664.55 2333.31 638.64 2293.90 704.64 2180.91 902.01 2374.16 882.01
00080993 DELETE   1859.65 322.13 588.36 768.93 2090.93 661.01 2331.17 634.11 2297.51 694.50 2182.95 900.91 2377.29 880.91
00080994 DELETE   1865.37 304.34 581.71 767.00 2093.69 651.76 2331.56 627.87 2299.68 689.54 2185.73 891.56 2376.20 874.51
00080995 00000011 1862.93 285.53 576.52 760.06 2098.31 642.35 2328.29 614.81 2298.79 687.56 2190.13 883.23 2369.86 863.37
00080996 DELETE   1868.87 292.20 568.22 743.09 2100.45 638.58 2328.81 611.27 2298.91 687.79 2191.71 878.52 2368.25 858.60
00080997 00000013 1870.25 290.27 567.21 751.82 2097.46 637.80 2328.46 610.36 2299.66 685.77 2188.81 883.37 2372.08 863.42
00080998 00000014 1873.26 288.33 560.31 739.15 2098.07 631.57 2327.28 603.44 2294.78 682.84 2186.95 873.17 2364.40 853.16
00080999 00000015 1877.64 295.00 560.45 730.24 2096.59 630.57 2326.75 599.73 2292.66 682.05 2190.12 874.28 2368.63 851.30
00081000 00000016 1877.54 297.42 562.81 722.17 2097.68 628.54 2327.26 599.83 2295.58 679.07 2194.06 870.50 2369.98 849.42
00081001 00000017 1877.27 289.48 563.05 723.06 2099.19 627.29 2328.33 596.78 2297.51 678.86 2195.51 867.69 2370.51 845.65
00081002 00000018 1880.15 290.27 557.92 716.43 2100.52 625.74 2329.51 595.23 2297.33 679.17 2193.87 865.21 2367.20 843.32
00081003 00000019 1883.53 277.27 557.02 729.55 2099.35 618.72 2330.19 589.84 2294.06 671.50 2191.86 860.83 2362.40 840.84
00081004 00000020 1889.08 289.53 544.14 699.51 2102.61 610.59 2330.68 584.05 2294.49 669.42 2189.79 850.29 2358.56 831.66
00081005 00000021 1883.90 272.12 551.01 720.00 2103.30 607.66 2331.97 579.51 2296.69 666.96 2190.72 848.67 2358.06 829.91
00081006 00000022 1886.33 287.11 552.08 714.33 2104.60 606.28 2333.90 577.94 2297.91 663.48 2196.34 849.75 2360.66 829.71
00081007 00000023 1888.85 286.06 553.90 715.95 2104.52 607.82 2336.48 576.32 2295.19 666.82 2195.75 853.26 2364.12 830.34
00081008 00000024 1887.02 288.16 554.03 720.29 2106.32 610.76 2337.25 578.63 2298.94 674.72 2199.84 860.23 2364.43 836.67
00081009 00000025 1892.50 286.06 552.49 721.99 2107.00 611.10 2339.54 578.53 2296.79 676.59 2199.40 861.40 2364.77 837.07
00081010 00000026 1885.51 276.74 561.66 732.27 2110.24 608.22 2341.17 574.35 2304.40 672.68 2207.62 860.38 2370.76 835.15
00081011 00000027 1886.59 275.44 563.06 737.47 2111.18 607.34 2343.95 576.04 2306.41 671.20 2207.08 859.82 2372.40 836.81
00081012 00000028 1889.56 276.28 562.98 739.53 2111.13 606.70 2345.32 578.23 2306.92 664.73 2208.72 857.51 2377.04 836.73
00081013 00000029 1887.84 270.56 568.76 750.14 2110.47 603.79 2346.58 577.71 2307.77 660.27 2211.38 856.90 2378.33 838.34
00081014 00000030 1892.72 272.09 567.20 746.26 2113.33 605.98 2347.10 576.50 2308.76 655.80 2216.54 853.35 2382.78 831.53
00081015 00000031 1889.73 259.44 573.33 772.26 2115.27 602.01 2352.46 577.12 2315.76 648.43 2217.55 852.49 2387.14 833.29
00081016 00000032 1892.57 260.98 572.84 781.64 2121.67 599.33 2355.26 574.63 2322.65 644.77 2225.32 850.36 2391.30 831.19
00081017 00000033 1901.78 279.72 578.64 767.52 2131.49 593.63 2362.97 575.06 2339.74 643.21 2240.03 848.83 2411.23 835.76
00081018 00000034 1912.86 283.75 571.67 762.35 2141.50 597.31 2375.55 568.50 2346.65 645.20 2268.07 851.00 2422.32 827.47
00081019 00000035 1916.08 284.45 569.64 763.01 2150.78 596.89 2380.30 570.07 2355.86 645.48 2276.04 848.52 2423.68 826.68
00081020 DELETE   1924.61 286.18 564.39 759.45 2158.48 599.26 2383.51 569.30 2363.96 653.12 2286.79 856.60 2429.35 832.96
00081021 00000037 1929.85 280.79 563.48 775.85 2160.46 598.36 2387.07 569.82 2371.80 647.51 2287.73 855.17 2433.49 833.24
00081022 00000038 1933.28 290.44 557.57 763.93 2161.59 597.24 2386.92 570.35 2374.04 645.81 2292.11 854.38 2435.15 833.92
00081023 00000039 1926.32 278.00 565.07 794.15 2161.66 594.64 2389.43 566.80 2378.16 644.75 2289.82 860.06 2435.78 838.88
00081024 00000040 1927.82 282.49 564.77 792.42 2161.57 596.26 2388.67 567.55 2377.06 645.46 2291.85 860.04 2435.98 838.19
00081025 00000041 1924.91 283.89 562.53 786.66 2162.63 597.04 2386.91 570.68 2376.01 649.01 2289.81 860.32 2429.37 840.50
00081026 00000042 1929.37 281.93 561.32 782.29 2161.32 598.11 2387.87 569.95 2374.57 652.45 2288.87 861.58 2432.84 840.35
00081027 00000043 1925.71 281.67 567.68 786.43 2159.82 597.88 2388.64 571.72 2374.58 652.70 2287.11 863.31 2433.48 843.64
00081028 00000044 1932.63 289.22 563.57 781.91 2160.01 598.70 2391.67 571.02 2375.39 652.28 2287.44 863.60 2436.67 842.58
00081029 00000045 1923.46 270.41 570.37 802.40 2157.83 596.07 2389.53 568.71 2371.45 653.27 2282.05 863.81 2432.39 842.95
00081030 00000046 1918.83 263.96 570.61 799.28 2154.25 597.35 2386.38 566.07 2364.98 658.18 2278.61 868.24 2428.30 844.12
00081031 00000047 1913.36 258.90 577.28 807.45 2156.57 604.92 2384.28 567.12 2364.79 652.77 2275.45 869.27 2429.94 840.16
00081032 00000048 1918.47 271.44 573.62 786.29 2151.34 606.91 2383.09 566.94 2354.13 657.23 2269.10 866.90 2431.86 835.07
00081033 00000049 1914.64 275.93 575.90 767.37 2141.60 604.69 2377.49 566.81 2348.62 660.07 2264.80 863.05 2427.22 832.34
00081034 DELETE   1908.70 276.21 583.46 778.39 2143.44 600.60 2372.62 567.04 2352.34 655.47 2257.95 864.01 2429.08 839.10
00081035 00000051 1905.28 271.80 589.99 782.89 2141.44 599.43 2370.90 564.08 2350.03 653.22 2261.65 864.40 2428.93 838.24
00081036 00000052 1901.54 272.09 589.96 769.67 2137.88 597.90 2366.06 563.48 2343.21 655.41 2253.55 859.74 2420.28 834.31
00081037 00000053 1910.17 267.71 574.04 773.33 2135.45 602.78 2366.67 563.27 2332.23 654.82 2246.35 859.03 2410.58 828.29
00081038 00000054 1909.85 253.09 572.35 775.71 2134.40 604.20 2365.00 563.99 2329.10 654.27 2243.84 855.98 2407.28 825.09
00081039 00000055 1907.61 253.68 579.37 779.08 2132.41 605.28 2364.13 562.30 2329.06 653.82 2245.02 855.84 2411.02 822.75
00081040 00000056 1910.40 252.57 575.73 774.84 2133.51 602.45 2365.47 562.15 2329.43 653.32 2244.69 856.10 2409.90 825.24
00081041 00000057 1911.35 252.59 576.19 779.10 2135.38 599.80 2368.83 561.48 2333.60 652.77 2245.71 859.78 2412.23 830.36
00081042 00000058 1911.12 251.42 578.80 784.46 2138.44 600.69 2370.76 560.14 2337.41 653.73 2251.83 859.70 2416.74 828.60
00081043 00000059 1915.82 262.77 583.33 775.43 2141.79 603.69 2373.51 561.05 2342.00 654.47 2260.25 861.19 2425.59 828.03
00081044 00000060 1926.46 260.82 575.14 774.83 2149.67 606.50 2378.35 561.42 2347.60 656.48 2271.63 863.76 2431.05 829.00
00081045 00000061 1937.95 270.59 566.79 759.00 2155.07 608.71 2382.16 560.97 2350.84 654.65 2278.60 860.05 2435.72 823.04
00081046 00000062 1936.90 271.43 567.73 762.90 2159.13 608.10 2383.77 559.62 2357.42 654.54 2284.84 862.50 2439.99 824.49
00081047 00000063 1944.18 273.42 561.70 766.24 2166.51 607.74 2386.36 559.25 2364.57 656.10 2290.21 863.63 2444.24 825.89
00081048 00000064 1946.87 269.54 560.81 773.91 2167.84 607.77 2388.39 556.42 2367.88 655.47 2293.75 867.92 2448.43 827.93
00081049 00000065 1946.70 266.27 560.92 777.51 2168.07 606.23 2388.69 554.89 2368.11 652.58 2294.08 865.56 2448.10 825.65
00081050 00000066 1947.66 260.61 557.97 786.85 2164.58 608.73 2387.65 554.22 2366.73 658.97 2289.49 873.29 2449.43 829.06
00081051 00000067 1944.09 263.67 560.39 780.32 2167.16 606.50 2391.48 555.23 2372.14 660.85 2290.93 873.77 2449.38 832.76
00081052 00000068 1948.28 265.99 556.53 781.86 2168.80 609.45 2390.26 557.56 2373.82 661.58 2291.83 873.48 2450.74 831.97
00081053 00000069 1948.04 267.49 561.08 775.14 2169.86 612.51 2391.72 557.65 2374.94 665.01 2295.32 875.59 2455.82 831.44
00081054 00000070 1941.88 270.71 570.66 787.19 2163.62 617.59 2389.23 559.04 2374.49 667.45 2288.91 882.48 2457.84 835.29
00081055 00000071 1938.44 271.63 572.96 787.65 2162.31 621.92 2390.44 563.80 2373.76 669.91 2288.08 889.27 2459.17 842.38
00081056 00000072 1943.94 284.27 576.80 780.18 2165.73 624.10 2392.79 566.61 2374.45 670.28 2294.43 889.78 2460.55 845.35
00081057 00000073 1943.70 283.50 577.04 787.33 2166.91 628.28 2393.13 572.62 2374.20 671.83 2291.34 890.42 2458.24 847.54
00081058 00000074 1939.75 287.84 572.86 778.53 2162.54 630.22 2387.32 566.02 2378.69 676.06 2291.10 894.85 2456.00 844.63
00081059 00000075 1935.10 286.21 579.50 791.08 2161.68 632.77 2388.98 569.38 2377.08 678.51 2292.21 901.88 2457.34 851.98
00081060 00000076 1934.95 286.68 577.91 785.43 2161.90 634.43 2386.52 570.63 2373.58 682.00 2292.46 900.08 2455.69 850.04
00081061 00000077 1932.98 280.41 578.76 796.59 2160.77 638.03 2385.12 575.42 2374.90 686.17 2290.85 904.77 2453.41 855.81
00081062 00000078 1934.32 280.84 574.97 798.94 2159.47 640.13 2385.65 579.48 2374.56 687.83 2289.62 909.45 2452.83 861.92
00081063 00000079 1934.71 282.05 574.80 794.56 2158.27 642.16 2383.79 583.96 2373.27 690.52 2285.56 908.01 2450.36 862.25
00081064 00000080 1933.53 280.91 577.96 808.47 2156.70 647.40 2383.74 588.05 2375.27 693.01 2287.35 915.49 2452.73 868.76
00081065 00000081 1932.99 285.66 581.01 803.14 2155.45 651.70 2381.24 591.46 2368.26 695.35 2286.52 915.20 2450.06 867.45
00081066 00000082 1928.11 288.21 579.35 793.26 2155.01 656.96 2377.44 594.94 2368.83 701.08 2283.74 915.83 2447.20 867.05
00081067 00000083 1925.73 287.66 581.40 802.63 2152.41 659.08 2376.96 598.48 2363.03 701.98 2282.97 918.19 2444.07 869.85
00081068 00000084 1929.45 297.63 580.40 804.17 2150.67 662.86 2381.76 604.25 2363.34 698.31 2284.44 921.15 2445.72 875.33
00081069 00000085 1923.57 302.05 591.21 793.92 2146.77 665.12 2380.63 604.97 2360.61 700.00 2286.16 922.66 2449.30 875.40
00081070 00000086 1921.83 298.67 592.23 801.20 2146.14 667.01 2381.08 605.46 2359.82 700.14 2285.67 925.24 2449.24 877.05
00081071 00000087 1920.98 291.04 588.90 799.71 2141.62 666.85 2376.50 606.33 2357.13 703.38 2282.51 927.30 2444.89 880.03
00081072 00000088 1920.56 292.61 587.27 807.40 2140.76 669.07 2376.98 610.91 2352.86 700.72 2273.75 927.26 2446.97 882.29
00081073 00000089 1916.83 303.80 591.13 796.51 2136.03 674.06 2371.47 612.88 2349.66 703.86 2276.63 928.13 2442.12 880.78
00081074 00000090 1911.42 305.48 595.41 790.45 2131.65 675.01 2368.28 616.64 2344.12 706.55 2271.44 928.98 2438.31 883.90
00081075 00000091 1909.95 307.65 596.75 785.23 2128.96 674.44 2365.81 616.13 2339.33 707.91 2270.98 927.82 2435.87 882.66
00081076 00000092 1908.37 310.05 594.71 777.02 2124.02 674.36 2362.16 614.92 2330.34 708.49 2262.35 925.28 2429.07 879.43
00081077 00000093 1907.26 312.69 593.50 777.58 2121.70 673.78 2358.30 614.52 2326.68 709.05 2259.23 924.97 2424.31 879.06
00081078 00000094 1906.07 314.15 586.12 769.67 2120.44 672.68 2354.95 615.52 2325.51 708.98 2257.58 923.73 2420.29 879.62
00081079 00000095 1905.98 314.43 586.66 772.04 2121.98 673.26 2355.79 615.41 2328.43 711.69 2259.33 925.11 2421.42 880.49
00081080 00000096 1909.88 318.81 579.34 767.24 2121.78 673.24 2354.86 615.24 2328.04 714.00 2259.34 926.18 2419.80 881.25
00081081 00000097 1908.45 316.87 576.88 769.68 2121.95 670.33 2351.49 614.98 2325.36 709.06 2254.02 920.36 2412.30 877.96
00081082 00000098 1903.83 312.44 580.75 778.19 2119.10 666.79 2351.01 613.72 2324.29 702.46 2249.96 918.57 2411.87 878.17
00081083 00000099 1894.72 311.40 591.06 783.02 2117.52 663.82 2351.34 607.71 2327.41 699.68 2247.26 919.69 2416.96 876.35
00081084 00000100 1890.01 304.74 597.40 784.70 2117.57 659.53 2348.69 600.00 2329.09 699.95 2248.68 916.94 2417.38 870.67
00081085 00000101 1896.23 307.63 594.52 784.72 2114.04 655.59 2346.13 592.27 2326.90 696.25 2246.13 916.85 2421.26 866.97
00081086 00000102 1898.37 290.57 589.53 802.67 2119.86 651.54 2353.98 591.07 2331.06 689.05 2243.82 911.80 2424.91 864.90
00081087 00000103 1899.39 288.59 594.52 814.79 2121.63 651.42 2357.66 590.72 2334.40 689.48 2246.08 914.58 2430.56 867.41
00081088 00000104 1900.39 287.70 600.59 812.28 2121.28 652.04 2358.70 589.38 2335.17 691.63 2249.00 915.15 2435.28 866.42
00081089 00000105 1897.82 280.45 604.93 822.15 2124.92 650.46 2359.87 586.76 2340.23 691.22 2251.28 914.48 2436.96 864.99
00081090 00000106 1901.73 276.06 596.11 823.65 2127.76 648.02 2360.87 586.14 2342.34 689.45 2254.29 913.53 2436.06 865.72
00081091 00000107 1905.20 269.10 595.22 835.13 2129.37 647.13 2364.39 583.28 2344.56 684.98 2261.35 914.50 2439.00 865.14
00081092 00000108 1912.27 272.21 583.94 812.50 2132.48 643.87 2363.05 579.31 2345.09 683.11 2264.42 905.29 2437.69 855.26
00081093 00000109 1916.58 273.84 585.55 814.36 2135.11 642.63 2366.99 577.31 2348.33 680.25 2264.90 902.36 2442.33 851.60
00081094 00000110 1918.56 272.61 584.68 811.08 2136.85 641.21 2366.87 575.74 2345.10 677.07 2264.44 896.88 2440.75 845.64
00081095 00000111 1922.42 272.76 580.29 820.34 2138.51 643.13 2368.66 576.46 2348.11 676.86 2266.25 902.27 2441.40 850.36
00081096 00000112 1925.62 280.89 577.21 806.15 2142.15 642.52 2370.61 579.09 2351.60 681.87 2268.04 900.84 2439.85 851.72
00081097 00000113 1926.60 280.12 581.85 798.86 2146.57 643.05 2374.54 578.74 2357.45 685.21 2274.30 898.98 2446.46 849.62
00081098 00000114 1924.28 287.15 576.88 785.01 2149.51 646.60 2371.89 574.14 2368.72 693.13 2280.59 904.62 2442.44 849.13
00081099 00000115 1932.33 293.85 575.75 773.75 2152.94 645.27 2373.30 571.76 2371.20 690.89 2285.93 900.27 2447.93 843.68
00081100 00000116 1929.86 287.20 576.40 775.40 2153.22 645.36 2374.73 573.10 2371.72 696.66 2286.70 903.58 2448.24 848.27
00081101 00000117 1933.96 294.66 568.23 771.42 2153.67 648.26 2374.54 573.84 2372.67 697.14 2286.70 904.49 2445.93 847.47
00081102 00000118 1936.50 287.37 567.38 773.15 2155.67 645.87 2376.52 574.23 2374.24 698.56 2288.31 904.41 2448.24 849.73
00081103 00000119 1937.34 282.97 571.28 776.47 2156.97 645.59 2379.02 572.94 2374.83 701.37 2288.44 903.20 2450.92 847.71
00081104 00000120 1938.27 281.58 569.50 784.36 2156.85 645.84 2379.88 576.18 2376.62 702.80 2285.79 906.88 2450.25 853.86
00081105 00000121 1937.63 283.71 571.65 780.26 2157.29 645.61 2380.22 575.68 2376.88 703.19 2286.32 906.01 2451.29 852.69
00081106 00000122 1937.30 285.95 570.49 777.89 2157.48 645.12 2380.18 576.53 2377.08 703.56 2285.72 905.64 2449.57 853.39
00081107 00000123 1936.90 286.84 577.11 778.58 2159.88 643.88 2381.84 576.47 2376.64 701.13 2287.86 903.51 2451.02 851.87
00081108 00000124 1938.03 290.03 579.32 778.91 2159.38 644.11 2381.46 576.14 2376.40 700.95 2287.51 904.09 2453.18 851.86
00081109 00000125 1933.28 281.31 580.44 799.21 2159.69 643.87 2381.90 574.55 2381.96 698.82 2289.60 907.02 2450.77 854.42
00081110 00000126 1937.22 287.79 580.15 788.88 2159.55 646.18 2382.36 578.08 2379.42 702.86 2289.30 906.74 2451.31 854.73
00081111 00000127 1936.37 286.37 576.23 790.19 2161.24 644.96 2383.22 578.73 2382.40 702.30 2289.58 906.34 2448.76 856.22
00081112 00000128 1937.00 286.92 576.24 793.05 2162.38 645.23 2384.81 579.39 2384.66 703.99 2291.81 907.97 2451.35 858.08
00081113 00000129 1940.11 284.23 574.74 800.63 2161.49 645.23 2385.74 584.42 2382.12 706.55 2289.23 913.72 2449.32 867.34
00081114 00000130 1936.46 288.00 576.59 801.12 2161.40 647.35 2386.13 585.42 2382.70 707.98 2289.38 915.94 2448.16 868.68
00081115 00000131 1939.09 288.86 570.32 797.98 2161.27 647.98 2384.96 587.06 2380.32 709.90 2286.83 915.45 2443.06 869.30
00081116 00000132 1941.26 289.92 574.72 805.94 2157.60 650.11 2384.98 588.61 2378.01 707.83 2282.33 920.21 2446.20 872.85
00081117 00000133 1942.13 280.79 576.36 826.68 2160.58 653.97 2388.65 595.07 2374.77 703.78 2285.95 924.77 2452.42 880.87
00081118 00000134 1937.44 288.77 577.30 824.19 2157.87 655.17 2385.79 598.02 2371.55 705.73 2283.18 928.33 2448.96 885.38
00081119 00000135 1940.93 287.97 573.12 812.04 2158.33 655.43 2385.08 597.59 2370.15 708.37 2287.20 925.53 2450.79 882.34
00081120 00000136 1937.96 290.91 568.23 812.33 2154.28 654.48 2380.57 595.47 2370.84 714.24 2280.92 928.74 2444.33 882.61
00081121 00000137 1937.97 293.37 567.54 807.33 2155.20 654.50 2380.26 596.18 2367.89 711.70 2281.54 925.90 2441.48 880.16
00081122 00000138 1938.94 292.68 567.93 803.76 2153.93 655.23 2380.99 597.01 2367.84 710.81 2279.83 926.38 2446.65 880.40
00081123 00000139 1932.59 287.61 571.15 814.53 2151.21 657.50 2378.43 597.54 2366.83 710.75 2274.18 925.16 2442.28 877.87
00081124 DELETE   1932.13 292.88 568.52 802.62 2148.24 658.13 2375.64 599.22 2361.37 714.63 2268.99 923.67 2433.82 877.46
00081125 00000141 1929.87 295.87 571.83 804.33 2148.47 660.57 2374.59 602.59 2355.67 717.99 2269.70 924.02 2429.28 878.19
00081126 DELETE   1929.84 289.99 572.37 827.91 2152.92 662.86 2378.18 613.81 2355.51 717.90 2261.71 929.01 2426.14 893.81
00081127 00000143 1930.92 300.74 570.03 813.17 2147.72 664.56 2375.86 613.88 2353.85 728.76 2261.05 932.99 2424.77 892.44
00081128 00000144 1927.13 302.37 562.05 822.08 2151.75 661.20 2376.32 619.06 2361.99 726.29 2260.34 930.43 2412.42 899.30
00081129 00000145 1922.22 296.39 571.96 833.61 2156.67 658.10 2380.42 616.98 2361.31 716.78 2253.45 926.06 2421.10 896.84
00081130 00000146 1924.34 306.47 563.37 824.19 2153.29 656.73 2378.91 617.69 2362.12 719.31 2258.34 926.29 2415.84 897.40
00081131 00000147 1925.74 307.03 562.08 820.33 2153.35 657.49 2380.06 618.81 2362.90 716.54 2259.98 924.71 2416.69 895.97
00081132 00000148 1918.88 306.03 570.70 811.81 2152.93 654.39 2377.97 618.45 2364.13 714.27 2264.76 919.97 2422.12 893.20
00081133 00000149 1915.46 308.39 575.91 805.95 2151.17 654.34 2378.81 617.24 2364.68 707.58 2268.37 917.13 2426.02 889.16
00081134 00000150 1913.36 315.01 572.69 798.69 2149.47 653.00 2375.88 617.13 2362.73 708.68 2264.74 919.04 2419.35 892.07
00081135 00000151 1909.23 303.50 578.47 814.91 2149.17 648.28 2374.70 615.49 2362.38 703.58 2264.24 915.24 2421.10 890.35
00081136 00000152 1911.94 306.89 567.47 792.08 2149.19 644.17 2371.65 612.12 2357.62 701.98 2259.04 906.89 2415.49 882.85
00081137 00000153 1918.89 304.27 551.10 778.88 2151.33 636.85 2371.00 606.08 2356.95 694.13 2266.29 895.73 2409.81 872.87
00081138 00000154 1920.34 299.52 556.27 792.90 2150.22 635.19 2376.38 604.42 2360.18 686.42 2269.76 894.46 2415.67 871.37
00081139 00000155 1921.90 304.55 538.24 745.43 2156.34 622.25 2372.53 602.81 2362.60 690.66 2270.25 877.29 2403.88 862.85
00081140 00000156 1925.73 302.81 534.06 743.97 2158.80 615.41 2377.02 599.40 2366.23 684.43 2269.99 872.34 2405.29 860.80
00081141 00000157 1926.14 302.07 535.37 746.54 2157.77 611.63 2379.32 598.04 2366.49 678.38 2270.91 868.85 2407.97 859.61
00081142 00000158 1919.65 310.91 526.78 726.11 2158.92 606.27 2373.19 604.79 2368.06 676.69 2261.85 863.32 2398.28 862.82
00081143 00000159 1912.91 315.10 536.86 726.09 2155.26 602.15 2373.77 603.79 2367.92 671.18 2258.54 857.85 2399.53 859.86
00081144 00000160 1912.72 315.98 534.33 723.31 2155.05 600.81 2372.51 601.70 2365.05 669.25 2256.20 856.46 2397.60 857.59
00081145 00000161 1912.30 321.09 538.61 709.94 2152.86 601.43 2372.89 602.72 2363.75 668.48 2255.19 856.46 2401.40 857.65
00081146 00000162 1910.15 318.04 545.76 706.90 2147.06 600.97 2370.81 603.81 2358.33 668.42 2248.88 854.09 2406.50 856.74
