Video ID: 	m6ph5_yysW8
H: 	2160
W: 	3840
FPS: 	23.976023976023978

FRAME INDEX X0 Y0 W H [Landmarks (5 Points)]

00104804 00000000 1879.68 231.68 878.31 1302.90 1989.07 735.72 2366.27 734.83 2086.61 968.37 2020.73 1219.93 2293.50 1222.29
00104805 DELETE   1887.40 232.82 871.47 1276.02 1995.01 717.78 2340.97 714.18 2064.08 930.55 2030.56 1187.40 2269.39 1186.55
00104806 DELETE   1885.64 209.38 858.89 1260.86 1988.74 692.53 2329.86 685.12 2046.72 903.11 2019.23 1169.01 2244.10 1165.08
00104807 00000003 1889.81 185.14 849.65 1279.95 1992.36 659.81 2323.64 662.66 2029.23 880.72 2013.03 1145.22 2227.26 1150.54
00104808 00000004 1888.66 198.95 868.02 1247.68 2005.10 653.18 2335.60 657.61 2028.65 869.21 2006.23 1130.74 2236.40 1138.32
00104809 00000005 1908.89 174.82 838.97 1271.78 1987.38 639.95 2320.55 651.54 2019.58 863.60 1989.28 1117.11 2221.90 1129.32
00104810 00000006 1894.15 173.61 836.65 1300.23 1971.57 636.37 2307.20 655.81 2014.40 877.05 1976.29 1127.65 2222.15 1147.16
00104811 DELETE   1876.85 183.14 840.92 1325.06 1944.07 654.72 2273.26 651.04 1991.27 879.54 1962.80 1158.52 2192.30 1159.99
00104812 DELETE   1841.89 184.63 845.69 1336.20 1910.69 661.13 2243.71 660.16 1952.74 900.50 1927.28 1179.03 2162.55 1183.74
00104813 00000009 1816.97 220.75 856.53 1325.12 1882.41 684.28 2213.99 680.52 1919.61 936.38 1916.23 1203.83 2158.27 1205.50
00104814 00000010 1783.25 241.67 873.94 1317.95 1869.28 698.32 2204.73 717.85 1910.99 971.08 1908.08 1221.05 2149.01 1238.84
00104815 00000011 1746.04 249.71 894.94 1322.65 1831.41 723.66 2198.66 743.01 1880.96 998.14 1865.01 1240.94 2132.72 1258.78
00104816 00000012 1719.88 255.04 914.51 1331.82 1812.60 735.86 2184.26 749.03 1858.92 1014.55 1848.75 1258.35 2123.81 1270.42
00104817 00000013 1709.32 261.98 910.68 1320.82 1794.11 749.67 2169.92 761.51 1841.30 1040.76 1836.04 1269.35 2109.30 1279.67
00104818 00000014 1693.93 282.23 907.67 1291.25 1778.94 762.82 2164.23 773.02 1836.77 1052.63 1817.56 1285.52 2082.01 1295.23
00104819 00000015 1684.82 279.01 905.25 1298.12 1780.49 782.58 2143.70 799.45 1834.93 1068.34 1823.11 1286.00 2075.69 1302.11
00104820 00000016 1681.38 296.09 907.34 1285.52 1782.90 797.66 2140.41 814.48 1840.17 1083.01 1829.05 1292.69 2079.12 1308.27
00104821 00000017 1698.93 316.09 905.37 1308.78 1778.78 810.90 2126.09 825.97 1843.73 1102.48 1828.69 1314.43 2074.43 1329.65
00104822 00000018 1702.83 315.10 907.55 1320.53 1783.95 805.65 2124.21 822.31 1839.11 1101.77 1839.62 1314.78 2085.76 1330.32
00104823 00000019 1718.62 289.03 890.86 1337.97 1796.73 810.69 2120.44 826.14 1835.25 1075.05 1840.64 1296.44 2084.99 1311.85
00104824 00000020 1706.25 273.88 914.96 1328.94 1809.15 770.94 2148.87 796.36 1843.83 1053.69 1849.94 1270.64 2114.01 1291.35
00104825 DELETE   1723.31 261.09 910.70 1336.92 1821.82 758.61 2179.35 783.01 1850.04 1031.00 1851.11 1253.02 2128.47 1272.84
00104826 DELETE   1746.13 259.14 908.42 1322.77 1849.92 739.29 2193.47 769.46 1890.99 1022.99 1876.70 1234.32 2155.64 1260.41
00104827 DELETE   1768.75 255.20 908.00 1316.28 1868.47 738.81 2215.65 763.43 1914.86 1012.53 1894.51 1226.96 2175.84 1249.79
00104828 00000024 1796.70 243.94 877.23 1301.18 1890.93 732.43 2239.29 758.17 1938.71 1001.31 1911.16 1220.58 2183.01 1244.48
00104829 00000025 1815.58 247.76 865.94 1271.43 1900.50 729.98 2248.89 754.34 1958.42 996.49 1924.04 1211.42 2184.54 1234.79
00104830 00000026 1819.07 244.45 864.85 1267.29 1905.47 726.14 2257.49 753.85 1965.85 993.55 1926.42 1201.51 2189.52 1227.65
00104831 00000027 1825.45 237.46 862.22 1277.17 1904.08 726.25 2258.05 745.46 1969.03 986.64 1929.47 1207.98 2191.20 1227.91
00104832 00000028 1821.74 230.76 861.39 1291.46 1905.14 708.75 2257.92 731.25 1970.01 973.50 1931.85 1200.45 2192.05 1222.65
00104833 00000029 1826.01 222.25 864.44 1302.30 1899.32 697.37 2257.98 710.59 1964.77 960.53 1922.86 1199.58 2185.78 1215.08
00104834 00000030 1829.10 228.48 867.08 1286.29 1907.27 679.96 2261.18 699.97 1966.10 949.91 1923.90 1182.56 2188.27 1203.57
00104835 00000031 1834.90 216.92 865.52 1298.65 1911.91 671.97 2266.11 686.17 1971.06 940.25 1930.18 1181.60 2196.67 1197.78
00104836 00000032 1832.56 212.93 868.68 1300.15 1912.45 667.73 2267.54 684.04 1972.27 939.77 1929.98 1176.59 2200.01 1194.75
00104837 00000033 1833.81 212.59 871.91 1298.94 1917.71 667.08 2269.94 682.69 1972.09 935.15 1933.90 1175.26 2201.75 1192.54
00104838 00000034 1837.74 221.62 871.52 1289.47 1920.51 667.86 2273.46 687.32 1973.95 934.87 1936.91 1177.78 2200.98 1197.90
00104839 00000035 1840.13 222.56 874.15 1284.92 1925.42 667.76 2278.34 689.60 1978.86 940.66 1940.94 1172.98 2209.02 1194.93
00104840 00000036 1847.64 222.25 874.95 1285.86 1930.46 671.09 2284.38 693.43 1983.73 940.91 1947.41 1173.09 2212.91 1195.17
00104841 00000037 1849.93 225.50 878.55 1281.11 1933.72 669.25 2290.11 694.97 1985.95 940.01 1947.79 1169.69 2215.50 1194.06
00104842 00000038 1852.04 221.72 875.83 1285.00 1935.78 668.35 2292.22 694.53 1989.24 939.20 1945.37 1169.06 2214.05 1194.21
00104843 00000039 1854.30 223.71 873.12 1280.13 1937.23 666.56 2292.49 692.69 1988.54 937.63 1947.61 1167.15 2217.97 1191.87
00104844 00000040 1846.99 215.67 870.50 1287.53 1930.95 668.49 2286.16 689.32 1987.63 937.26 1942.44 1169.36 2211.26 1190.71
00104845 00000041 1844.21 218.60 877.25 1285.26 1929.61 667.00 2283.73 689.83 1982.13 936.28 1940.91 1167.82 2209.27 1190.54
00104846 00000042 1841.60 216.57 870.34 1286.09 1928.59 670.69 2278.10 692.42 1979.40 934.99 1940.31 1172.38 2202.82 1194.18
00104847 00000043 1837.58 220.33 877.97 1280.45 1924.97 671.09 2274.73 692.86 1978.07 937.11 1937.74 1171.42 2198.45 1193.47
00104848 00000044 1836.61 220.46 872.04 1280.11 1924.51 667.13 2274.76 690.71 1977.36 941.36 1935.88 1170.29 2198.59 1194.00
00104849 00000045 1835.26 222.15 869.00 1278.04 1921.76 667.10 2273.24 692.79 1974.65 944.36 1931.63 1170.25 2197.40 1195.69
00104850 00000046 1835.48 222.36 868.36 1276.02 1921.61 667.08 2273.17 691.74 1974.86 944.20 1931.70 1171.15 2196.52 1195.76
00104851 00000047 1834.66 221.55 869.39 1277.20 1923.80 666.24 2273.38 693.22 1975.82 943.73 1931.96 1168.73 2196.24 1195.19
00104852 00000048 1837.59 220.83 875.63 1278.36 1925.13 668.21 2274.57 693.25 1977.10 943.98 1937.72 1168.46 2201.10 1193.14
00104853 00000049 1842.42 217.62 868.90 1286.65 1928.43 669.91 2280.68 691.78 1981.66 939.43 1940.24 1174.72 2202.92 1197.04
00104854 00000050 1845.32 221.35 875.29 1284.42 1931.24 669.35 2285.99 693.36 1982.40 938.60 1941.89 1171.08 2209.50 1194.71
00104855 00000051 1849.99 222.84 870.40 1277.08 1932.66 671.88 2286.16 695.68 1986.73 939.82 1943.66 1169.66 2208.18 1193.22
00104856 00000052 1850.63 223.92 871.88 1280.78 1934.86 671.96 2288.28 694.75 1989.94 941.63 1947.27 1170.35 2214.71 1192.87
00104857 00000053 1852.23 226.16 869.94 1281.72 1935.25 674.19 2290.21 699.88 1989.09 947.06 1948.37 1175.59 2213.51 1200.49
00104858 00000054 1848.41 225.12 870.41 1287.13 1936.12 677.13 2287.38 703.50 1991.04 954.00 1949.82 1177.19 2208.63 1202.97
00104859 00000055 1844.47 233.42 867.93 1283.14 1927.10 684.86 2285.99 713.72 1987.74 958.52 1942.16 1188.26 2202.57 1216.12
00104860 00000056 1834.91 237.89 869.16 1279.02 1918.43 693.80 2277.61 725.30 1976.97 969.51 1932.44 1194.53 2192.85 1224.69
00104861 00000057 1828.75 242.66 863.78 1275.49 1916.86 714.34 2267.40 742.31 1974.02 986.35 1942.02 1201.13 2193.29 1227.80
00104862 00000058 1821.08 244.88 864.48 1276.83 1910.18 723.16 2259.98 751.48 1967.07 994.29 1933.70 1207.78 2189.27 1234.40
00104863 00000059 1814.59 246.07 868.25 1286.22 1906.06 724.13 2258.81 757.51 1962.24 1002.93 1929.74 1212.72 2191.12 1243.22
00104864 00000060 1808.35 256.05 870.39 1269.73 1899.84 733.06 2252.93 762.52 1956.29 1004.92 1922.80 1213.21 2185.41 1240.04
00104865 00000061 1807.21 255.76 870.52 1260.66 1898.36 735.81 2252.04 769.19 1951.71 1009.73 1919.29 1208.98 2183.93 1239.25
00104866 00000062 1804.53 259.85 870.80 1262.35 1899.58 738.02 2255.47 773.79 1953.44 1014.70 1918.70 1208.59 2190.65 1240.57
00104867 00000063 1804.83 257.59 870.11 1257.95 1899.87 740.15 2257.17 773.14 1959.03 1015.21 1922.56 1209.41 2190.98 1239.33
00104868 00000064 1804.20 255.95 874.71 1261.65 1899.65 739.78 2255.38 773.15 1957.86 1017.68 1925.27 1209.52 2195.36 1239.51
00104869 00000065 1807.33 257.82 869.48 1266.11 1904.71 738.79 2260.06 772.09 1962.98 1015.30 1927.67 1212.58 2194.75 1242.72
00104870 00000066 1807.84 255.46 870.10 1271.59 1905.19 740.43 2258.87 770.60 1964.91 1017.06 1932.59 1215.49 2195.76 1242.80
00104871 00000067 1811.65 255.63 867.32 1271.94 1907.65 738.28 2263.88 774.08 1965.99 1019.59 1929.84 1215.44 2199.40 1247.60
00104872 00000068 1812.74 261.29 869.33 1271.63 1906.56 739.80 2264.53 774.98 1969.52 1022.98 1930.36 1216.10 2205.12 1247.73
00104873 00000069 1812.15 262.26 868.20 1273.44 1907.18 742.21 2264.12 771.93 1971.41 1022.70 1933.03 1221.95 2202.00 1249.34
00104874 00000070 1812.54 259.00 869.07 1282.49 1905.63 745.99 2267.18 775.97 1976.14 1028.93 1934.56 1226.07 2207.08 1254.03
00104875 00000071 1809.03 265.58 875.64 1284.07 1902.79 749.01 2261.63 774.86 1971.43 1032.88 1933.21 1233.98 2203.20 1258.64
00104876 00000072 1808.03 263.45 874.90 1284.02 1902.25 751.35 2263.25 776.80 1976.38 1036.58 1934.84 1234.85 2202.61 1259.05
00104877 00000073 1806.92 263.06 873.70 1280.10 1900.39 750.98 2263.81 777.59 1976.10 1040.05 1935.02 1233.16 2202.49 1258.12
00104878 00000074 1805.55 266.63 874.85 1270.53 1900.62 749.10 2264.01 778.81 1975.36 1041.78 1934.78 1229.75 2200.78 1256.84
00104879 00000075 1807.65 264.79 877.93 1277.32 1901.99 747.36 2263.43 779.75 1975.03 1041.18 1934.44 1228.41 2200.87 1258.09
00104880 00000076 1809.50 261.51 875.65 1278.87 1904.57 749.98 2264.17 779.48 1977.75 1038.37 1935.70 1230.70 2203.42 1258.10
00104881 00000077 1808.05 267.58 871.80 1267.86 1904.71 747.81 2266.43 779.46 1977.28 1036.42 1934.01 1226.85 2199.49 1255.90
00104882 00000078 1807.38 265.66 873.33 1274.27 1905.01 750.92 2264.77 778.81 1977.08 1035.42 1935.63 1230.70 2199.87 1256.80
00104883 00000079 1808.60 261.92 874.84 1282.50 1904.37 753.13 2261.44 778.47 1975.50 1034.50 1936.27 1233.01 2202.01 1256.86
00104884 00000080 1806.66 265.86 879.95 1280.30 1901.41 751.86 2258.41 780.35 1972.71 1040.28 1935.04 1234.16 2200.24 1260.35
00104885 00000081 1805.68 265.99 878.94 1284.12 1902.86 751.65 2260.44 780.44 1976.54 1040.18 1933.26 1236.24 2198.10 1263.15
00104886 00000082 1803.80 266.30 881.77 1283.77 1902.65 750.66 2260.96 779.85 1976.63 1038.61 1932.80 1235.34 2196.85 1262.52
00104887 00000083 1804.05 270.27 881.13 1280.94 1901.37 755.72 2259.55 782.69 1975.78 1037.72 1931.92 1236.39 2194.62 1261.90
00104888 00000084 1802.83 269.29 882.66 1284.26 1896.62 755.21 2256.88 778.96 1974.45 1045.69 1933.69 1243.37 2197.51 1266.34
00104889 00000085 1805.97 271.00 879.51 1288.23 1897.88 759.37 2257.36 784.48 1972.48 1047.70 1932.51 1247.76 2196.40 1271.85
00104890 00000086 1804.10 271.63 884.26 1281.52 1897.21 764.70 2255.06 787.06 1973.71 1051.43 1931.48 1250.95 2196.61 1272.83
00104891 00000087 1807.13 270.51 883.38 1296.77 1898.55 768.61 2259.75 790.80 1971.72 1055.66 1932.61 1257.07 2205.19 1278.60
00104892 00000088 1804.72 272.01 881.37 1292.84 1902.89 774.57 2259.37 792.84 1978.52 1056.67 1938.52 1260.12 2202.27 1278.54
00104893 00000089 1806.21 275.34 881.34 1293.22 1901.98 771.75 2259.91 793.99 1977.22 1064.36 1941.18 1261.53 2207.65 1282.75
00104894 00000090 1804.30 282.12 883.20 1286.62 1902.19 769.76 2262.20 797.05 1977.15 1067.11 1937.04 1255.02 2207.44 1280.36
00104895 00000091 1807.08 281.28 881.98 1282.23 1902.68 769.59 2263.60 797.44 1977.26 1069.21 1939.50 1254.33 2210.01 1280.11
00104896 00000092 1810.70 283.93 871.38 1279.02 1909.06 778.13 2255.60 810.08 1978.51 1069.76 1935.49 1248.86 2205.49 1278.17
00104897 00000093 1815.88 282.14 866.38 1282.34 1912.40 776.55 2255.28 811.76 1980.13 1072.85 1939.96 1249.11 2212.18 1280.78
00104898 00000094 1808.54 289.26 877.35 1270.55 1909.73 770.72 2264.24 801.69 1982.47 1061.01 1937.61 1245.21 2212.38 1273.32
00104899 00000095 1815.08 281.59 882.31 1284.30 1906.51 766.39 2266.88 794.55 1974.75 1058.75 1942.90 1251.89 2213.38 1277.28
00104900 00000096 1818.60 281.55 870.38 1277.35 1909.63 758.63 2268.66 791.09 1978.04 1052.38 1940.84 1240.82 2208.68 1270.29
00104901 00000097 1822.60 278.39 873.30 1277.56 1910.59 753.23 2268.71 782.17 1979.70 1045.48 1944.20 1238.69 2208.16 1265.06
00104902 00000098 1823.84 273.77 872.19 1273.89 1908.59 749.58 2271.17 779.46 1978.28 1045.64 1943.61 1234.17 2208.84 1260.90
00104903 00000099 1823.26 272.70 875.19 1274.54 1910.04 746.14 2275.18 777.56 1980.91 1043.92 1942.47 1227.54 2214.77 1255.42
00104904 00000100 1826.88 274.62 873.13 1283.69 1912.26 752.96 2271.20 776.60 1985.03 1045.05 1952.36 1244.53 2216.69 1266.68
00104905 00000101 1829.31 283.76 874.00 1280.74 1913.97 755.69 2275.32 776.92 1986.20 1047.15 1954.07 1252.83 2219.05 1272.85
00104906 00000102 1824.43 278.21 876.39 1288.75 1913.25 755.18 2274.61 782.96 1981.22 1051.51 1949.87 1248.67 2218.56 1273.97
00104907 00000103 1820.70 279.71 876.41 1288.69 1911.51 758.40 2272.52 787.39 1980.69 1053.94 1943.53 1249.08 2213.38 1275.86
00104908 00000104 1819.27 277.23 877.05 1297.49 1912.81 762.09 2270.05 788.86 1982.39 1056.20 1945.00 1255.02 2212.99 1280.16
00104909 00000105 1814.61 282.97 885.32 1295.01 1908.22 761.30 2271.64 789.58 1981.00 1060.81 1942.10 1258.71 2213.78 1284.76
00104910 00000106 1813.33 278.12 879.40 1298.33 1909.07 766.53 2270.48 791.26 1983.47 1058.04 1940.69 1263.31 2210.41 1287.13
00104911 00000107 1816.07 278.76 876.86 1300.64 1910.95 766.27 2274.14 792.21 1984.66 1058.28 1941.62 1263.76 2212.69 1288.55
00104912 00000108 1815.93 281.38 876.74 1292.27 1912.88 765.29 2271.45 795.26 1983.24 1061.23 1942.16 1259.37 2206.95 1287.19
00104913 00000109 1824.88 284.38 872.44 1284.27 1915.73 758.55 2276.31 787.94 1984.56 1059.39 1946.01 1254.74 2215.88 1282.14
00104914 00000110 1832.01 284.42 871.14 1281.64 1922.71 753.99 2282.33 785.10 1989.12 1053.56 1952.42 1247.47 2218.80 1275.93
00104915 00000111 1835.78 286.39 866.37 1284.20 1924.18 753.91 2283.62 777.50 1999.83 1048.76 1961.67 1249.20 2229.00 1271.36
00104916 00000112 1836.53 277.91 872.14 1295.62 1926.50 751.31 2285.36 773.78 1998.85 1044.69 1964.96 1248.90 2231.77 1269.82
00104917 00000113 1839.91 273.56 864.92 1294.72 1930.34 749.83 2288.81 770.89 2007.66 1038.33 1965.49 1245.09 2234.04 1265.37
00104918 00000114 1840.69 269.06 866.06 1305.46 1929.69 750.54 2288.78 770.48 2004.12 1036.31 1965.16 1248.24 2231.47 1267.59
00104919 00000115 1842.61 272.33 864.94 1305.90 1929.38 752.60 2287.98 770.52 2006.05 1036.39 1966.09 1250.45 2227.09 1268.58
00104920 00000116 1842.46 275.69 863.62 1306.17 1930.75 754.02 2287.33 771.45 2007.78 1036.31 1966.58 1250.03 2229.34 1267.91
00104921 00000117 1839.18 271.16 868.88 1312.73 1930.94 751.04 2290.17 769.86 2006.66 1034.31 1968.08 1248.86 2233.15 1267.44
00104922 00000118 1838.41 274.12 862.40 1316.74 1931.64 752.15 2285.99 766.42 2004.84 1027.98 1968.36 1252.54 2229.23 1267.68
00104923 00000119 1836.07 272.87 865.70 1313.28 1928.38 751.00 2284.82 769.03 2001.17 1033.00 1967.17 1252.53 2225.19 1270.86
CROP_BBOX: 960 0 3237 2068
