Video ID: 	i1QZDA1BFUo
H: 	1080
W: 	1920
FPS: 	25.0

FRAME INDEX X0 Y0 W H [Landmarks (5 Points)]

00035786 00000000 651.98 257.41 381.18 545.85 835.18 488.86 996.87 484.61 966.64 589.37 839.43 675.86 968.05 674.10
00035787 00000001 650.12 249.38 380.48 549.63 831.07 481.52 991.09 481.68 959.01 576.97 836.21 665.79 965.11 667.16
00035788 DELETE   643.40 242.89 378.51 550.44 822.82 470.45 978.96 469.98 950.37 561.02 831.12 655.71 958.16 656.05
00035789 DELETE   637.41 230.16 378.35 559.72 808.01 456.32 966.46 453.74 937.88 547.80 821.56 646.26 955.41 644.66
00035790 DELETE   622.87 217.60 383.93 561.84 796.50 446.45 955.00 438.81 929.34 536.39 819.00 638.98 947.21 633.00
00035791 00000005 614.12 207.04 384.76 559.52 791.23 444.52 944.53 432.23 923.73 531.32 815.38 630.35 941.10 621.76
00035792 00000006 614.54 199.52 380.51 556.72 784.83 455.55 943.63 435.57 915.86 540.66 814.28 630.50 943.16 613.95
00035793 00000007 613.25 204.64 382.01 552.40 786.31 461.78 943.36 438.57 918.20 546.42 815.27 633.39 943.06 614.31
00035794 00000008 615.39 215.33 382.47 550.93 786.93 463.01 938.28 438.19 924.17 546.05 812.96 639.91 942.26 622.32
00035795 00000009 615.84 226.15 380.52 548.94 782.37 468.42 939.93 445.82 920.12 554.65 809.27 647.55 942.47 631.30
00035796 00000010 614.28 233.60 374.47 553.30 781.19 478.29 938.12 459.49 916.51 562.52 805.91 654.75 935.76 641.35
00035797 00000011 612.89 243.04 374.40 544.41 785.44 481.05 942.37 467.43 915.12 572.54 802.71 659.73 926.85 650.82
00035798 00000012 609.86 244.98 373.06 539.81 785.37 483.64 941.18 470.07 913.33 576.69 801.88 660.31 925.24 651.37
00035799 00000013 604.25 247.55 377.21 534.95 784.42 482.07 939.28 470.49 909.90 576.97 802.40 661.33 921.61 653.49
00035800 00000014 596.96 245.93 381.71 535.17 783.94 480.80 936.65 470.88 907.25 578.19 800.81 661.92 915.54 654.90
00035801 00000015 593.86 249.79 379.65 527.63 788.82 480.28 936.42 476.90 907.42 573.15 798.41 656.62 909.57 654.58
00035802 00000016 592.36 247.22 382.52 527.51 789.35 473.27 936.64 476.45 904.91 567.92 793.81 649.17 906.05 652.63
00035803 DELETE   593.49 242.88 386.81 528.77 793.94 465.58 939.94 470.32 909.52 562.00 794.63 642.12 908.95 647.31
00035804 00000018 603.42 241.45 386.61 527.56 799.49 458.97 946.96 469.12 912.55 556.81 794.09 635.50 911.01 645.03
00035805 00000019 611.18 237.54 383.08 528.80 806.89 451.20 953.73 466.53 917.08 556.19 794.70 631.02 913.04 645.10
00035806 00000020 614.23 238.60 385.76 529.66 811.65 448.11 959.94 466.13 922.36 556.29 797.05 628.85 917.58 645.32
00035807 00000021 619.06 239.76 385.60 530.08 815.34 448.39 966.62 468.86 927.06 558.59 798.42 629.82 922.69 648.60
00035808 00000022 622.56 243.10 385.60 529.08 819.46 450.27 972.84 471.89 931.96 559.40 801.86 630.87 927.26 650.51
00035809 00000023 628.65 246.23 384.83 527.85 824.86 452.36 978.03 475.30 935.98 561.01 805.20 632.49 931.09 653.34
00035810 00000024 632.17 246.55 384.73 529.14 828.30 452.89 981.93 478.51 939.60 562.96 807.39 633.91 933.58 657.03
00035811 00000025 634.64 244.96 385.23 533.40 829.83 452.54 982.63 478.51 942.11 563.15 809.75 637.07 933.84 660.53
00035812 00000026 636.37 244.50 385.84 533.30 831.91 452.98 984.48 480.26 943.78 561.59 813.11 637.96 935.07 661.98
00035813 00000027 638.93 246.24 385.98 528.01 833.30 452.58 985.40 480.23 942.76 558.89 818.11 638.76 934.64 662.19
00035814 00000028 639.59 249.97 386.43 520.89 833.48 454.57 988.75 482.72 942.98 558.41 819.66 638.24 937.80 661.64
00035815 00000029 642.95 252.83 384.72 517.67 834.31 457.21 991.50 485.54 944.59 560.43 819.56 639.16 940.24 662.93
00035816 00000030 642.96 250.92 387.83 525.18 835.97 458.76 993.77 489.70 947.89 563.21 818.23 640.47 941.97 667.02
00035817 00000031 642.36 251.80 389.06 527.13 836.87 460.21 993.56 490.63 947.76 564.95 818.69 641.71 941.78 667.95
00035818 00000032 642.14 254.89 389.26 525.18 836.59 462.07 994.55 492.29 948.25 565.99 818.81 642.41 942.91 668.57
00035819 00000033 640.62 255.10 388.23 526.68 836.23 463.46 991.35 492.88 946.54 567.23 817.78 643.32 939.54 668.90
00035820 00000034 638.55 255.49 387.37 526.63 836.17 464.69 989.33 496.08 946.32 569.85 814.97 643.67 935.05 671.02
00035821 00000035 635.71 256.44 387.57 526.40 835.23 465.42 986.09 496.35 944.62 570.54 813.88 644.32 931.01 671.21
00035822 00000036 633.25 257.18 388.52 525.28 835.00 465.21 984.35 495.85 943.37 569.44 814.79 644.20 929.45 670.57
00035823 00000037 630.95 256.84 388.73 524.20 833.85 466.06 982.45 494.48 941.76 569.67 815.43 644.97 927.72 669.16
00035824 00000038 629.25 256.92 388.01 521.88 832.53 466.35 982.31 493.28 939.99 570.37 814.15 643.80 927.60 666.58
00035825 00000039 627.34 257.78 387.79 522.14 831.56 466.34 981.79 493.18 939.69 570.91 811.87 643.42 927.14 666.35
00035826 00000040 625.42 258.39 387.19 521.98 830.15 465.79 979.32 492.62 938.18 570.84 808.28 642.32 924.16 665.48
00035827 00000041 624.58 257.49 386.04 522.95 828.01 464.38 977.26 491.10 935.57 570.63 805.12 640.91 922.28 664.17
00035828 00000042 624.21 258.41 386.40 520.71 827.57 464.69 976.06 490.82 932.50 570.70 800.03 637.15 920.21 660.41
00035829 00000043 620.79 259.46 389.72 519.93 824.87 465.63 974.82 491.18 930.86 570.93 796.92 635.19 919.72 658.07
00035830 00000044 617.89 257.77 390.06 522.30 823.84 464.54 970.70 489.59 928.20 569.11 797.72 635.80 916.11 657.99
00035831 00000045 615.30 256.35 388.51 523.84 821.00 462.13 965.68 485.93 925.19 564.96 801.45 640.30 911.69 660.49
00035832 00000046 613.24 254.75 388.47 525.76 817.69 459.30 963.24 482.88 922.77 564.33 800.89 642.29 909.68 661.94
00035833 00000047 612.88 254.45 388.45 526.17 815.33 459.13 961.98 483.21 920.91 563.09 798.68 640.73 909.73 660.96
00035834 00000048 613.26 254.21 385.84 524.44 813.90 457.22 960.75 482.01 918.96 562.92 793.61 639.86 906.79 660.96
00035835 00000049 612.74 251.93 385.83 529.96 811.52 456.25 960.40 482.42 917.93 564.49 788.77 640.78 905.58 663.46
00035836 00000050 610.34 249.19 387.56 536.82 809.93 454.48 960.47 482.21 919.53 566.92 785.61 642.78 905.76 667.00
00035837 00000051 609.76 249.22 387.45 536.84 809.06 454.35 959.99 482.84 918.69 567.23 784.48 642.91 904.99 667.68
00035838 00000052 610.86 250.84 385.11 530.94 809.60 455.94 958.82 483.29 917.11 565.54 785.24 639.94 904.47 663.72
00035839 00000053 611.70 250.60 383.88 523.97 810.00 454.78 957.08 482.51 914.97 561.27 786.16 635.12 903.61 659.03
00035840 00000054 610.35 249.37 383.93 522.33 810.71 454.99 954.69 482.57 912.67 560.09 785.84 632.04 900.53 655.70
00035841 00000055 609.15 249.22 383.78 518.18 809.73 454.14 954.09 482.85 912.35 557.63 784.79 628.26 901.63 652.85
00035842 00000056 608.55 246.90 385.26 519.44 808.03 452.55 952.66 480.27 910.78 555.81 785.62 628.81 901.27 652.34
00035843 00000057 606.80 243.65 385.58 525.09 807.06 448.72 949.37 475.63 910.68 552.27 790.21 630.99 899.21 653.41
00035844 00000058 605.20 242.08 387.58 534.64 801.74 448.29 949.04 473.60 909.27 554.47 790.16 638.75 900.92 659.65
00035845 00000059 601.35 247.77 388.96 534.76 802.54 453.30 948.69 480.23 908.60 561.66 790.53 644.58 898.00 666.75
00035846 00000060 597.00 251.95 392.60 531.57 802.03 463.24 949.41 486.09 909.35 573.23 788.10 649.70 897.36 668.84
00035847 00000061 594.19 258.06 395.31 525.16 800.73 470.05 950.21 490.33 907.27 582.99 781.76 652.70 894.66 669.97
00035848 00000062 590.88 260.92 397.99 522.01 799.02 471.43 948.65 490.61 904.80 587.78 776.91 653.55 891.02 670.00
00035849 00000063 588.53 259.36 398.50 526.42 794.27 466.39 945.07 487.97 901.84 586.49 769.94 653.13 887.40 671.87
00035850 00000064 587.25 259.07 395.48 527.13 789.79 462.67 942.48 487.33 898.40 585.85 761.18 650.56 883.00 672.06
00035851 00000065 585.69 259.50 394.58 521.83 788.67 460.88 941.57 484.08 897.25 583.21 761.22 647.58 884.74 667.69
00035852 00000066 586.85 258.80 392.77 516.67 790.02 462.17 940.78 482.68 896.93 579.36 765.14 643.70 886.49 661.38
00035853 00000067 587.73 257.78 391.31 513.80 789.17 462.83 941.07 484.54 895.16 576.37 765.35 641.50 887.20 659.84
00035854 00000068 586.79 255.93 393.23 516.56 788.92 458.80 940.09 482.98 894.53 571.26 764.79 637.80 886.67 658.23
00035855 00000069 585.80 244.96 393.70 525.47 786.23 451.08 935.97 476.11 894.83 561.76 766.10 633.00 889.01 654.41
00035856 00000070 595.96 230.23 380.63 534.57 782.08 434.81 941.28 462.92 897.13 552.27 763.18 628.09 896.85 653.45
00035857 DELETE   585.40 217.72 377.79 535.86 767.71 417.67 927.40 443.89 887.29 529.03 756.07 613.67 886.16 637.36
00035858 00000072 570.92 207.22 387.41 537.09 746.93 406.21 912.28 434.38 867.63 512.44 740.12 598.07 875.95 621.99
00035859 DELETE   558.42 183.17 390.15 551.85 729.60 403.28 896.22 427.61 844.23 500.54 728.93 588.71 861.53 609.41
00035860 00000074 546.36 182.02 394.46 547.52 707.94 400.54 882.26 423.89 820.11 495.94 711.20 586.38 847.92 605.72
00035861 00000075 541.03 184.22 394.04 546.76 692.64 405.34 869.97 425.62 800.50 506.52 690.96 590.25 834.35 607.59
00035862 DELETE   535.65 199.38 397.09 543.33 681.12 416.36 858.01 435.56 781.19 525.20 676.94 598.93 820.72 615.98
00035863 DELETE   530.77 219.87 395.76 534.56 675.59 429.96 852.17 451.27 770.52 545.47 664.56 612.05 808.14 631.18
00035864 DELETE   534.47 238.82 391.96 524.68 670.16 447.06 850.23 471.74 771.77 568.98 661.42 634.36 812.80 656.47
00035865 00000079 531.39 256.07 398.95 534.05 675.96 465.30 853.16 482.70 774.71 584.62 663.14 652.24 810.01 667.34
00035866 00000080 533.41 256.02 398.08 531.77 682.07 471.01 857.29 485.68 781.89 588.72 671.83 655.41 813.85 668.28
00035867 00000081 534.44 253.74 396.68 529.78 686.40 469.54 861.30 485.43 786.50 585.10 675.34 651.30 817.25 664.97
00035868 00000082 535.13 250.00 396.62 531.77 690.95 465.06 864.26 483.86 791.64 578.39 675.64 644.67 820.14 660.82
00035869 00000083 536.89 246.54 396.29 534.74 695.04 457.08 867.59 480.15 795.97 574.02 672.90 638.10 822.05 658.04
00035870 00000084 538.34 244.16 395.74 539.08 702.72 448.69 872.11 471.73 803.84 573.56 676.91 635.58 825.52 655.72
00035871 00000085 541.34 241.89 395.18 541.29 709.05 444.75 876.53 469.18 810.15 568.91 681.25 633.87 828.18 655.07
00035872 00000086 545.47 239.09 394.06 533.44 713.63 444.05 880.13 466.77 815.43 563.63 690.69 628.34 834.29 647.89
00035873 00000087 544.26 231.56 396.39 525.18 714.07 444.54 884.38 467.78 819.85 560.47 702.67 621.99 835.66 643.11
00035874 00000088 545.92 229.07 396.03 526.40 717.02 443.38 886.85 466.30 824.09 558.62 706.42 621.18 839.33 641.84
00035875 00000089 552.56 231.31 390.83 533.62 722.78 439.87 888.33 461.78 827.80 558.23 703.46 627.78 842.33 646.65
00035876 00000090 553.95 229.39 391.47 537.43 725.67 438.44 890.67 461.93 830.87 558.80 703.77 625.84 844.84 646.43
00035877 00000091 554.93 227.86 392.14 542.30 727.12 436.16 892.30 460.60 832.93 557.80 704.04 624.93 846.58 646.56
00035878 00000092 556.66 226.96 392.03 542.65 728.48 434.44 894.00 459.29 834.70 556.92 705.19 623.66 848.10 645.79
00035879 00000093 557.48 226.72 391.64 540.02 729.34 433.91 894.56 457.63 835.29 556.33 707.23 622.25 849.42 643.46
00035880 00000094 558.45 224.57 391.00 536.21 729.83 433.46 894.80 455.57 835.42 555.60 709.31 619.72 851.01 639.47
00035881 00000095 560.62 224.76 388.95 530.35 729.84 433.46 894.13 454.25 834.98 554.86 710.97 617.01 851.84 635.70
00035882 00000096 561.52 224.74 388.68 529.40 730.32 432.67 894.68 452.63 835.67 553.78 712.35 616.58 852.79 634.56
00035883 00000097 561.73 224.51 388.51 530.23 730.44 432.38 894.45 452.20 835.77 553.44 713.21 617.12 852.62 634.93
00035884 00000098 561.90 224.87 388.45 530.17 730.39 432.03 894.59 452.63 835.76 553.43 712.80 617.18 852.71 635.69
00035885 00000099 562.49 223.90 388.61 533.34 730.86 430.68 896.03 452.62 837.46 553.41 712.67 617.76 854.78 637.51
00035886 00000100 563.35 224.52 389.14 534.93 732.56 429.91 898.00 453.41 839.54 554.02 711.63 617.43 855.66 638.80
00035887 00000101 565.71 224.46 389.63 534.16 735.44 431.34 900.78 454.72 842.92 555.19 715.53 616.95 858.28 638.20
00035888 00000102 569.91 226.08 389.54 534.81 738.64 434.25 906.59 458.21 847.58 557.26 722.53 622.05 863.69 643.51
00035889 00000103 574.52 231.28 388.55 534.26 741.94 440.09 911.32 464.86 852.46 563.15 729.46 628.93 867.78 650.78
00035890 00000104 577.91 242.34 386.54 528.45 745.54 449.46 914.04 472.48 856.41 567.69 736.60 638.62 870.49 658.93
00035891 00000105 581.01 249.52 388.17 521.82 749.91 458.05 918.50 480.26 860.50 575.05 742.16 646.77 871.19 666.49
00035892 00000106 584.84 251.93 386.98 523.37 754.37 464.14 922.75 485.55 865.77 580.75 746.22 652.80 874.55 671.93
00035893 00000107 586.24 251.67 388.01 525.26 755.81 467.11 924.25 488.36 867.10 582.06 746.41 653.70 876.08 672.77
00035894 00000108 586.37 253.56 387.87 519.20 756.48 465.44 925.41 486.65 867.67 581.73 746.76 650.96 876.69 670.05
00035895 00000109 587.62 250.19 386.78 520.12 755.46 461.65 925.94 485.16 867.07 578.61 745.94 647.47 879.07 668.29
00035896 00000110 586.57 249.84 384.97 518.52 755.34 456.67 926.61 483.16 867.78 573.76 743.25 642.30 879.17 665.75
00035897 00000111 586.13 247.37 386.23 522.39 754.68 453.61 926.11 481.85 867.52 571.60 739.44 641.53 877.57 666.73
00035898 00000112 584.91 245.83 387.15 526.60 755.61 454.23 924.30 482.56 867.55 573.08 734.70 640.14 875.10 665.97
00035899 00000113 583.72 246.25 388.33 528.18 756.41 453.48 923.47 482.61 867.77 573.52 732.05 639.25 873.37 665.97
00035900 00000114 583.70 245.75 387.29 527.71 756.74 452.39 922.46 481.76 867.50 572.84 731.92 637.69 871.98 664.62
00035901 00000115 583.62 244.11 387.23 527.59 756.98 451.43 922.10 480.50 867.29 572.60 732.86 636.16 872.20 662.74
00035902 00000116 584.35 241.72 386.29 528.05 756.85 449.75 922.06 478.77 867.22 571.25 734.21 634.91 873.05 661.25
00035903 00000117 584.53 239.19 384.46 529.95 756.99 447.59 921.57 475.86 867.37 569.69 734.64 633.46 873.17 659.16
00035904 00000118 584.09 236.74 384.15 532.21 757.05 443.67 921.92 472.98 868.19 565.87 734.79 631.53 873.55 658.03
00035905 00000119 583.47 232.35 383.31 537.25 758.08 440.59 921.03 469.57 869.74 560.60 736.93 629.38 874.48 655.31
00035906 00000120 582.10 226.30 381.08 541.31 758.03 438.74 920.10 464.05 873.88 553.70 739.95 626.59 877.74 649.50
00035907 00000121 584.75 219.80 377.58 541.93 760.74 440.40 920.96 458.13 880.30 544.81 746.29 624.10 881.81 641.15
00035908 00000122 584.97 213.77 373.19 544.35 764.33 432.42 922.80 443.67 890.14 537.29 752.66 621.74 886.85 634.36
00035909 00000123 582.84 208.51 374.51 548.50 763.12 429.00 921.26 438.50 893.36 532.02 755.66 620.39 890.08 631.39
00035910 00000124 581.54 208.53 375.66 553.66 762.10 427.15 920.46 436.89 893.45 532.52 753.55 620.70 889.69 631.76
00035911 00000125 581.29 209.23 377.20 558.75 761.41 426.85 919.99 437.97 892.55 533.15 752.30 621.91 889.47 633.77
00035912 00000126 581.38 213.43 376.54 556.42 762.25 432.19 920.01 442.16 893.41 538.30 749.93 623.67 888.45 635.07
00035913 00000127 580.67 216.18 375.71 543.70 761.74 439.07 922.19 450.02 892.01 542.67 749.80 622.52 889.31 635.10
00035914 00000128 580.76 218.14 374.86 535.96 762.74 441.50 923.66 450.94 891.42 546.32 753.50 622.05 892.37 633.54
00035915 00000129 580.64 219.72 374.24 532.53 762.46 441.60 924.19 450.64 890.94 546.73 752.90 622.16 891.71 633.44
00035916 00000130 581.81 221.28 373.13 532.77 764.25 442.40 924.12 451.88 891.48 548.76 753.37 622.80 891.44 634.50
00035917 00000131 581.79 223.14 373.07 535.30 765.01 443.45 924.31 453.36 892.26 550.75 752.11 624.72 890.18 636.68
00035918 00000132 584.23 226.58 372.85 538.69 767.01 443.75 924.39 454.58 891.71 553.27 753.79 629.73 889.30 641.87
00035919 00000133 586.35 226.37 373.05 534.24 766.90 443.06 930.16 453.95 892.48 553.13 760.16 636.46 891.19 648.19
00035920 00000134 589.42 227.55 375.76 531.41 771.65 447.07 935.02 460.20 894.15 554.24 770.73 642.01 896.07 654.48
00035921 00000135 592.89 235.97 376.23 528.62 777.54 452.80 938.52 468.44 898.20 556.71 781.72 651.22 898.22 664.86
00035922 00000136 601.13 239.53 374.00 529.93 787.56 455.23 947.08 472.49 907.30 561.44 788.59 654.18 903.19 669.23
00035923 00000137 605.60 242.66 370.44 521.43 795.69 455.01 954.34 471.34 917.32 561.76 792.50 648.25 910.40 662.97
00035924 00000138 603.19 239.76 372.51 518.10 807.19 452.80 945.95 469.56 921.36 561.74 803.18 629.92 909.31 647.34
CROP_BBOX: 314 0 1250 939
