Video ID: 	36WIdkwuWNE
H: 	1080
W: 	1920
FPS: 	29.97002997002997

FRAME INDEX X0 Y0 W H [Landmarks (5 Points)]

00014333 00000000 830.21 71.64 379.87 573.29 930.08 309.28 1113.12 303.58 1028.48 389.16 951.54 504.66 1107.09 500.88
00014334 DELETE   830.96 80.12 377.38 580.65 929.57 317.51 1114.16 313.80 1027.30 399.37 948.93 511.98 1110.76 510.69
00014335 DELETE   829.85 88.69 377.29 574.47 926.94 324.76 1112.19 324.17 1023.12 414.57 944.21 517.77 1108.28 519.52
00014336 00000003 830.58 95.99 375.61 564.29 924.68 328.58 1110.16 328.61 1018.89 418.15 941.83 521.13 1104.07 523.54
00014337 DELETE   830.04 94.39 372.95 557.21 923.89 323.16 1108.47 325.10 1017.06 411.80 940.52 516.11 1099.73 519.96
00014338 DELETE   828.36 84.62 371.27 551.79 922.54 314.44 1105.31 314.35 1016.83 399.29 940.80 506.63 1094.01 508.29
00014339 DELETE   823.72 74.30 374.71 554.40 920.78 310.41 1106.72 307.16 1011.45 391.08 938.18 493.96 1099.67 491.47
00014340 00000007 823.73 69.14 373.52 553.52 919.46 308.03 1106.20 305.82 1010.16 389.24 937.05 489.18 1099.90 487.55
00014341 00000008 820.09 73.21 375.39 556.88 919.74 310.09 1099.36 305.44 1009.01 392.02 942.14 496.32 1093.74 492.59
00014342 00000009 826.32 77.34 365.69 553.83 917.18 311.58 1101.98 307.55 1014.27 392.62 936.15 500.39 1097.51 498.45
00014343 00000010 824.43 80.61 364.71 546.73 914.95 312.55 1100.22 311.43 1012.07 395.51 930.29 497.17 1096.39 498.00
00014344 DELETE   816.52 78.65 370.80 544.94 912.09 312.52 1101.51 310.05 1002.81 395.05 928.06 489.87 1096.60 487.70
00014345 DELETE   815.83 74.59 371.33 544.16 909.83 308.59 1101.71 307.16 999.56 389.15 926.04 485.83 1095.93 484.67
00014346 00000013 814.91 71.86 372.87 550.85 909.21 307.13 1100.64 306.26 999.15 389.19 925.03 485.62 1095.90 484.74
00014347 00000014 820.00 75.63 367.20 556.25 910.50 309.60 1094.02 306.87 1007.10 390.71 928.33 494.79 1094.53 493.62
00014348 00000015 819.88 77.68 372.07 568.68 913.12 314.33 1096.61 310.43 1009.36 399.60 934.69 510.11 1091.83 508.24
00014349 00000016 820.88 80.43 374.23 566.57 913.79 316.97 1096.60 312.57 1008.81 402.50 936.36 512.06 1090.95 509.79
00014350 00000017 823.69 80.95 373.83 561.71 915.58 318.03 1098.68 312.41 1011.19 402.89 939.63 512.55 1092.68 509.26
00014351 00000018 825.46 79.49 373.13 558.64 918.29 315.72 1099.87 311.20 1013.54 399.04 941.70 508.67 1092.83 506.23
00014352 00000019 827.25 80.21 373.22 551.63 920.22 315.22 1101.42 309.53 1015.71 395.65 944.06 504.39 1096.18 500.82
00014353 00000020 827.45 81.30 373.44 548.32 920.77 314.97 1103.69 309.66 1016.89 394.44 942.01 500.65 1099.52 497.51
00014354 00000021 826.90 81.15 373.77 547.81 920.21 314.44 1103.20 308.56 1016.38 391.75 939.66 496.93 1100.31 493.33
00014355 00000022 826.26 79.96 372.89 547.92 919.40 313.68 1102.16 308.13 1015.45 391.32 938.97 495.83 1099.59 492.50
00014356 00000023 826.53 78.43 369.95 548.28 918.07 312.75 1100.65 307.46 1013.78 391.23 936.92 494.58 1098.65 491.65
00014357 00000024 825.88 76.87 368.81 549.65 916.42 312.63 1100.25 308.02 1012.68 391.57 934.57 494.15 1098.56 491.85
00014358 00000025 825.66 78.05 368.18 548.57 916.06 312.98 1099.61 308.41 1012.50 391.80 934.76 494.62 1098.09 492.51
00014359 00000026 824.62 78.38 367.10 549.37 915.39 313.62 1098.06 309.48 1012.15 392.73 934.37 495.18 1097.37 493.23
00014360 00000027 824.36 79.89 366.61 548.16 914.18 314.47 1096.11 310.64 1010.58 394.47 933.88 496.70 1095.15 495.12
00014361 00000028 823.23 81.96 366.99 546.41 913.66 314.81 1094.68 310.13 1009.49 394.79 933.91 497.35 1093.53 495.03
00014362 00000029 823.64 82.23 366.78 546.44 912.59 318.66 1092.91 313.80 1007.05 395.80 932.92 497.57 1093.50 495.09
00014363 DELETE   824.59 89.14 365.50 538.35 914.47 328.00 1091.53 323.32 1006.21 396.61 931.54 496.24 1092.11 495.11
00014364 DELETE   824.17 88.47 366.16 539.25 915.47 327.59 1090.42 320.96 1005.47 394.27 934.03 498.41 1089.02 495.48
00014365 00000032 823.02 84.73 367.22 547.00 914.27 322.68 1089.25 317.76 1005.24 394.00 934.75 499.48 1087.98 497.64
00014366 DELETE   824.08 83.10 366.37 551.16 914.56 318.75 1089.72 315.53 1006.60 393.51 935.90 500.72 1087.56 499.70
00014367 00000034 824.29 80.79 366.86 552.73 914.14 316.43 1092.27 312.12 1007.86 394.91 937.55 503.38 1088.97 501.21
00014368 00000035 824.37 80.41 367.48 553.51 914.46 315.13 1093.68 310.28 1008.96 394.59 938.60 504.43 1089.27 501.77
00014369 00000036 824.55 80.56 366.92 553.88 914.56 314.91 1093.97 310.51 1008.52 394.11 938.48 505.01 1088.93 502.79
00014370 00000037 824.13 78.75 367.12 556.85 913.79 315.07 1094.01 309.89 1007.78 394.03 938.41 506.49 1089.16 503.79
00014371 00000038 824.23 80.14 367.52 555.84 913.99 314.08 1094.29 308.10 1007.83 392.24 938.58 506.48 1088.98 503.10
00014372 00000039 824.04 79.65 367.05 556.14 912.43 311.91 1093.54 304.18 1006.20 388.41 937.42 504.87 1088.69 500.38
00014373 00000040 824.84 77.63 366.88 555.63 913.04 308.18 1094.13 299.80 1005.73 384.37 937.25 500.10 1090.60 495.05
00014374 00000041 821.27 70.10 370.52 565.69 913.96 306.37 1097.29 299.81 1001.17 385.10 935.90 498.82 1092.39 493.75
00014375 00000042 823.01 67.49 367.80 565.55 916.74 300.78 1099.01 295.55 1003.42 374.96 937.27 494.19 1091.47 490.64
00014376 00000043 822.97 64.18 366.73 566.75 918.48 298.50 1100.88 294.34 1005.56 372.33 936.65 491.71 1091.33 489.24
00014377 00000044 823.80 67.31 366.47 566.29 919.35 298.93 1102.51 295.75 1006.72 373.42 935.29 490.71 1094.38 488.86
00014378 00000045 824.22 69.02 367.12 569.89 919.64 298.02 1104.59 296.34 1007.69 375.68 932.06 490.41 1096.53 489.78
00014379 00000046 823.22 72.86 366.67 569.66 917.03 299.28 1098.91 293.51 1011.44 371.45 934.66 491.40 1096.82 488.78
00014380 00000047 820.53 75.21 368.95 575.05 916.86 301.51 1095.96 300.05 1008.27 375.37 929.23 490.35 1093.79 491.50
00014381 00000048 820.58 76.74 367.01 575.02 913.40 306.72 1091.10 307.68 999.22 378.27 921.92 489.13 1088.45 492.67
00014382 DELETE   818.08 83.52 369.27 564.94 908.61 316.87 1088.29 318.55 993.70 384.82 917.71 494.88 1083.98 499.20
00014383 DELETE   817.25 81.61 369.98 560.50 905.06 317.30 1085.84 322.45 989.77 391.96 912.78 493.86 1080.39 500.83
00014384 DELETE   818.45 83.78 370.76 558.51 904.43 314.49 1087.93 323.93 986.33 392.50 908.18 494.25 1078.41 504.63
00014385 00000052 820.49 84.50 372.00 564.89 910.91 315.62 1089.26 321.58 991.57 395.36 917.39 500.73 1077.74 507.90
00014386 00000053 822.74 85.33 374.63 574.86 913.23 317.71 1098.17 324.97 996.80 399.24 916.92 505.11 1088.14 513.65
00014387 00000054 821.17 90.42 378.59 582.05 917.25 317.46 1103.99 326.43 1005.93 404.40 918.88 507.22 1096.48 516.97
00014388 00000055 820.65 90.86 379.38 585.66 919.68 317.46 1106.79 328.71 1010.05 407.25 919.17 507.31 1099.55 518.67
00014389 00000056 819.91 90.77 379.33 590.09 920.62 318.45 1105.56 328.85 1010.85 410.04 919.12 507.47 1100.68 518.03
00014390 00000057 818.16 91.97 382.36 601.02 921.80 319.57 1106.22 331.92 1012.28 415.00 918.33 511.10 1101.56 522.82
00014391 DELETE   817.53 97.45 386.67 610.44 921.66 326.01 1110.23 341.42 1010.17 426.92 916.93 523.08 1103.35 536.24
00014392 DELETE   822.81 113.40 381.98 617.06 922.25 338.09 1112.44 354.91 1009.39 456.58 918.53 544.79 1103.65 558.92
00014393 DELETE   825.52 133.62 379.89 603.82 922.03 358.49 1109.97 368.81 1009.67 471.58 925.21 569.26 1094.77 578.11
00014394 00000061 826.60 140.00 381.36 593.00 920.97 371.55 1109.47 376.81 1009.70 477.60 928.50 578.50 1095.82 583.63
00014395 DELETE   825.18 127.34 382.02 582.34 921.55 361.19 1107.62 366.51 1010.05 469.86 935.07 562.77 1092.81 567.79
00014396 DELETE   825.08 110.72 386.96 570.39 921.59 349.18 1112.31 357.22 1009.92 456.83 934.74 542.58 1098.08 550.15
00014397 DELETE   827.00 100.57 385.75 564.31 920.26 341.08 1110.99 343.33 1009.08 439.27 937.14 535.37 1098.93 538.54
00014398 00000065 827.94 97.71 385.24 569.90 924.20 337.76 1112.40 338.54 1015.65 431.92 943.45 535.15 1100.45 537.26
00014399 00000066 828.68 98.93 384.67 568.80 924.31 336.56 1111.79 336.58 1015.00 429.81 945.21 537.30 1096.78 538.76
00014400 00000067 830.77 101.61 382.51 567.11 927.41 336.91 1114.18 337.44 1019.65 429.71 949.04 536.73 1100.40 538.14
00014401 00000068 830.84 103.87 381.71 559.35 926.19 337.32 1113.93 339.87 1018.36 430.07 944.33 531.33 1101.08 534.68
00014402 00000069 830.09 103.97 381.73 555.78 927.24 335.87 1111.55 336.42 1019.36 428.69 949.35 532.13 1098.39 533.76
00014403 00000070 830.74 104.77 379.36 549.86 925.01 336.59 1111.44 336.46 1017.29 428.55 947.82 531.44 1099.48 532.52
00014404 00000071 830.51 104.14 378.42 548.36 923.56 336.31 1110.51 337.05 1014.82 427.88 945.86 531.83 1096.98 533.75
00014405 00000072 828.92 103.10 378.79 550.61 922.68 336.49 1108.79 336.12 1014.32 428.98 946.54 533.74 1095.67 534.70
00014406 00000073 827.62 105.06 378.28 549.31 922.54 335.96 1108.99 337.90 1014.94 428.63 944.29 531.46 1095.91 534.13
00014407 00000074 827.22 102.69 378.53 551.31 921.21 334.68 1109.48 338.70 1013.45 426.21 939.57 527.69 1096.55 532.04
00014408 00000075 826.76 100.10 378.08 549.96 920.38 331.28 1108.17 335.79 1012.12 422.10 937.10 522.77 1094.68 527.74
00014409 00000076 826.17 97.20 375.36 551.83 922.47 325.42 1105.60 328.60 1015.28 417.32 939.38 517.74 1092.14 522.27
00014410 00000077 825.19 94.40 375.71 552.71 921.72 321.29 1104.17 322.41 1015.44 413.20 940.95 517.15 1089.21 519.84
00014411 00000078 824.27 91.56 376.17 557.08 920.66 321.51 1103.91 322.15 1015.25 413.40 941.16 518.67 1089.74 521.16
00014412 00000079 822.10 95.78 376.45 555.56 919.06 327.53 1102.00 329.05 1012.47 421.36 942.23 523.26 1090.69 525.83
00014413 00000080 820.12 99.30 377.46 554.27 916.98 333.92 1100.77 336.13 1009.96 428.11 941.63 529.18 1090.19 532.14
00014414 00000081 819.14 102.42 377.64 552.90 914.79 338.55 1101.23 340.56 1009.13 433.28 939.31 531.64 1093.26 534.25
00014415 00000082 820.18 101.16 376.24 554.55 913.58 339.16 1101.01 339.55 1008.53 432.77 938.42 531.19 1096.32 532.65
00014416 00000083 820.59 99.46 375.58 553.96 912.57 336.89 1100.54 336.81 1007.03 429.74 937.56 528.42 1096.17 529.37
00014417 00000084 821.52 96.95 374.70 556.53 912.96 335.37 1099.79 334.91 1006.59 427.06 936.48 525.77 1096.11 526.78
00014418 00000085 822.52 98.49 374.55 558.14 914.50 334.58 1100.69 334.46 1007.38 427.26 937.99 527.26 1095.91 528.68
00014419 00000086 822.69 99.05 374.66 559.30 915.32 334.36 1101.27 334.64 1007.65 426.47 937.78 527.25 1095.61 528.87
00014420 00000087 822.54 97.51 374.34 557.94 914.70 333.51 1101.70 333.99 1007.78 425.46 936.97 525.91 1095.66 527.86
00014421 00000088 821.68 96.86 373.53 555.44 913.87 331.91 1099.94 333.10 1006.84 422.64 935.33 523.00 1093.17 525.37
00014422 00000089 821.31 96.08 372.56 552.63 913.53 329.52 1100.12 331.96 1007.60 420.64 934.07 520.88 1092.17 524.44
00014423 00000090 820.10 93.74 371.51 554.93 911.16 328.87 1097.93 330.99 1005.77 420.48 931.84 520.73 1090.82 524.08
00014424 00000091 818.20 93.92 370.85 554.51 909.44 328.52 1095.46 332.47 1002.61 420.94 929.09 520.14 1087.37 524.74
00014425 00000092 815.65 94.71 373.11 556.93 908.06 331.06 1092.52 334.75 1001.26 423.00 928.69 521.73 1085.15 526.01
00014426 00000093 814.25 97.25 373.62 559.65 906.59 333.92 1092.36 336.58 1000.85 426.57 928.34 523.83 1088.56 527.24
00014427 00000094 810.92 98.57 376.27 562.83 905.98 334.24 1087.65 333.64 999.77 426.15 929.48 524.69 1086.19 525.32
00014428 00000095 808.93 94.37 375.78 563.13 903.38 329.73 1089.85 327.05 1003.38 420.78 927.57 520.95 1092.78 520.15
00014429 DELETE   810.10 83.25 368.73 553.80 900.05 317.71 1086.18 312.63 1002.33 399.06 926.86 507.74 1089.87 504.55
00014430 DELETE   798.26 67.25 374.53 554.60 899.75 311.11 1088.86 300.35 998.41 386.94 930.18 491.66 1093.52 482.51
00014431 DELETE   792.58 58.60 376.99 547.51 891.29 302.43 1079.46 290.95 990.75 364.48 926.27 477.37 1089.53 466.97
00014432 00000099 787.40 54.97 380.86 542.68 888.57 296.47 1071.95 286.99 989.55 357.13 925.74 468.11 1083.81 459.36
00014433 00000100 786.00 56.89 378.54 538.81 886.40 294.79 1065.05 286.43 984.14 356.01 923.68 465.51 1075.71 457.83
00014434 DELETE   787.45 56.91 374.15 541.65 887.60 297.02 1065.91 289.43 984.41 358.70 923.57 468.69 1074.39 461.71
00014435 DELETE   787.26 60.25 373.05 544.73 887.25 300.55 1066.68 292.37 982.74 362.88 922.88 474.51 1073.07 467.07
00014436 00000103 787.62 63.22 372.27 553.11 888.21 305.00 1062.62 298.56 979.73 374.30 920.65 482.46 1065.43 477.34
00014437 DELETE   796.46 78.19 366.95 550.45 889.13 305.57 1059.13 297.19 982.12 376.64 916.88 491.42 1056.99 485.94
00014438 00000105 788.89 62.97 372.01 560.75 887.95 304.74 1062.41 299.93 976.61 376.31 915.10 484.29 1062.31 480.70
00014439 DELETE   790.84 61.50 371.19 555.04 887.69 301.98 1064.56 295.69 977.15 367.72 917.88 481.30 1064.61 476.14
00014440 00000107 792.68 58.70 369.77 550.96 888.85 300.25 1069.71 294.36 980.74 361.35 919.04 475.56 1070.25 470.41
00014441 00000108 794.22 60.79 370.41 552.34 888.59 298.46 1073.98 294.13 981.29 361.28 915.13 473.42 1076.40 469.37
00014442 00000109 795.86 59.53 370.42 555.11 890.90 301.21 1076.31 296.72 984.65 363.42 916.97 475.21 1079.89 470.85
00014443 00000110 796.75 63.88 372.26 565.49 896.19 306.64 1073.21 299.02 988.11 372.18 922.68 485.49 1076.38 479.00
00014444 00000111 803.32 77.48 372.04 566.50 898.76 310.14 1072.44 299.98 995.10 377.68 924.51 494.81 1079.49 487.12
00014445 DELETE   804.76 75.68 372.69 571.56 898.38 312.65 1074.79 304.68 994.73 383.91 922.83 498.07 1081.94 491.72
00014446 00000113 805.38 78.79 372.21 566.84 898.44 313.81 1076.46 307.12 994.58 385.37 921.57 497.64 1083.65 492.14
00014447 DELETE   806.25 77.92 371.68 567.73 899.07 313.48 1078.19 306.89 996.01 386.58 922.79 499.06 1084.24 493.58
00014448 00000115 807.91 76.73 370.73 560.45 899.72 313.69 1079.25 305.78 998.66 384.80 926.28 498.61 1085.44 492.05
00014449 00000116 808.79 73.78 369.79 558.20 899.27 315.05 1082.21 306.12 1001.49 385.77 925.30 497.33 1091.07 490.23
00014450 00000117 805.74 76.71 370.05 549.40 902.03 315.33 1091.41 309.19 998.93 388.21 923.29 489.09 1093.89 483.52
00014451 00000118 805.74 76.45 370.79 551.88 903.85 316.22 1091.94 309.76 1000.68 390.55 926.50 492.70 1093.46 486.79
00014452 00000119 809.92 80.56 369.83 554.25 905.35 314.73 1081.18 305.65 1005.69 386.65 933.85 499.83 1085.91 492.28
00014453 00000120 809.90 80.56 369.27 557.27 903.83 314.31 1082.88 308.97 1003.95 390.07 930.58 503.80 1084.38 499.54
00014454 00000121 809.82 81.62 368.81 556.26 902.33 314.46 1083.38 310.76 1002.26 391.22 928.44 504.62 1083.94 501.67
00014455 00000122 808.65 80.23 369.92 557.55 900.56 314.20 1082.08 310.14 1000.96 391.27 927.34 503.95 1083.90 500.53
00014456 00000123 806.92 80.91 370.46 557.93 899.52 314.97 1079.37 311.82 998.18 392.32 925.64 504.70 1080.11 502.00
00014457 00000124 806.40 80.33 370.18 558.49 897.85 316.75 1078.87 313.15 997.86 395.63 923.31 505.84 1081.14 502.89
00014458 00000125 805.91 82.25 369.98 558.25 896.64 318.55 1077.63 315.87 997.17 399.16 921.26 506.18 1081.51 504.28
00014459 00000126 805.16 86.07 371.31 557.65 896.51 322.70 1075.42 319.71 995.37 402.50 921.83 509.92 1077.73 507.92
00014460 00000127 803.00 87.47 373.60 561.71 898.38 324.14 1072.72 318.69 996.51 408.11 929.21 516.31 1072.75 511.95
00014461 00000128 802.90 88.58 374.69 562.83 900.05 323.33 1073.99 319.93 997.56 409.15 929.26 517.25 1071.54 514.65
00014462 00000129 803.73 90.23 374.80 561.73 900.78 323.50 1076.72 320.43 998.57 408.79 928.93 516.89 1074.13 514.68
00014463 00000130 805.10 89.65 373.72 561.28 901.96 321.19 1078.41 318.24 999.81 406.41 929.44 514.77 1075.77 512.88
00014464 00000131 806.23 88.25 373.28 561.11 901.58 320.41 1079.53 316.64 999.54 404.20 929.17 514.04 1077.64 511.59
00014465 00000132 807.29 87.34 372.08 560.93 901.62 319.98 1080.98 316.16 1000.09 403.51 929.26 514.02 1079.09 511.80
00014466 00000133 807.78 86.43 372.17 560.61 901.58 320.20 1081.43 316.61 1000.11 403.34 928.80 513.43 1080.00 511.31
00014467 00000134 807.92 86.60 371.62 559.29 901.16 320.23 1081.37 316.57 999.65 403.97 928.51 513.82 1079.54 511.54
00014468 00000135 808.23 86.66 371.34 558.65 901.56 320.82 1081.38 317.78 999.93 404.54 928.34 512.97 1080.35 511.23
00014469 00000136 808.62 89.15 370.27 555.25 903.92 326.21 1079.60 326.24 999.43 405.21 927.64 510.74 1078.30 511.82
00014470 00000137 808.55 90.57 370.69 552.44 903.15 332.95 1078.73 331.45 997.59 406.41 925.93 511.31 1076.75 511.45
00014471 00000138 808.25 89.36 370.82 553.95 903.06 328.55 1079.92 327.68 998.82 405.29 925.76 511.18 1077.54 511.65
00014472 00000139 811.49 84.90 366.90 559.28 902.56 323.95 1082.35 323.44 998.37 403.88 925.58 511.06 1080.90 511.76
00014473 00000140 810.53 82.82 369.29 562.42 902.13 320.36 1081.69 319.31 997.92 400.86 927.15 510.82 1079.86 510.64
CROP_BBOX: 520 0 1493 879
