Video ID: 	KtJsZtz2dDI
H: 	1080
W: 	1920
FPS: 	25.0

FRAME INDEX X0 Y0 W H [Landmarks (5 Points)]

00002355 00000000 378.17 196.91 467.31 586.60 558.38 439.86 685.88 359.79 744.33 445.79 706.58 641.51 818.39 574.77
00002356 00000001 368.36 199.61 471.03 596.52 548.60 448.12 668.41 364.71 732.53 453.74 706.21 649.78 815.36 581.47
00002357 00000002 357.56 208.68 471.40 579.02 541.71 456.40 665.12 368.06 720.94 463.49 688.56 648.19 802.84 574.81
00002358 DELETE   350.63 211.08 467.57 573.60 534.98 458.90 663.36 375.93 711.15 467.04 678.30 648.33 794.96 579.08
00002359 DELETE   351.82 214.23 461.63 567.13 534.62 472.49 661.91 394.45 708.52 473.04 678.36 649.69 791.91 584.28
00002360 00000005 340.52 224.25 467.83 560.17 526.52 485.06 655.57 403.35 702.17 481.36 676.73 656.88 788.86 589.06
00002361 00000006 334.07 228.12 476.95 566.09 518.04 491.14 654.10 405.07 694.81 479.37 665.55 659.73 784.71 589.29
00002362 00000007 325.67 229.12 486.45 571.77 513.42 496.18 648.00 408.51 689.60 482.78 662.84 662.82 782.05 591.47
00002363 00000008 332.49 230.73 482.51 574.63 513.01 498.14 647.20 406.15 684.00 484.95 659.51 666.65 778.59 592.70
00002364 00000009 335.04 227.18 484.41 581.73 514.85 502.10 650.34 406.66 684.07 490.64 660.54 671.68 780.69 594.85
00002365 00000010 345.26 228.37 477.22 582.96 518.55 503.93 656.92 406.11 683.74 492.86 661.94 675.72 783.60 597.32
00002366 00000011 349.88 223.13 476.45 587.37 522.81 507.71 659.06 408.03 685.92 495.29 665.26 678.40 785.50 598.51
00002367 00000012 350.58 221.74 476.70 590.73 525.74 500.19 662.43 407.25 690.46 496.45 665.23 677.14 786.48 602.83
00002368 00000013 357.87 223.06 471.68 580.51 530.22 500.17 668.60 408.03 695.37 495.51 670.14 674.44 792.00 599.97
00002369 00000014 358.38 224.83 471.08 573.77 538.35 506.22 669.26 419.20 700.50 496.05 676.20 669.01 791.79 597.99
00002370 00000015 364.76 222.28 467.85 569.66 542.52 502.43 673.28 415.95 704.36 493.58 680.24 665.68 796.97 594.70
00002371 00000016 370.24 223.27 469.28 565.68 547.05 500.71 681.95 406.75 708.65 492.24 684.24 664.78 801.92 586.20
00002372 00000017 377.47 217.07 467.23 570.53 551.13 493.36 687.37 395.49 714.70 490.33 689.96 664.33 806.95 582.19
00002373 00000018 383.75 211.64 466.85 574.91 555.69 487.15 698.48 391.17 721.21 485.76 692.10 662.21 813.27 581.04
00002374 00000019 391.66 196.05 473.49 590.55 563.11 485.46 714.67 395.22 734.84 471.48 702.05 657.66 830.17 585.53
00002375 00000020 397.26 186.66 475.83 592.85 570.33 481.72 721.31 388.27 740.85 467.86 709.57 654.28 835.49 579.29
00002376 00000021 401.51 180.48 480.61 591.96 576.88 481.93 732.86 385.83 747.19 470.27 710.81 649.25 842.04 572.61
00002377 00000022 403.88 181.70 476.60 580.36 583.00 477.53 736.56 377.97 756.33 469.54 714.16 639.45 847.27 560.36
00002378 00000023 406.20 179.25 475.51 582.26 586.54 474.65 739.05 372.07 762.79 468.93 712.31 636.07 849.49 554.80
00002379 00000024 412.33 175.14 470.52 587.60 590.09 469.03 743.62 368.46 765.61 464.00 715.07 635.05 853.35 555.17
00002380 00000025 418.49 176.13 460.67 581.63 599.25 464.28 742.70 374.15 765.39 460.99 728.95 627.92 852.75 556.39
00002381 00000026 420.17 170.26 461.62 587.46 603.65 463.37 748.52 373.99 770.51 462.42 734.48 629.71 857.07 557.86
00002382 00000027 420.76 166.36 466.20 591.85 606.10 462.89 752.83 373.27 773.09 463.86 733.83 630.34 857.57 558.22
00002383 00000028 426.51 169.39 466.42 587.88 607.62 460.52 759.07 371.07 775.87 465.12 731.85 629.74 861.11 557.36
00002384 00000029 428.71 172.65 466.55 582.22 610.34 460.69 763.39 372.75 779.35 470.14 733.06 629.45 862.38 558.04
00002385 00000030 428.16 170.90 467.24 582.41 610.41 460.16 762.96 369.71 779.74 467.51 731.80 627.80 861.35 554.45
00002386 00000031 431.96 168.40 464.69 582.17 610.40 458.58 760.01 370.54 774.03 463.60 732.68 624.87 860.17 553.21
00002387 00000032 431.56 164.50 466.89 581.53 610.87 460.23 754.38 365.41 775.73 455.45 741.76 620.50 866.08 543.17
00002388 00000033 433.46 157.94 465.94 583.86 610.07 452.69 750.74 357.99 776.42 442.93 746.62 614.16 869.12 536.82
00002389 00000034 434.14 156.51 464.86 582.68 610.76 445.06 749.43 350.88 780.03 436.43 749.01 609.34 870.70 532.53
00002390 00000035 433.34 161.19 467.31 577.09 609.07 433.95 746.13 345.39 780.99 432.01 748.24 603.48 872.61 531.78
00002391 00000036 434.81 155.82 463.94 574.34 611.82 420.24 745.65 338.86 781.96 427.31 750.98 595.61 872.83 528.68
00002392 00000037 432.65 154.16 464.94 570.95 612.21 410.30 746.61 333.25 785.09 420.83 754.21 591.89 875.18 527.95
00002393 00000038 428.94 153.21 469.93 563.69 614.27 411.37 749.45 334.65 788.82 414.65 758.19 587.52 876.87 523.37
00002394 00000039 434.09 152.61 467.32 556.79 615.80 406.45 747.88 324.19 787.13 411.29 756.97 580.97 872.67 511.57
00002395 00000040 438.24 148.46 468.68 555.80 618.94 401.86 750.82 314.50 791.79 402.42 761.08 577.12 876.00 503.63
00002396 00000041 445.82 146.54 469.24 554.11 625.34 394.78 756.96 326.28 806.60 391.02 772.64 562.88 888.98 508.84
00002397 00000042 445.41 150.67 468.78 543.52 626.45 397.39 746.07 307.66 798.32 393.80 776.97 567.79 880.59 492.66
00002398 00000043 448.74 152.63 465.83 540.65 628.37 392.55 748.98 306.03 803.15 389.27 780.49 566.04 884.58 493.59
00002399 00000044 448.91 150.48 465.13 544.32 627.36 389.58 748.06 302.75 802.32 385.91 779.73 565.48 884.23 492.61
00002400 00000045 446.74 151.17 466.71 544.44 625.89 388.16 749.31 302.09 798.85 386.78 775.59 565.38 881.73 492.58
00002401 00000046 448.58 145.56 467.72 549.48 624.79 387.12 756.59 298.93 795.13 386.24 770.63 565.70 882.25 490.53
00002402 00000047 448.97 142.74 466.04 554.46 624.30 391.02 761.52 301.15 793.14 389.71 763.44 567.07 880.58 490.23
00002403 00000048 449.88 135.29 464.32 558.04 624.97 397.05 764.26 307.39 791.43 389.18 761.06 564.95 881.47 488.13
00002404 00000049 449.04 129.11 469.23 560.58 623.98 395.69 766.73 306.91 789.92 387.27 761.38 562.54 882.77 486.01
00002405 00000050 453.47 117.72 472.75 567.13 626.93 394.07 784.05 309.01 803.35 387.06 764.97 559.21 899.05 489.56
00002406 00000051 459.23 115.47 471.07 572.75 628.95 389.46 792.36 305.43 807.83 388.04 766.07 563.44 905.28 494.31
00002407 00000052 461.22 111.48 477.20 588.96 630.36 390.85 794.60 306.99 809.83 389.22 768.46 572.04 907.15 503.61
00002408 00000053 465.84 105.18 481.81 596.56 635.89 397.14 797.82 306.82 809.41 392.40 771.90 575.10 908.52 501.06
00002409 00000054 471.57 105.75 479.60 601.19 639.80 399.92 802.45 309.43 808.29 400.50 769.69 579.74 905.44 506.24
00002410 00000055 482.35 112.29 470.86 595.49 644.20 402.23 813.85 313.41 813.18 407.11 770.38 583.27 911.30 511.68
00002411 00000056 487.78 114.48 468.44 594.07 651.01 403.95 821.20 316.08 820.35 414.69 775.52 586.18 914.78 515.56
00002412 00000057 498.00 126.78 459.18 594.29 667.79 410.09 828.44 321.81 834.11 424.71 788.07 596.70 924.82 524.77
00002413 00000058 503.91 129.76 461.51 595.39 674.35 411.32 829.66 323.13 839.65 427.49 799.04 598.64 931.62 526.96
00002414 00000059 506.91 129.72 462.71 598.75 681.16 413.19 833.04 326.08 846.05 429.43 807.16 601.25 934.67 529.53
00002415 00000060 510.73 132.21 464.55 595.42 686.21 415.07 837.58 325.04 852.59 430.47 814.70 602.99 941.06 527.75
00002416 00000061 514.76 136.07 465.69 589.47 692.75 413.99 841.86 324.96 860.07 428.12 823.24 601.11 948.94 526.48
00002417 00000062 520.27 138.85 460.51 582.99 695.73 412.88 844.88 323.76 863.69 427.06 826.81 598.31 952.97 522.80
00002418 00000063 521.37 134.68 459.29 587.65 698.87 411.28 844.65 323.89 867.91 424.17 830.87 597.14 953.94 523.26
00002419 00000064 524.21 139.15 454.47 582.90 700.59 407.62 839.50 322.64 870.88 423.33 836.23 595.75 954.09 524.30
00002420 00000065 521.67 141.10 456.67 580.08 702.18 401.98 836.10 320.25 874.68 423.03 843.04 594.48 955.53 526.20
00002421 00000066 524.24 134.37 454.82 578.81 706.56 403.50 842.82 318.57 880.27 419.48 845.64 591.49 958.51 519.79
00002422 00000067 528.73 138.66 454.59 569.49 712.08 400.80 848.08 313.35 890.07 412.38 847.80 588.07 960.16 514.58
00002423 00000068 530.48 141.38 452.91 567.92 715.26 397.07 850.37 316.35 894.25 408.17 846.98 584.51 961.87 516.79
00002424 00000069 531.06 145.17 454.74 562.41 715.54 396.85 839.51 307.33 896.29 402.49 852.14 582.32 959.46 508.14
00002425 00000070 531.03 152.42 454.92 551.78 713.97 393.05 829.95 303.57 889.32 403.27 852.55 578.21 953.43 504.91
00002426 00000071 525.34 160.06 458.07 542.93 710.76 390.08 821.08 304.76 887.62 402.48 853.70 576.41 951.40 506.92
00002427 00000072 521.86 161.51 461.22 538.40 710.40 395.98 821.74 307.84 887.77 400.66 855.26 576.30 952.62 503.83
00002428 00000073 516.71 155.49 458.85 541.24 704.87 401.98 821.69 317.76 881.00 399.86 850.36 574.68 952.77 504.17
00002429 00000074 511.25 157.99 458.01 538.78 699.03 395.51 813.60 314.68 872.04 399.65 843.66 573.04 943.27 505.84
00002430 00000075 504.74 157.81 460.43 545.11 690.31 388.59 810.19 308.69 862.70 398.82 833.97 572.94 939.99 506.31
00002431 00000076 502.25 152.02 457.69 555.17 681.88 384.90 806.67 309.09 854.86 397.55 831.37 574.72 939.78 511.61
00002432 00000077 500.92 150.02 455.74 561.24 674.08 384.87 799.73 311.19 847.58 395.28 826.03 575.27 937.31 513.91
00002433 00000078 494.44 160.79 459.34 552.36 666.20 385.70 789.17 312.70 839.40 393.82 816.89 574.43 927.00 513.95
00002434 00000079 489.81 158.72 461.70 552.59 661.94 396.29 792.67 321.70 832.59 392.79 806.30 572.75 922.52 510.85
00002435 00000080 482.93 155.49 462.88 554.92 656.79 394.44 793.44 319.37 827.10 392.75 794.11 569.97 914.38 507.55
00002436 00000081 477.17 160.06 461.62 547.20 650.55 390.05 790.17 311.47 820.28 391.78 787.02 570.46 905.73 504.33
00002437 00000082 469.27 154.75 465.24 554.13 641.12 390.58 780.77 309.68 811.27 392.63 780.31 572.86 898.19 504.57
00002438 00000083 458.15 159.05 466.30 547.26 629.01 394.73 763.14 304.91 801.27 397.42 768.34 573.65 885.47 497.39
00002439 00000084 454.62 163.91 469.98 544.41 624.73 395.16 757.53 301.80 798.56 396.05 768.38 575.39 885.17 496.42
00002440 00000085 453.11 164.55 469.38 544.99 622.76 395.21 754.66 302.55 796.42 398.92 769.78 577.87 885.21 499.54
00002441 00000086 454.55 164.99 467.54 545.69 621.35 396.40 756.07 302.06 794.47 400.80 768.29 579.95 886.38 500.26
00002442 00000087 455.31 168.60 466.63 543.35 621.78 395.83 757.86 302.16 795.55 404.00 767.10 581.89 885.89 502.96
00002443 00000088 455.67 169.00 467.08 542.37 622.19 397.40 759.14 303.18 796.42 404.95 768.40 582.79 886.83 503.34
00002444 00000089 455.69 171.52 467.35 537.71 621.74 400.25 760.66 306.94 795.74 408.44 767.75 584.30 886.85 505.49
00002445 00000090 456.35 169.71 463.42 537.27 621.67 401.13 760.28 306.73 794.94 408.04 766.37 583.10 885.59 503.44
00002446 00000091 454.93 169.04 464.92 531.63 622.04 403.99 759.98 309.70 793.75 407.32 766.61 580.09 884.43 500.33
00002447 00000092 457.30 173.84 463.58 525.69 623.74 407.48 762.62 311.57 797.05 407.77 764.63 579.79 885.70 498.88
00002448 00000093 461.71 172.95 460.12 526.05 625.32 409.63 764.40 310.84 797.72 407.80 764.82 580.32 886.67 497.08
00002449 00000094 460.68 170.80 457.70 531.71 624.78 407.43 763.61 310.57 797.56 410.11 764.88 582.58 885.93 501.14
00002450 00000095 462.70 176.17 459.71 523.34 625.03 406.55 763.36 311.97 796.37 408.45 768.57 582.06 887.67 502.52
00002451 00000096 459.90 177.99 460.07 523.11 624.79 405.45 761.62 310.76 799.93 409.59 774.04 582.12 890.73 502.98
00002452 00000097 462.26 180.32 457.52 519.47 626.64 406.19 762.80 310.93 802.31 409.49 775.57 581.90 891.75 502.58
00002453 00000098 469.63 184.39 459.54 516.22 635.27 396.57 771.61 315.26 811.75 403.32 793.45 579.08 901.13 511.56
00002454 00000099 474.42 191.74 465.27 519.30 639.01 399.43 774.34 317.06 814.69 408.13 798.08 583.35 908.26 514.95
00002455 00000100 474.14 186.67 475.52 542.62 643.58 400.15 774.49 320.07 820.65 408.92 802.08 586.35 914.86 520.18
00002456 00000101 477.95 194.53 482.72 551.80 646.73 395.12 768.16 319.17 825.95 406.04 813.24 591.74 922.95 529.11
00002457 00000102 484.64 190.48 477.34 553.77 657.86 385.13 770.47 316.83 838.33 398.90 824.61 584.80 928.72 529.09
00002458 00000103 484.00 194.10 485.46 543.21 665.21 379.06 764.89 314.30 854.46 381.36 835.48 571.21 935.52 518.44
00002459 DELETE   502.54 191.53 465.25 521.44 673.54 371.27 779.02 302.02 863.15 372.49 835.96 565.22 938.86 508.58
00002460 DELETE   500.12 199.91 473.33 481.82 683.39 375.68 777.44 303.09 868.35 366.63 846.58 550.34 934.28 491.64
00002461 00000106 495.85 201.95 479.57 472.26 687.82 371.40 769.83 304.95 873.65 356.77 852.46 541.08 928.14 489.12
00002462 00000107 493.47 212.40 484.31 463.31 690.82 368.93 765.34 307.37 874.75 356.87 851.79 536.57 920.95 488.89
00002463 00000108 489.79 212.79 492.92 466.73 694.26 369.94 766.56 304.54 875.25 355.46 848.76 535.70 917.31 485.23
00002464 00000109 490.99 216.62 493.42 462.27 694.50 370.15 765.29 305.46 876.00 355.52 849.59 534.92 917.20 485.22
00002465 00000110 492.54 220.98 491.26 458.06 693.63 368.05 763.62 304.83 877.75 354.03 850.13 533.76 917.84 486.22
00002466 00000111 491.97 220.21 490.20 458.44 693.77 370.00 762.21 306.31 878.02 357.21 851.09 535.43 916.88 487.85
00002467 00000112 495.95 215.55 487.64 461.39 696.61 374.45 767.10 310.38 876.48 359.63 851.95 536.17 918.58 487.52
00002468 00000113 494.79 218.44 487.75 463.19 697.75 378.95 769.66 315.29 875.15 359.84 852.17 538.33 919.58 488.98
00002469 00000114 491.44 213.33 488.76 475.80 697.86 380.11 771.47 317.67 873.72 363.51 853.68 543.97 922.25 494.69
00002470 DELETE   496.03 209.27 484.37 486.39 691.27 387.14 771.44 315.74 870.00 370.98 851.27 554.92 925.12 497.77
00002471 00000116 492.82 205.51 486.32 502.22 683.32 390.64 768.98 316.83 863.99 377.99 845.72 562.21 925.10 502.25
00002472 00000117 484.03 203.91 493.21 507.33 673.55 392.26 766.31 315.14 854.23 380.97 840.80 567.25 927.10 503.79
00002473 00000118 475.55 196.33 487.02 524.03 666.94 395.36 763.37 318.13 850.54 391.22 831.52 576.12 919.55 513.97
00002474 00000119 476.55 196.56 488.03 523.66 661.58 407.24 769.39 322.60 847.60 406.35 828.14 585.12 924.80 516.69
00002475 00000120 483.76 201.51 478.10 513.86 663.16 423.98 781.92 340.89 844.11 414.32 823.15 590.86 927.98 523.65
00002476 00000121 486.89 199.54 478.10 520.72 662.03 434.89 785.25 343.56 840.67 423.21 824.49 599.64 932.83 525.82
00002477 00000122 489.15 198.40 475.89 538.58 659.52 449.18 788.67 347.69 835.57 434.06 814.97 611.39 930.12 529.27
00002478 00000123 491.63 202.99 464.66 545.49 672.52 453.54 795.37 357.54 840.70 450.22 815.84 629.69 922.11 549.51
00002479 00000124 498.33 198.77 458.71 558.88 676.67 464.01 803.89 361.28 841.86 465.97 817.13 642.63 926.07 557.47
00002480 00000125 505.22 194.83 449.16 568.10 684.65 469.68 814.34 368.19 848.79 475.43 823.22 646.82 930.64 562.29
00002481 DELETE   514.51 181.65 444.16 584.29 688.54 473.96 825.08 372.13 851.27 483.44 819.22 649.07 932.85 563.94
00002482 00000127 522.87 182.67 453.55 590.61 696.18 483.28 833.76 376.75 856.82 489.25 831.52 658.06 944.23 568.40
00002483 00000128 525.60 181.32 454.34 591.83 697.22 484.25 838.37 378.24 856.64 491.84 832.10 659.99 943.95 571.05
00002484 00000129 524.10 193.23 453.22 578.49 694.38 481.80 843.61 386.40 857.76 491.78 824.03 653.49 940.79 575.18
00002485 00000130 533.12 180.18 443.73 589.08 699.22 479.20 841.45 376.68 854.24 492.51 827.58 657.50 939.57 571.71
00002486 00000131 530.14 178.34 449.77 592.83 702.00 475.61 839.93 377.44 856.27 488.43 830.59 655.29 938.91 573.53
00002487 00000132 530.00 178.28 451.93 593.64 700.46 475.24 838.58 375.24 856.67 486.95 834.45 658.14 941.59 574.71
00002488 00000133 521.31 185.63 461.09 588.33 692.08 475.74 839.27 381.98 854.40 485.01 825.36 651.69 939.85 574.42
00002489 00000134 521.18 183.18 461.15 588.92 691.37 476.74 838.09 382.73 852.00 484.35 823.22 649.98 938.15 572.67
00002490 00000135 521.47 182.74 457.52 590.35 690.02 476.28 836.98 382.69 849.70 483.78 819.36 650.46 935.33 573.45
00002491 00000136 521.00 181.06 452.56 586.68 686.88 475.42 835.99 380.89 846.21 483.95 812.24 646.44 933.61 568.55
00002492 00000137 517.31 180.29 447.66 583.21 682.42 476.33 832.42 383.67 840.56 486.47 804.51 646.03 926.08 570.55
00002493 00000138 511.07 178.21 444.77 582.93 675.20 474.66 827.75 383.53 834.86 490.09 798.96 648.35 921.01 574.48
00002494 00000139 506.53 178.30 445.19 582.81 665.89 476.01 819.57 382.76 822.66 494.08 790.84 650.01 914.55 574.96
00002495 00000140 491.88 180.73 455.70 587.32 656.44 481.81 810.28 385.10 818.75 494.78 785.43 655.81 910.25 577.77
00002496 00000141 486.30 179.87 454.99 592.37 647.81 484.75 802.21 384.05 808.48 497.31 776.44 657.38 903.63 575.96
00002497 00000142 484.41 180.36 448.05 594.61 641.66 486.69 794.39 385.55 799.23 497.93 769.88 661.02 893.91 579.29
00002498 00000143 466.13 184.25 454.48 590.01 630.93 491.25 778.08 386.25 792.24 499.20 756.65 663.44 877.07 574.89
00002499 00000144 461.23 194.74 450.12 582.91 625.43 493.49 772.60 386.79 785.14 501.87 750.21 666.23 871.37 576.60
00002500 00000145 458.35 203.44 449.22 576.51 622.55 496.70 768.58 387.75 784.99 503.99 749.18 669.36 869.84 578.27
00002501 00000146 456.58 208.89 445.13 572.31 620.33 503.60 765.37 394.30 783.65 509.13 743.87 672.60 865.70 581.50
00002502 00000147 453.12 213.26 445.59 574.38 617.73 506.80 761.62 400.23 780.65 513.71 741.81 676.38 862.32 588.02
00002503 00000148 449.55 212.70 446.09 585.18 614.48 505.71 757.91 405.45 773.82 516.10 735.81 679.96 857.35 597.67
00002504 00000149 449.35 210.64 444.14 587.13 614.94 498.35 756.99 396.46 774.50 516.02 739.30 680.42 857.90 595.78
00002505 00000150 447.82 211.29 446.28 587.31 613.28 495.54 755.74 393.97 775.02 513.32 739.98 680.12 859.04 595.84
00002506 00000151 448.27 209.02 448.27 587.37 614.59 493.82 756.42 390.87 776.77 509.58 740.80 677.05 861.60 591.44
00002507 00000152 448.33 206.49 446.71 584.69 618.19 492.87 759.01 390.59 782.35 507.35 746.30 673.71 865.02 588.58
00002508 00000153 448.89 206.30 451.03 583.90 621.47 491.04 761.57 389.15 789.08 504.62 752.17 672.01 869.46 586.84
00002509 00000154 451.12 205.18 453.14 583.95 628.04 486.44 763.18 387.44 795.37 500.33 762.54 669.40 872.57 586.92
00002510 00000155 457.37 205.03 447.86 581.24 633.51 483.59 765.50 388.17 797.33 499.51 769.56 668.91 872.83 589.56
00002511 00000156 457.64 199.33 449.35 584.56 636.96 479.24 769.45 382.19 798.76 499.72 768.32 666.48 873.19 585.74
00002512 00000157 456.66 201.59 450.48 580.64 636.00 477.39 766.47 381.19 797.78 496.46 770.16 664.53 872.67 584.45
00002513 00000158 460.43 202.89 444.67 574.48 635.23 477.19 767.73 380.37 795.08 496.48 767.90 663.18 871.56 582.29
00002514 00000159 450.84 202.74 447.36 571.89 630.69 478.35 765.26 386.93 790.93 495.07 759.72 659.77 864.23 583.45
00002515 00000160 446.09 204.48 450.77 572.65 626.39 478.48 762.51 384.99 793.80 492.30 759.65 660.16 868.76 581.88
00002516 00000161 443.22 206.26 454.45 570.34 622.27 475.63 759.13 377.22 790.84 490.86 752.92 659.60 865.61 577.29
00002517 00000162 441.86 205.32 451.31 567.62 619.56 471.43 755.84 373.45 786.52 486.31 751.73 656.91 864.13 575.03
00002518 00000163 442.42 205.84 450.46 569.53 619.16 473.09 752.23 378.08 785.55 483.89 749.01 655.29 862.35 576.40
00002519 00000164 439.40 208.57 446.66 571.39 617.73 473.30 746.74 387.20 783.81 480.95 747.08 652.21 858.12 580.72
00002520 00000165 433.04 207.80 449.42 574.42 613.21 465.85 748.80 385.26 781.65 481.50 736.44 651.33 855.84 584.15
00002521 00000166 429.18 207.65 454.53 574.18 607.05 457.80 742.17 371.97 778.10 472.06 733.08 647.83 854.87 576.17
00002522 00000167 430.06 210.74 453.45 567.01 604.41 455.04 738.61 369.02 775.95 465.86 733.82 643.49 855.48 571.46
00002523 00000168 429.62 212.58 455.62 564.40 604.09 453.51 737.65 365.79 775.59 462.65 732.29 641.91 853.18 568.85
00002524 00000169 430.35 215.76 458.02 555.26 604.39 450.46 733.83 366.29 776.19 456.12 738.69 637.24 854.80 567.29
00002525 00000170 429.55 215.33 460.28 554.89 603.16 449.01 732.42 365.56 774.44 452.28 738.67 634.82 855.00 565.51
