Video ID: 	wXR7rwscBdg
H: 	1080
W: 	1920
FPS: 	25.0

FRAME INDEX X0 Y0 W H [Landmarks (5 Points)]

00008832 00000000 909.64 104.25 476.28 684.57 961.98 375.20 1150.52 352.43 976.25 453.11 978.16 613.94 1120.59 596.68
00008833 00000001 911.64 100.35 479.60 688.55 963.56 373.97 1156.66 347.13 981.92 448.12 983.63 611.94 1129.75 591.01
00008834 DELETE   914.71 100.91 482.00 689.33 973.30 367.75 1165.17 344.69 993.68 449.09 993.68 605.55 1141.35 587.34
00008835 00000003 917.49 104.87 483.23 683.53 981.08 369.66 1173.63 347.32 1006.92 451.26 1002.15 604.79 1149.84 587.29
00008836 00000004 916.95 109.84 485.79 684.79 984.71 372.71 1174.84 351.13 1012.31 455.21 1007.32 607.44 1154.98 590.23
00008837 00000005 918.19 111.10 482.27 685.03 988.01 375.38 1174.48 353.84 1016.03 461.92 1012.05 608.57 1158.97 591.18
00008838 00000006 915.85 114.12 480.81 686.22 987.67 376.42 1174.24 356.13 1018.00 468.04 1011.75 613.30 1158.77 596.77
00008839 00000007 908.20 113.67 485.52 694.54 977.64 382.98 1167.02 358.76 1009.55 474.90 1004.95 623.24 1155.36 603.39
00008840 00000008 905.17 111.74 483.67 703.40 965.81 385.62 1147.66 363.19 986.82 475.57 989.83 623.54 1137.12 606.13
00008841 00000009 897.30 114.30 478.04 697.83 955.94 392.99 1140.30 367.69 972.94 482.86 980.61 637.43 1122.68 616.96
00008842 00000010 897.15 111.10 476.77 713.60 952.82 389.34 1126.33 371.25 954.85 480.64 966.02 632.76 1104.25 619.55
00008843 00000011 892.49 118.59 474.64 697.37 949.14 391.36 1128.05 371.66 953.88 478.80 962.66 635.94 1104.90 620.12
00008844 00000012 898.46 115.79 479.77 696.70 954.38 391.03 1139.29 368.97 967.58 477.83 972.84 634.83 1117.95 617.12
00008845 00000013 910.65 120.45 479.58 692.84 966.07 384.31 1151.32 365.13 988.62 478.82 988.82 621.71 1137.60 608.16
00008846 DELETE   910.50 117.81 487.17 690.81 979.10 387.49 1166.13 364.32 1008.43 477.22 1004.62 622.32 1159.99 602.95
00008847 00000015 916.87 118.11 479.77 678.92 983.69 389.76 1166.86 363.03 1015.12 476.00 1014.41 614.14 1169.04 591.58
00008848 DELETE   914.50 99.73 481.33 704.99 975.36 391.25 1161.24 363.17 999.97 467.67 1008.61 615.51 1167.25 591.41
00008849 DELETE   909.42 103.53 479.31 704.57 963.45 392.13 1150.00 368.93 981.99 474.36 992.66 620.27 1150.48 600.29
00008850 DELETE   905.55 122.41 471.71 690.76 951.03 400.08 1135.71 373.61 971.24 486.00 979.85 629.67 1133.07 609.45
00008851 00000019 898.23 119.21 473.03 693.91 946.52 400.92 1131.86 379.35 957.77 486.27 968.19 636.66 1117.82 618.59
00008852 00000020 897.59 116.29 470.73 692.96 947.83 395.86 1131.61 380.93 957.84 484.19 963.27 631.83 1110.56 620.01
00008853 00000021 897.46 114.19 473.80 696.98 950.90 393.88 1134.09 379.58 960.70 481.69 964.71 633.52 1106.05 622.86
00008854 00000022 900.58 111.62 472.11 689.22 951.58 392.36 1137.50 381.23 961.06 481.45 960.51 631.47 1100.64 624.03
00008855 00000023 902.11 112.13 473.76 686.56 956.17 390.52 1140.78 381.87 962.50 479.98 961.37 628.32 1099.63 623.12
00008856 00000024 904.90 114.37 471.30 681.01 960.71 388.72 1143.60 381.10 967.65 480.59 966.21 627.04 1098.44 622.85
00008857 00000025 906.71 117.86 472.72 686.53 968.93 390.79 1146.09 380.80 971.54 480.30 974.18 631.30 1102.56 624.94
00008858 00000026 908.65 121.36 473.96 692.08 971.14 389.71 1144.75 381.03 968.21 480.99 975.86 632.99 1108.18 626.90
00008859 00000027 911.23 120.19 471.39 692.88 973.01 390.62 1146.85 381.52 971.58 481.50 978.71 632.61 1111.61 626.03
00008860 00000028 912.18 118.89 474.79 690.75 973.33 384.78 1150.55 380.36 972.01 483.71 977.11 629.22 1112.83 626.75
00008861 00000029 914.78 122.94 476.52 691.46 978.97 383.61 1153.24 381.57 974.07 483.24 981.34 625.58 1120.97 624.35
00008862 00000030 918.15 126.37 479.05 692.47 983.65 382.51 1158.59 382.61 980.91 485.71 987.25 627.05 1128.23 627.74
00008863 00000031 918.61 125.58 481.60 695.17 985.18 380.80 1162.25 384.99 985.11 487.32 988.82 623.81 1134.64 627.88
00008864 00000032 919.54 127.25 484.22 696.91 987.45 381.94 1164.84 386.38 987.60 489.31 989.81 624.77 1137.11 629.25
00008865 00000033 921.79 128.69 484.30 693.19 989.15 381.55 1167.75 384.22 990.34 489.19 991.26 624.80 1138.09 627.92
00008866 00000034 923.09 128.46 482.41 693.38 990.15 380.35 1171.69 383.56 993.62 487.64 991.73 623.02 1142.61 626.50
00008867 00000035 928.11 124.65 482.24 700.71 995.34 378.65 1174.46 384.39 995.47 488.10 995.44 623.03 1147.49 628.54
00008868 00000036 933.56 123.14 483.51 702.87 999.55 378.21 1179.51 383.99 997.37 487.04 996.09 623.72 1149.65 629.43
00008869 00000037 936.19 121.18 481.35 703.54 1002.31 375.39 1183.13 387.29 1004.18 483.47 998.98 616.93 1153.93 627.75
00008870 DELETE   939.18 116.60 479.59 703.94 1009.00 368.75 1186.54 391.89 1008.32 481.86 1000.25 607.84 1152.86 628.10
00008871 DELETE   942.75 112.95 484.70 701.22 1015.07 364.71 1193.53 389.90 1015.99 480.22 1003.98 605.18 1151.54 627.65
00008872 00000040 950.82 114.91 479.89 691.42 1022.20 363.55 1203.62 389.17 1026.93 479.39 1004.79 604.10 1148.46 627.70
00008873 00000041 961.07 119.40 475.31 676.87 1028.92 362.20 1209.85 390.05 1031.72 477.19 1009.60 598.76 1152.43 623.91
00008874 DELETE   966.85 119.90 473.70 672.16 1034.20 359.02 1216.35 385.29 1040.21 473.25 1015.79 594.25 1160.00 618.04
00008875 00000043 972.67 117.61 472.88 673.77 1041.23 354.84 1222.32 380.91 1047.55 471.52 1023.26 594.05 1163.13 617.82
00008876 00000044 976.57 120.98 475.59 676.02 1043.90 355.05 1228.39 378.34 1051.51 466.90 1025.81 594.86 1171.65 616.50
00008877 00000045 973.07 114.47 482.53 699.02 1044.30 350.28 1234.77 369.45 1049.64 468.00 1028.42 597.74 1194.66 613.30
00008878 00000046 975.27 113.07 484.68 698.58 1046.44 347.79 1237.79 369.34 1053.31 467.44 1033.61 595.43 1202.32 612.46
00008879 00000047 976.01 112.16 486.46 699.95 1050.19 347.42 1242.48 369.09 1058.46 466.93 1037.13 595.38 1205.03 612.33
00008880 00000048 976.78 112.41 487.13 702.00 1052.72 347.00 1245.90 369.59 1060.77 466.39 1038.45 594.24 1208.74 611.82
00008881 00000049 985.27 122.02 480.96 688.55 1056.41 341.09 1249.09 371.36 1063.70 462.85 1039.04 588.61 1206.30 615.34
00008882 00000050 987.61 121.36 479.57 689.37 1059.65 340.33 1251.69 370.54 1066.54 461.35 1041.47 587.88 1207.37 614.75
00008883 00000051 987.53 120.27 478.83 691.36 1060.15 339.56 1253.13 368.46 1067.27 460.59 1041.78 586.52 1209.54 612.24
00008884 00000052 988.49 120.84 478.50 691.88 1062.80 337.55 1256.37 365.13 1071.45 458.22 1045.10 585.77 1212.74 610.12
00008885 00000053 988.36 120.08 479.20 686.68 1062.73 337.02 1257.74 361.35 1074.40 456.14 1047.89 584.62 1217.52 606.07
00008886 00000054 988.07 120.12 479.58 684.58 1063.73 335.37 1260.24 358.76 1075.87 452.33 1047.50 580.82 1222.37 601.18
00008887 00000055 988.33 119.72 476.70 680.96 1062.70 335.24 1259.50 355.34 1078.18 449.32 1048.36 578.70 1220.51 596.41
00008888 00000056 988.96 114.52 477.76 685.42 1062.34 335.46 1259.59 351.60 1078.48 447.41 1052.18 579.58 1223.18 593.79
00008889 00000057 990.10 111.14 477.39 685.27 1062.50 335.65 1259.21 350.30 1077.58 443.13 1053.40 576.59 1223.16 589.50
00008890 00000058 988.46 102.85 479.52 692.81 1059.92 335.88 1258.16 344.30 1079.26 439.19 1052.92 577.39 1221.90 584.84
00008891 00000059 989.67 101.99 478.57 689.94 1061.09 333.53 1258.62 340.43 1079.50 433.41 1052.39 573.04 1220.01 579.38
00008892 00000060 989.33 96.44 478.01 692.92 1061.18 331.76 1260.04 336.45 1082.03 430.55 1054.14 570.92 1223.73 575.23
00008893 00000061 990.14 93.75 479.63 686.15 1061.80 334.53 1262.33 336.92 1082.29 429.67 1054.42 566.92 1226.61 569.32
00008894 00000062 989.88 95.10 480.44 680.88 1060.54 335.79 1262.71 336.47 1082.68 428.39 1052.80 564.82 1225.95 565.92
00008895 00000063 990.86 94.58 479.14 684.74 1061.49 335.20 1262.39 336.88 1082.96 429.58 1054.44 566.32 1226.32 568.01
00008896 00000064 990.24 96.20 479.10 686.42 1060.01 336.31 1261.27 338.09 1082.36 431.35 1052.87 571.28 1222.46 573.38
00008897 00000065 989.43 98.92 477.86 685.68 1059.66 334.91 1260.30 338.32 1084.10 432.04 1052.55 572.34 1218.64 575.92
00008898 00000066 989.03 99.17 477.66 685.50 1061.27 334.56 1260.91 338.44 1085.58 431.87 1052.71 572.16 1216.56 576.38
00008899 00000067 989.55 101.14 479.02 684.01 1062.04 336.38 1263.00 338.88 1086.75 433.69 1054.95 574.40 1219.45 577.34
00008900 00000068 990.73 104.45 481.20 678.31 1066.62 336.85 1265.53 341.32 1089.87 434.95 1058.67 573.99 1223.47 578.12
00008901 00000069 992.47 103.62 480.82 674.17 1067.18 337.18 1267.59 342.78 1092.21 437.75 1059.93 571.23 1225.19 576.24
00008902 00000070 994.80 105.92 479.37 670.06 1069.36 336.51 1267.18 342.54 1094.36 437.28 1063.25 565.90 1226.32 571.25
00008903 00000071 996.96 104.65 478.21 670.34 1071.25 334.23 1267.70 341.64 1095.25 434.86 1064.09 565.24 1221.69 572.08
00008904 00000072 997.24 104.50 478.37 670.59 1071.68 334.30 1268.10 340.91 1095.68 432.98 1063.76 565.62 1219.19 572.04
00008905 00000073 998.35 103.17 477.55 671.69 1072.61 333.94 1268.33 339.84 1097.27 432.25 1064.96 566.67 1216.78 572.76
00008906 00000074 998.73 105.62 477.00 669.94 1073.52 334.10 1268.46 340.47 1097.86 431.79 1065.17 566.27 1215.28 572.75
00008907 00000075 998.44 106.32 477.84 669.99 1073.65 333.49 1268.98 341.21 1097.82 431.95 1063.91 565.30 1215.23 572.89
00008908 00000076 999.29 107.87 476.99 668.01 1074.46 333.79 1269.03 341.82 1097.79 431.90 1064.82 564.52 1215.47 572.30
00008909 00000077 1000.68 105.54 475.32 671.50 1074.88 333.76 1269.30 342.62 1098.45 434.82 1065.70 566.31 1215.93 574.74
00008910 00000078 1000.48 105.42 475.46 669.77 1073.67 333.97 1268.51 344.57 1097.23 437.56 1065.71 565.68 1217.86 575.30
00008911 00000079 1001.51 104.44 475.33 670.93 1074.20 335.18 1269.59 342.28 1098.28 435.95 1068.45 567.31 1220.56 574.02
00008912 00000080 1001.07 104.61 475.90 673.20 1074.71 334.85 1270.64 341.25 1099.86 436.58 1068.46 570.06 1220.56 576.32
00008913 00000081 1000.51 102.70 477.24 675.45 1075.17 334.67 1271.95 342.46 1099.94 437.46 1068.94 570.68 1223.03 577.95
00008914 00000082 1000.46 100.93 479.04 677.70 1076.54 335.07 1273.79 342.98 1100.64 437.62 1070.22 571.15 1226.84 578.41
00008915 00000083 1000.08 99.45 478.57 687.32 1082.90 343.66 1274.04 346.89 1108.42 445.21 1079.29 575.05 1234.04 579.51
00008916 00000084 1000.67 98.17 479.30 695.31 1084.35 343.26 1275.34 347.05 1108.94 445.64 1080.05 576.81 1234.87 581.67
00008917 00000085 1001.74 94.61 479.67 702.39 1086.01 342.87 1278.28 346.76 1110.71 444.19 1080.76 578.37 1235.75 583.45
00008918 00000086 1002.65 97.01 478.32 702.18 1088.66 342.56 1279.39 347.84 1112.71 442.86 1082.26 577.52 1236.56 583.68
00008919 00000087 1005.18 96.27 478.54 692.06 1085.58 328.31 1283.20 342.01 1107.27 432.55 1073.42 569.90 1232.14 582.02
00008920 00000088 1005.96 93.87 478.54 695.85 1086.80 326.94 1283.62 341.45 1107.20 432.34 1073.87 570.03 1232.37 582.84
00008921 00000089 1006.74 94.68 479.34 695.93 1087.65 326.56 1284.78 341.65 1107.52 431.67 1073.98 570.15 1232.12 583.48
00008922 00000090 1006.99 94.75 479.38 695.22 1088.54 326.58 1286.38 341.90 1108.85 431.35 1074.75 569.88 1233.10 583.49
00008923 00000091 1003.52 89.43 483.01 714.33 1092.16 340.19 1286.44 348.69 1117.68 442.26 1082.67 579.11 1240.15 587.93
00008924 00000092 1008.26 93.22 482.23 699.46 1090.43 325.70 1291.10 342.90 1112.40 431.86 1077.57 569.88 1237.55 585.00
00008925 00000093 1012.42 102.71 477.36 689.04 1099.18 337.22 1295.48 355.59 1118.27 439.00 1078.88 573.29 1238.10 590.65
00008926 00000094 1014.21 102.72 476.51 689.92 1100.36 337.65 1296.98 356.00 1120.51 440.45 1080.64 574.71 1239.76 592.06
00008927 00000095 1007.05 90.80 485.33 715.77 1096.68 339.42 1292.33 350.45 1124.06 445.53 1085.85 580.13 1243.17 590.95
00008928 00000096 1007.08 92.53 485.29 714.29 1096.38 338.49 1292.78 351.31 1124.14 447.62 1084.97 580.59 1242.96 592.84
00008929 00000097 1007.24 91.49 485.15 716.16 1095.95 339.11 1292.12 352.14 1122.55 447.56 1084.61 581.04 1242.74 593.47
00008930 00000098 1013.78 106.14 478.16 689.01 1100.48 337.63 1296.85 359.12 1119.61 444.71 1079.53 576.23 1238.74 595.98
00008931 00000099 1012.80 106.10 479.29 689.85 1099.10 338.38 1295.42 359.85 1117.01 445.16 1078.53 577.21 1238.83 596.88
00008932 00000100 1011.74 106.13 479.19 690.90 1098.60 338.98 1294.91 360.41 1115.96 445.20 1077.63 577.56 1238.08 597.12
00008933 00000101 1010.79 107.41 479.11 689.49 1098.47 340.12 1294.03 360.60 1114.60 445.52 1076.63 578.42 1236.31 597.23
00008934 00000102 1003.16 95.60 487.40 715.23 1092.49 343.26 1288.75 355.03 1116.79 448.08 1080.77 582.27 1240.39 593.53
00008935 00000103 1003.41 96.32 487.45 714.14 1091.57 343.79 1288.23 355.53 1115.62 448.85 1079.58 582.53 1239.78 593.75
00008936 00000104 1003.69 94.57 486.99 716.31 1091.64 343.94 1287.83 355.98 1115.39 450.00 1079.92 582.85 1239.96 594.25
00008937 00000105 1003.30 93.10 486.74 716.84 1091.72 343.32 1287.66 356.49 1115.22 450.56 1079.67 582.25 1239.39 594.65
00008938 00000106 1003.19 92.37 486.63 717.03 1091.33 343.10 1286.70 356.73 1114.51 450.91 1079.16 582.42 1238.85 595.25
00008939 00000107 1003.97 93.63 485.99 716.14 1092.11 343.80 1285.85 357.14 1113.49 451.04 1079.20 583.07 1237.50 595.69
00008940 00000108 1008.33 109.63 480.89 682.20 1097.86 339.29 1286.09 361.73 1109.14 444.62 1073.76 576.99 1218.27 598.10
00008941 00000109 1008.57 96.04 481.42 686.71 1087.14 337.97 1279.69 357.01 1104.23 447.94 1067.93 583.11 1208.54 601.46
00008942 00000110 1008.33 111.33 477.44 676.70 1100.44 342.15 1286.17 363.78 1114.67 444.28 1075.75 577.76 1210.25 598.47
00008943 00000111 1007.85 113.73 479.58 683.89 1103.53 340.19 1289.74 361.51 1116.01 443.94 1078.25 582.07 1213.98 602.55
00008944 00000112 1007.75 113.77 479.19 681.34 1102.18 342.42 1288.57 361.58 1116.28 444.55 1081.26 581.96 1215.92 600.61
00008945 00000113 1006.03 115.46 479.47 677.50 1100.06 342.91 1286.24 363.19 1110.88 444.53 1074.61 581.69 1211.38 601.35
00008946 00000114 1002.23 116.56 479.36 670.63 1095.70 344.17 1281.44 367.95 1105.44 446.72 1069.12 579.36 1204.74 601.76
00008947 00000115 1005.73 106.27 475.82 675.60 1083.41 336.97 1275.68 356.48 1102.14 443.98 1066.30 579.28 1203.71 597.51
00008948 00000116 1004.50 105.12 476.95 678.90 1081.61 337.81 1274.68 358.53 1099.35 445.38 1063.01 580.98 1201.74 600.35
00008949 00000117 1005.17 106.77 476.63 676.55 1087.03 336.77 1276.58 360.34 1102.91 444.36 1067.30 579.06 1203.12 600.69
00008950 00000118 1008.83 117.61 473.90 670.11 1101.01 344.29 1287.20 371.84 1108.83 448.91 1071.16 582.06 1209.00 607.37
00008951 00000119 1013.82 119.77 473.89 666.23 1105.62 344.65 1293.32 375.68 1119.52 453.36 1079.34 581.45 1219.50 609.56
00008952 00000120 1013.88 120.12 473.38 669.57 1108.59 343.69 1296.74 377.73 1123.79 455.52 1080.12 582.56 1220.59 613.14
00008953 00000121 1012.09 122.10 472.08 668.99 1106.15 344.43 1294.08 380.22 1117.13 456.69 1073.27 583.34 1214.31 615.49
00008954 00000122 1006.88 109.63 480.20 700.55 1098.19 348.38 1280.84 373.67 1109.77 462.84 1076.55 590.10 1214.03 614.02
00008955 00000123 1005.92 118.85 474.72 688.32 1092.98 341.81 1279.12 375.69 1103.95 463.50 1068.70 595.14 1202.75 625.41
00008956 00000124 1004.16 119.31 475.38 701.60 1093.65 342.17 1280.14 378.25 1105.28 467.60 1068.07 600.79 1211.23 632.36
00008957 00000125 1004.95 123.59 481.38 710.47 1096.62 346.00 1285.36 382.74 1108.23 473.14 1070.63 607.72 1220.84 639.48
00008958 00000126 1008.51 117.04 489.61 730.91 1101.49 351.08 1292.63 386.94 1114.01 482.37 1076.89 609.15 1236.21 640.16
00008959 00000127 1016.28 121.04 485.15 728.35 1106.49 353.44 1298.21 388.75 1121.33 487.98 1082.61 612.65 1241.86 643.23
00008960 00000128 1023.48 124.96 475.67 713.91 1108.92 364.11 1303.12 397.89 1127.35 490.82 1081.40 619.74 1237.55 650.64
00008961 00000129 1025.86 120.93 476.88 707.99 1109.17 364.21 1303.91 399.99 1127.38 490.80 1080.34 617.59 1235.25 650.37
00008962 00000130 1030.22 120.45 476.42 702.15 1111.80 361.01 1306.50 399.52 1126.56 484.59 1078.77 611.67 1233.59 646.68
00008963 00000131 1035.35 119.61 476.56 696.30 1114.12 357.36 1310.21 399.17 1130.81 482.51 1081.22 605.32 1237.41 643.00
00008964 00000132 1038.89 118.02 480.65 691.33 1125.38 351.10 1318.50 399.39 1137.98 473.74 1087.85 594.26 1238.64 637.06
00008965 00000133 1049.72 118.00 478.30 688.79 1138.95 343.74 1330.47 393.44 1148.10 464.91 1100.57 587.17 1248.69 630.79
00008966 00000134 1056.98 116.06 477.98 694.17 1155.04 336.57 1345.65 390.31 1166.11 461.24 1113.91 583.73 1255.86 630.86
00008967 DELETE   1061.75 110.00 490.54 698.22 1165.86 337.21 1357.90 389.52 1175.42 458.69 1122.28 582.60 1264.36 628.78
00008968 DELETE   1063.68 109.48 506.29 685.99 1189.53 331.11 1382.60 393.42 1197.11 450.83 1130.29 564.61 1277.23 619.33
00008969 DELETE   1073.40 107.26 506.37 676.93 1203.77 318.10 1395.25 385.06 1215.16 439.29 1145.47 548.39 1286.00 607.48
00008970 00000138 1075.01 108.37 507.31 665.41 1212.35 316.65 1403.01 381.84 1226.60 419.36 1149.47 539.85 1286.00 598.01
00008971 00000139 1073.10 90.90 512.53 665.09 1213.02 311.99 1403.67 370.67 1220.62 415.33 1144.16 539.93 1280.14 591.51
00008972 00000140 1075.21 92.44 508.29 666.59 1210.66 315.06 1399.30 370.41 1217.98 418.70 1146.13 543.77 1280.72 592.62
00008973 00000141 1073.85 95.58 505.81 668.51 1203.74 319.23 1392.83 369.92 1211.73 422.03 1145.60 550.08 1279.17 594.97
00008974 00000142 1069.36 110.26 508.38 685.81 1204.29 317.54 1395.22 383.07 1210.65 439.23 1137.73 555.82 1276.83 613.88
00008975 00000143 1070.99 111.22 507.62 691.62 1202.67 322.89 1395.77 388.47 1208.23 445.34 1136.28 565.22 1276.81 622.98
00008976 00000144 1081.13 111.58 501.09 685.94 1204.75 327.06 1397.98 390.42 1212.36 450.03 1144.52 567.68 1285.42 623.68
00008977 00000145 1087.58 111.90 501.10 683.40 1210.33 327.66 1404.96 392.38 1218.12 450.71 1150.62 567.58 1293.18 624.59
00008978 00000146 1098.69 112.11 495.42 672.86 1217.57 329.34 1410.87 394.93 1230.75 451.62 1160.45 563.35 1300.16 621.35
00008979 00000147 1100.79 114.37 503.90 665.18 1229.03 328.44 1426.68 393.71 1240.61 450.79 1161.24 562.74 1306.47 618.95
00008980 00000148 1103.62 119.48 502.48 661.47 1238.34 331.35 1434.67 399.26 1250.38 451.66 1169.73 565.11 1315.03 622.80
00008981 00000149 1107.23 125.77 492.92 659.42 1236.93 337.55 1432.67 407.54 1249.40 462.98 1171.09 570.52 1317.86 630.04
00008982 00000150 1107.06 127.38 484.20 670.49 1226.56 341.30 1419.76 410.52 1236.16 478.00 1163.34 580.22 1309.17 639.09
00008983 00000151 1108.40 126.79 483.42 666.10 1222.00 337.63 1413.68 405.89 1225.05 472.83 1157.58 576.67 1303.11 634.77
00008984 00000152 1111.48 114.57 484.37 666.52 1222.81 332.86 1411.87 400.33 1234.04 458.11 1167.46 566.28 1302.52 625.98
00008985 00000153 1113.08 117.05 490.04 653.83 1230.18 330.51 1417.85 391.30 1242.86 444.48 1177.00 557.34 1305.31 612.07
00008986 00000154 1114.18 119.05 499.15 659.86 1243.57 327.66 1425.36 388.56 1249.21 436.80 1182.58 552.89 1307.89 607.68
00008987 00000155 1116.92 130.12 495.55 649.35 1254.72 324.65 1441.28 383.88 1260.99 442.70 1182.15 557.25 1320.41 608.01
00008988 00000156 1108.54 121.28 508.88 645.31 1251.25 325.47 1439.47 388.95 1263.35 442.92 1181.26 553.16 1318.80 607.23
00008989 00000157 1112.42 116.87 499.62 640.58 1246.86 321.53 1435.13 380.68 1258.98 432.27 1181.18 546.15 1320.46 596.94
00008990 00000158 1110.73 119.00 503.90 652.18 1246.00 315.42 1439.22 369.38 1257.14 411.82 1173.50 544.10 1324.44 591.29
00008991 00000159 1106.49 120.14 505.27 661.93 1241.33 309.55 1435.07 362.41 1251.76 409.26 1168.10 547.77 1319.20 594.27
00008992 00000160 1111.29 114.20 499.77 662.24 1242.97 313.90 1429.19 368.41 1254.18 402.21 1176.77 540.85 1311.17 591.02
00008993 00000161 1101.68 103.01 515.66 676.44 1251.47 308.82 1434.87 364.52 1258.12 400.89 1174.64 543.39 1308.90 591.66
00008994 00000162 1110.96 105.92 518.43 659.93 1267.69 303.54 1453.93 382.18 1279.84 384.51 1184.49 517.06 1315.65 587.02
00008995 00000163 1110.79 107.21 515.68 654.83 1265.04 305.94 1452.82 385.32 1280.77 388.14 1184.90 518.48 1317.77 588.86
