Video ID: 	pYHp017GXZQ
H: 	1080
W: 	1920
FPS: 	29.97002997002997

FRAME INDEX X0 Y0 W H [Landmarks (5 Points)]

00018714 00000000 787.12 286.56 464.14 625.61 855.99 553.14 1026.81 553.82 893.95 663.68 887.14 758.49 1022.26 758.53
00018715 00000001 786.11 284.80 464.93 626.67 855.93 552.73 1026.66 552.86 894.17 662.19 886.75 758.94 1021.16 758.54
00018716 00000002 786.10 283.08 463.27 622.82 855.31 551.95 1026.76 552.29 894.95 662.38 886.88 757.36 1020.68 757.01
00018717 DELETE   785.89 283.23 462.91 621.02 854.58 552.10 1027.20 552.71 894.64 662.04 884.56 755.64 1020.28 755.49
00018718 00000004 785.26 282.91 463.23 620.54 854.54 552.23 1027.29 552.16 895.10 661.26 884.34 755.14 1020.43 754.50
00018719 DELETE   786.09 282.27 462.87 620.80 854.59 550.86 1027.53 551.67 894.22 660.86 883.57 754.94 1018.94 755.13
00018720 00000006 788.44 282.52 457.90 615.73 848.98 548.43 1026.79 551.47 888.87 658.95 880.60 760.09 1014.68 760.86
00018721 00000007 786.91 283.87 460.40 620.93 854.83 549.72 1028.11 550.43 893.77 660.05 882.91 754.61 1020.75 754.62
00018722 00000008 786.99 282.64 461.40 626.12 855.32 549.24 1027.82 549.35 893.50 659.16 884.16 755.41 1022.62 754.93
00018723 00000009 787.03 282.08 461.87 627.00 855.55 548.95 1027.27 549.10 893.75 659.01 885.42 757.06 1021.67 756.64
00018724 00000010 786.22 282.78 463.52 627.78 855.48 549.12 1027.33 548.79 893.86 658.70 885.59 757.75 1021.67 756.97
00018725 00000011 786.29 280.54 462.81 628.97 855.45 548.78 1028.04 548.66 894.56 659.28 885.58 757.66 1021.44 757.07
00018726 00000012 786.05 282.53 463.99 626.35 855.63 549.49 1027.48 549.72 894.66 659.73 886.12 757.90 1020.97 757.61
00018727 00000013 786.13 282.74 463.77 625.31 855.33 549.64 1027.66 550.14 894.58 660.56 885.53 757.79 1021.16 757.71
00018728 00000014 786.09 284.60 462.73 621.67 855.05 550.00 1027.94 551.04 894.77 662.20 885.35 757.57 1021.08 757.92
00018729 00000015 785.06 287.22 464.08 617.90 854.05 550.40 1028.81 551.56 895.52 663.45 885.14 757.76 1021.61 758.17
00018730 00000016 784.38 285.44 464.38 619.73 853.59 550.45 1028.36 551.89 895.73 664.81 884.82 757.66 1021.02 758.30
00018731 00000017 784.39 288.76 463.87 616.29 853.14 550.29 1027.91 552.41 895.02 666.57 884.56 757.31 1021.34 758.50
00018732 00000018 783.98 288.10 464.38 616.94 853.01 550.56 1027.74 553.05 895.02 667.41 884.42 757.86 1020.79 759.34
00018733 00000019 783.80 287.24 464.40 619.00 853.16 550.92 1028.15 553.09 895.95 667.91 884.71 758.21 1021.79 759.39
00018734 00000020 784.01 290.10 464.32 616.06 852.81 551.89 1027.52 554.52 895.13 669.07 884.14 758.33 1021.24 759.92
00018735 00000021 784.07 292.87 463.65 614.11 852.48 552.66 1027.97 556.05 895.56 671.22 884.06 759.13 1020.85 761.37
00018736 00000022 783.97 293.84 463.93 614.19 852.81 553.40 1027.81 557.08 895.45 671.41 884.24 759.43 1020.75 761.90
00018737 00000023 784.11 294.48 463.90 613.56 852.94 553.78 1027.70 557.46 895.18 671.55 884.35 759.77 1020.65 762.26
00018738 00000024 783.95 295.54 464.17 613.21 852.48 553.49 1027.29 557.14 894.56 671.56 883.71 759.84 1019.51 762.34
00018739 00000025 783.98 296.84 464.65 612.03 852.34 553.43 1027.66 557.54 894.56 671.91 883.62 760.24 1019.48 763.14
00018740 00000026 784.57 296.79 464.30 611.98 852.95 553.10 1028.64 557.09 895.14 671.45 883.90 760.19 1019.80 763.05
00018741 DELETE   785.37 296.40 463.82 611.99 853.31 552.59 1029.10 557.05 895.39 671.61 884.02 760.13 1020.05 763.38
00018742 00000028 786.08 296.16 464.02 612.85 853.85 552.67 1029.29 556.92 895.47 671.36 884.55 760.23 1020.43 763.34
00018743 00000029 786.80 294.56 463.80 615.79 854.59 551.92 1030.26 556.34 895.69 670.60 884.75 760.97 1020.32 764.28
00018744 00000030 786.89 294.71 463.55 615.99 854.97 551.86 1030.46 556.27 896.17 670.39 884.58 761.15 1020.09 764.44
00018745 00000031 786.94 294.09 463.77 616.46 855.05 551.57 1030.54 555.57 896.25 669.51 884.75 761.01 1020.20 763.93
00018746 00000032 786.84 291.07 464.34 618.34 855.04 551.11 1030.71 554.80 895.93 668.54 884.15 760.25 1020.38 762.96
00018747 00000033 786.51 289.78 463.17 616.14 855.04 549.87 1031.28 553.68 897.16 667.95 883.39 758.48 1020.20 761.30
00018748 00000034 786.53 285.24 462.70 618.96 855.05 549.00 1031.01 552.15 896.81 665.01 882.57 757.71 1019.30 759.94
00018749 00000035 786.89 281.29 463.20 624.82 855.72 548.12 1030.59 550.60 895.82 662.40 881.55 758.75 1019.54 760.53
00018750 00000036 787.34 282.77 462.31 621.30 856.35 547.69 1030.54 548.60 897.14 659.53 882.34 759.93 1018.15 760.61
00018751 00000037 788.07 280.22 461.06 620.68 856.94 545.29 1031.00 545.59 897.72 656.66 883.99 759.50 1015.45 759.75
00018752 00000038 788.30 279.05 460.57 618.99 856.76 544.32 1032.80 544.37 898.25 653.39 882.79 755.31 1012.97 755.36
00018753 00000039 788.07 273.23 460.76 617.41 851.47 539.66 1031.36 542.62 892.82 647.92 881.67 757.36 1006.89 759.13
00018754 00000040 788.08 270.30 460.72 622.88 852.59 538.23 1032.77 540.86 894.16 646.62 884.12 756.51 1010.73 757.94
00018755 00000041 790.51 269.19 460.70 627.45 855.00 537.33 1034.08 538.60 895.73 646.93 889.46 756.74 1017.52 756.78
00018756 00000042 793.63 272.00 451.11 622.13 858.47 534.39 1032.65 537.92 902.26 646.69 891.72 749.65 1017.39 752.31
00018757 00000043 792.67 271.78 457.80 622.51 862.61 542.10 1037.32 538.63 906.12 645.21 891.67 753.72 1019.93 750.86
00018758 00000044 793.18 271.02 458.02 621.65 856.97 539.81 1034.52 541.14 896.42 644.39 886.31 763.91 1002.96 764.70
00018759 00000045 793.03 270.66 458.06 623.59 856.22 540.58 1034.34 542.80 894.93 645.02 884.25 766.99 999.70 768.52
00018760 00000046 792.06 270.17 459.55 622.88 855.85 540.93 1034.41 543.26 895.42 645.89 884.44 766.06 1000.73 767.77
00018761 00000047 792.02 273.10 458.69 625.06 860.70 544.38 1035.97 542.91 902.87 649.02 888.16 757.90 1011.96 756.87
00018762 00000048 791.66 271.94 458.61 623.60 859.80 541.95 1036.30 542.01 902.45 648.91 885.46 753.55 1015.16 753.58
00018763 00000049 790.55 272.77 460.02 631.84 860.42 537.36 1035.20 540.45 898.06 644.78 882.52 751.49 1016.07 753.98
00018764 00000050 788.82 273.40 448.35 637.04 855.45 526.47 1030.39 536.45 894.54 647.16 876.56 749.25 1005.74 757.54
00018765 00000051 789.06 276.23 442.68 632.41 853.24 524.45 1024.71 538.02 887.85 646.53 871.39 746.70 1000.12 757.90
00018766 00000052 790.12 274.84 440.44 628.42 851.53 523.56 1021.73 540.40 883.95 647.78 867.51 743.68 995.10 757.41
00018767 00000053 789.23 274.59 439.49 622.04 849.12 526.48 1022.97 541.81 885.66 648.54 864.52 742.24 992.74 755.17
00018768 00000054 787.43 273.11 441.36 619.05 847.07 527.51 1021.96 543.51 886.91 650.26 862.33 741.73 991.67 755.52
00018769 00000055 788.38 275.38 439.73 616.20 848.06 528.54 1022.84 542.98 889.53 648.85 862.17 744.05 989.61 756.79
00018770 00000056 790.52 274.16 438.13 619.58 850.84 527.75 1026.57 541.80 891.66 648.93 865.54 746.80 991.01 759.21
00018771 00000057 789.43 269.45 445.55 621.86 849.89 527.17 1031.47 542.98 882.93 642.02 863.29 750.22 991.93 762.56
00018772 00000058 790.30 273.26 445.78 615.38 851.70 526.11 1034.03 541.16 887.24 640.93 866.17 746.54 996.92 758.21
00018773 00000059 790.36 271.78 446.98 616.90 854.17 524.86 1036.15 539.39 890.04 638.62 868.32 742.67 1001.36 753.95
00018774 00000060 791.70 273.76 449.99 615.24 856.04 525.06 1037.31 537.65 892.39 637.14 871.55 742.41 1004.31 752.22
00018775 00000061 794.43 269.19 445.50 620.22 858.46 521.85 1037.84 537.09 901.41 639.81 876.87 737.84 1009.11 750.34
00018776 00000062 794.97 267.96 447.76 621.41 859.81 521.57 1040.37 535.30 903.32 639.60 879.32 738.75 1012.21 750.17
00018777 00000063 797.51 264.03 446.28 624.33 860.99 521.31 1041.31 533.59 904.94 641.26 882.78 739.86 1014.17 750.11
00018778 00000064 799.89 260.12 443.07 624.01 861.11 518.92 1044.00 531.15 907.80 642.81 885.43 738.80 1016.25 748.83
00018779 00000065 799.55 255.37 445.03 627.22 861.80 517.07 1047.00 527.64 910.58 642.01 887.47 737.93 1017.97 746.63
00018780 00000066 799.84 255.94 446.16 625.39 863.11 515.77 1049.97 525.74 913.26 640.63 888.41 736.52 1019.85 744.72
00018781 00000067 801.93 250.74 446.33 628.14 864.74 515.30 1052.35 523.70 915.42 638.75 891.35 735.35 1023.43 742.14
00018782 00000068 804.32 252.09 444.90 629.17 867.12 515.22 1052.99 522.60 916.20 636.22 893.09 735.70 1024.40 741.88
00018783 00000069 808.07 253.67 440.35 627.26 871.96 516.40 1053.69 522.48 920.01 634.93 899.93 738.61 1024.05 744.02
00018784 00000070 808.63 253.72 440.31 629.33 872.66 517.18 1053.16 522.28 920.59 635.12 901.22 741.12 1022.39 745.81
00018785 00000071 801.26 253.41 454.12 636.47 868.06 524.41 1054.14 526.58 918.27 638.33 897.24 749.88 1022.43 752.16
00018786 00000072 806.62 256.62 444.93 626.51 870.12 517.24 1056.58 520.58 921.96 635.33 899.37 742.45 1028.46 745.51
00018787 00000073 807.43 254.97 443.31 623.83 872.05 517.53 1056.93 520.74 925.09 636.12 903.02 741.13 1029.99 744.10
00018788 00000074 806.29 256.27 445.02 625.37 870.97 517.17 1057.39 519.74 925.17 635.89 902.18 740.53 1034.15 742.88
00018789 00000075 798.73 256.06 456.63 630.57 867.38 523.81 1057.79 522.38 923.51 636.94 898.02 744.87 1034.74 744.15
00018790 00000076 803.11 258.95 447.01 629.58 870.99 518.60 1057.11 518.39 926.88 637.69 903.19 741.85 1039.55 741.94
00018791 00000077 796.87 258.63 457.73 634.95 865.93 523.40 1058.28 520.42 923.48 636.05 899.70 746.58 1038.74 744.73
00018792 00000078 795.85 259.45 457.61 635.36 865.02 521.19 1057.26 519.15 921.83 635.10 898.97 745.29 1038.32 744.14
00018793 00000079 793.23 261.00 459.81 633.27 863.15 519.63 1055.90 518.51 920.03 635.02 896.84 743.39 1038.08 742.87
00018794 00000080 790.76 260.99 461.18 632.13 861.08 520.18 1055.05 519.09 919.15 635.61 894.49 742.24 1038.28 741.80
00018795 DELETE   787.84 258.36 463.86 633.72 860.28 520.90 1053.86 520.24 918.95 638.05 893.42 740.55 1038.60 740.33
00018796 00000082 789.78 263.49 457.82 621.78 857.20 517.41 1050.71 517.71 918.51 641.46 892.28 736.06 1040.01 735.83
00018797 00000083 789.04 259.09 458.29 625.17 856.11 518.86 1049.89 518.55 917.52 641.81 891.85 736.21 1040.62 735.28
00018798 00000084 787.87 260.91 457.83 623.64 854.78 519.80 1049.90 519.19 918.54 643.24 890.89 736.99 1040.40 735.90
00018799 00000085 786.65 260.87 458.71 624.69 853.98 520.38 1049.23 520.79 917.11 645.15 890.73 737.47 1040.11 737.10
00018800 00000086 785.69 262.49 457.66 626.78 854.47 520.72 1047.72 521.41 917.24 646.07 891.12 738.14 1038.95 738.19
00018801 00000087 785.45 261.40 458.50 626.30 852.92 520.55 1047.21 521.65 915.94 646.46 889.61 737.96 1037.31 738.26
00018802 00000088 783.60 261.55 459.60 625.69 851.28 520.78 1045.65 522.91 914.07 647.18 887.40 737.50 1034.62 738.61
00018803 00000089 783.30 261.86 459.29 625.48 850.45 521.87 1044.25 524.21 912.92 647.46 886.22 739.56 1030.79 740.99
00018804 00000090 782.94 264.38 459.24 622.24 849.53 521.01 1043.10 524.54 911.20 647.93 884.85 740.73 1027.08 743.22
00018805 00000091 783.16 264.21 457.52 621.05 849.04 521.04 1041.79 525.44 910.82 648.92 884.35 741.68 1022.40 745.05
00018806 00000092 783.26 265.43 456.38 617.85 848.76 519.92 1041.39 524.89 910.50 649.08 884.02 742.34 1019.12 746.30
00018807 00000093 783.33 266.56 456.10 617.52 847.91 519.07 1039.77 524.35 909.07 648.48 882.93 742.47 1017.44 746.69
00018808 00000094 783.10 266.05 455.85 618.49 848.03 519.18 1039.52 523.42 909.18 647.88 883.90 742.81 1018.21 746.12
00018809 DELETE   783.58 266.42 455.75 617.08 847.89 518.87 1038.49 522.23 908.70 647.04 883.97 742.46 1017.92 745.00
00018810 00000096 783.06 267.72 456.35 615.30 848.10 518.86 1038.30 521.73 908.55 645.48 884.45 742.18 1016.64 744.37
00018811 00000097 780.04 262.68 463.77 620.99 848.88 522.74 1039.58 521.69 907.54 642.10 884.78 748.50 1018.30 747.73
00018812 00000098 779.67 263.28 463.42 620.66 848.76 522.69 1039.33 521.42 907.03 641.12 884.60 748.70 1017.80 747.73
00018813 00000099 779.17 263.63 463.33 620.74 848.22 523.32 1037.85 521.03 906.17 640.31 884.53 748.78 1016.72 746.97
00018814 00000100 780.98 261.70 461.05 621.79 849.10 528.10 1036.38 524.29 905.54 639.36 883.73 748.83 1015.77 745.72
00018815 00000101 782.54 266.37 455.69 619.62 847.87 531.73 1032.49 527.74 905.67 644.28 884.32 745.50 1014.98 742.10
00018816 00000102 782.51 264.69 453.49 620.14 848.87 537.19 1034.20 532.79 906.94 643.38 883.12 745.49 1016.61 741.63
00018817 00000103 781.37 262.69 458.43 620.26 849.36 539.91 1037.03 533.64 905.80 637.13 881.77 749.19 1017.05 743.67
00018818 DELETE   781.48 263.58 455.91 619.09 849.60 540.12 1036.97 534.67 905.25 637.06 880.98 748.77 1016.62 743.88
00018819 00000105 782.20 265.84 450.69 620.08 847.55 539.15 1031.31 535.57 904.80 643.04 881.19 745.77 1013.77 742.67
00018820 00000106 782.74 265.87 449.65 620.56 846.97 538.89 1030.94 535.38 904.30 642.96 880.46 746.20 1013.09 743.19
00018821 00000107 782.78 264.27 449.23 622.85 847.47 538.66 1030.03 535.31 903.20 641.55 880.71 745.65 1012.36 742.70
00018822 00000108 782.65 261.90 453.74 622.87 849.74 537.66 1034.88 532.40 901.98 635.20 879.38 748.58 1013.23 743.91
00018823 DELETE   783.43 264.85 450.57 620.43 849.68 533.68 1032.16 531.08 905.05 638.46 880.85 743.57 1010.50 741.48
00018824 DELETE   784.09 261.23 454.26 622.91 851.35 532.66 1036.29 528.54 902.86 632.54 878.92 746.12 1011.95 742.68
00018825 00000111 784.69 256.63 454.74 626.60 851.58 531.01 1036.76 526.98 902.86 630.60 877.81 745.14 1010.99 742.01
00018826 00000112 786.08 256.23 453.36 625.35 852.22 529.82 1037.56 526.70 902.78 628.81 877.08 744.47 1009.89 742.11
00018827 00000113 786.26 254.74 453.46 626.74 852.64 528.57 1038.16 525.92 902.86 627.10 876.69 743.15 1009.57 741.17
00018828 00000114 786.58 251.59 453.47 628.99 853.22 527.90 1038.94 525.37 903.45 626.09 876.45 742.43 1009.39 740.56
00018829 00000115 785.69 252.66 453.70 629.04 853.04 526.63 1039.59 524.12 904.08 625.54 876.61 741.66 1010.55 739.85
00018830 00000116 786.28 250.34 453.58 630.99 853.41 525.78 1039.46 523.55 903.75 624.22 875.98 740.89 1009.62 739.31
00018831 DELETE   786.06 249.45 453.79 632.76 853.56 524.74 1039.21 522.15 903.60 623.42 876.49 740.39 1010.06 738.56
00018832 DELETE   786.14 248.42 453.46 634.53 854.32 523.98 1038.97 521.36 903.33 621.39 876.83 740.32 1009.56 738.43
00018833 00000119 787.25 250.15 451.86 635.59 855.27 522.95 1038.03 519.65 902.77 619.37 878.18 741.61 1008.25 739.25
00018834 00000120 786.89 250.24 452.26 639.74 855.51 522.82 1037.94 518.75 902.52 618.44 879.37 744.01 1008.54 741.13
00018835 00000121 787.33 247.64 452.11 644.87 855.80 522.85 1037.64 518.38 901.69 618.01 879.74 745.20 1008.85 741.98
00018836 00000122 787.31 247.05 452.71 647.39 856.12 523.19 1037.74 518.59 901.57 617.93 880.04 746.03 1008.79 742.79
00018837 00000123 787.21 247.55 452.85 648.07 856.18 523.35 1037.57 519.08 901.79 618.58 880.19 746.43 1008.83 743.47
00018838 00000124 787.05 248.40 453.72 647.36 855.93 524.10 1038.43 519.77 902.25 619.49 880.73 747.12 1009.66 744.07
00018839 00000125 787.27 249.87 453.69 644.59 855.84 524.53 1038.74 520.44 902.81 620.71 881.07 746.67 1010.18 743.81
00018840 00000126 787.50 250.69 454.19 643.27 856.32 524.54 1038.97 521.18 902.93 621.84 881.23 745.73 1010.92 743.42
00018841 00000127 787.24 251.49 456.48 638.47 856.95 524.94 1038.69 521.10 904.07 622.26 882.81 744.45 1011.06 741.62
00018842 00000128 786.84 250.43 457.30 636.42 856.54 525.19 1038.87 521.79 904.74 622.60 882.38 743.93 1009.93 741.44
00018843 00000129 786.35 251.22 457.54 633.08 855.65 524.97 1039.03 522.33 905.14 624.33 882.09 744.22 1008.75 742.36
00018844 00000130 786.47 250.62 456.80 631.79 854.40 525.15 1039.12 523.36 904.22 625.21 879.96 744.08 1007.85 742.86
00018845 00000131 785.52 250.12 457.38 631.07 853.33 526.10 1039.19 524.23 904.29 626.21 878.30 744.56 1007.21 743.25
00018846 00000132 785.19 251.35 456.86 629.18 852.27 525.58 1039.33 524.45 904.02 626.99 876.42 743.46 1007.03 742.75
00018847 00000133 785.16 250.65 455.18 627.81 851.76 525.57 1038.69 525.00 903.20 626.79 875.44 743.05 1005.85 742.76
00018848 00000134 784.88 251.44 455.03 626.63 851.42 525.72 1038.22 525.19 902.69 627.17 875.31 743.62 1004.41 743.36
00018849 00000135 786.00 251.85 453.94 625.57 851.88 525.70 1037.87 525.79 902.30 627.47 874.96 742.93 1003.35 743.23
00018850 00000136 785.05 252.73 454.35 625.77 851.74 526.60 1037.91 526.56 902.51 628.56 875.23 744.17 1003.29 744.40
00018851 00000137 785.13 254.22 453.96 623.59 851.00 527.45 1037.62 527.16 902.20 628.96 874.95 744.70 1002.72 744.70
00018852 00000138 785.02 253.18 453.79 625.42 850.72 527.93 1037.07 527.68 901.25 629.03 874.59 745.67 1002.24 745.68
00018853 00000139 785.07 256.76 453.53 621.56 850.56 528.86 1036.74 528.19 901.54 629.09 874.94 746.39 1001.71 746.04
00018854 00000140 785.10 257.37 453.36 620.85 850.48 529.00 1036.18 528.68 901.06 629.90 874.76 747.01 1000.18 746.99
00018855 00000141 785.05 257.14 453.16 621.21 850.36 529.57 1035.32 528.78 900.84 630.36 875.57 748.01 1000.26 747.53
00018856 00000142 785.03 257.65 453.54 621.32 850.80 530.56 1035.40 529.26 901.13 629.95 876.17 748.63 999.77 747.75
00018857 00000143 784.96 254.98 453.69 625.82 851.20 530.77 1035.46 529.13 901.08 630.14 876.07 749.89 999.66 748.78
00018858 00000144 785.10 257.56 454.04 622.92 851.08 531.67 1036.78 529.59 902.22 630.66 877.10 751.21 999.91 749.75
00018859 00000145 784.70 257.66 454.40 622.62 850.59 532.28 1036.37 530.08 902.70 633.05 878.07 753.96 999.15 752.48
00018860 00000146 784.65 258.57 455.84 623.70 850.13 533.57 1036.95 530.45 902.89 635.30 879.66 759.10 998.69 756.88
00018861 00000147 785.20 262.50 456.92 624.31 850.76 534.43 1036.78 531.39 902.42 638.88 882.89 764.90 998.12 762.79
00018862 00000148 784.27 266.27 458.21 626.34 851.39 535.47 1037.50 533.80 902.80 642.88 883.27 766.88 998.87 766.02
00018863 00000149 783.49 267.89 459.17 625.71 848.32 534.78 1033.08 531.41 898.34 643.87 883.81 770.03 997.46 767.57
00018864 00000150 782.82 268.41 458.59 623.01 842.92 533.00 1031.40 530.80 893.62 646.92 879.82 770.49 997.09 768.86
00018865 00000151 782.62 267.82 457.12 622.54 840.73 529.54 1028.66 529.91 889.07 648.26 875.06 767.46 994.59 768.03
00018866 00000152 782.23 267.16 456.39 622.50 839.15 528.33 1025.87 527.67 885.64 646.53 873.90 765.36 995.38 764.92
00018867 00000153 781.44 263.27 457.15 626.70 837.28 525.98 1023.18 524.84 882.41 646.77 871.89 762.73 995.92 761.89
00018868 00000154 781.60 263.86 454.44 628.03 836.35 523.94 1019.76 523.93 877.60 644.76 868.09 757.63 996.27 757.48
00018869 00000155 780.08 270.58 447.93 620.86 833.90 522.63 1012.53 523.86 881.26 645.82 863.09 745.63 992.14 747.69
00018870 00000156 779.83 269.32 447.51 622.58 832.78 521.62 1010.30 523.41 878.14 644.17 860.50 743.82 991.05 746.39
00018871 00000157 779.07 268.49 446.83 622.36 831.72 521.72 1007.43 523.97 875.21 643.55 859.53 743.35 987.40 746.33
00018872 00000158 779.00 268.72 446.58 621.51 831.38 522.68 1007.45 524.63 875.16 644.50 858.81 743.81 987.42 746.66
00018873 DELETE   778.31 267.05 447.98 624.03 831.45 524.12 1007.09 525.82 875.66 645.64 858.59 744.82 986.59 747.56
00018874 DELETE   777.34 265.61 448.09 626.27 831.34 525.92 1006.68 526.69 876.29 645.60 858.66 746.60 986.63 748.54
00018875 00000161 777.20 263.50 448.20 630.72 830.92 528.35 1005.94 528.24 874.72 646.52 858.39 748.96 986.55 750.17
00018876 00000162 776.61 263.16 448.02 632.98 829.97 530.47 1004.56 529.11 873.60 647.36 858.39 751.81 985.77 751.87
00018877 00000163 775.69 269.17 448.67 629.14 830.08 532.09 1004.35 531.03 873.46 649.36 858.84 753.46 986.25 753.52
00018878 00000164 775.61 275.47 449.65 624.80 828.28 534.69 1003.79 533.16 870.78 651.22 858.01 755.66 985.83 755.13
00018879 00000165 775.33 283.07 448.47 618.82 827.17 538.76 1002.45 538.20 868.72 655.80 857.39 758.47 984.68 758.48
00018880 00000166 773.51 290.45 450.57 611.59 826.22 541.36 1002.68 540.08 869.78 660.32 858.40 761.14 984.71 760.56
00018881 00000167 773.47 289.33 451.21 613.33 826.85 543.27 1002.31 542.93 869.51 662.80 859.38 762.49 984.36 762.65
