Video ID: 	jQkfVN3FKmA
H: 	1080
W: 	1920
FPS: 	25.0

FRAME INDEX X0 Y0 W H [Landmarks (5 Points)]

00020026 00000000 646.32 351.88 459.27 522.96 694.65 467.38 823.82 491.12 666.31 610.68 731.29 694.00 832.07 710.15
00020027 00000001 644.64 346.93 460.94 528.59 696.25 466.32 820.53 491.75 663.05 611.86 732.55 693.20 829.42 710.36
00020028 DELETE   644.83 350.81 458.45 525.98 699.26 463.29 818.70 490.04 663.72 611.96 735.56 690.80 829.29 708.47
00020029 00000003 643.74 351.90 460.74 525.74 698.56 464.08 817.44 491.39 662.08 612.30 734.35 690.43 829.33 708.54
00020030 00000004 643.40 356.87 462.39 520.47 696.82 467.52 814.26 491.92 659.63 612.64 732.25 690.99 827.08 707.03
00020031 00000005 655.05 354.89 446.73 527.86 711.48 483.97 812.98 509.33 660.22 613.57 738.23 705.25 835.47 718.44
00020032 00000006 642.73 355.59 462.28 519.75 699.16 462.36 815.93 492.41 660.87 613.26 733.85 688.16 826.62 708.80
00020033 00000007 644.43 353.63 461.11 521.13 700.83 462.53 817.78 491.59 661.98 612.98 733.98 690.40 826.20 710.24
00020034 00000008 644.45 358.26 460.94 516.78 700.58 465.27 818.13 492.30 662.91 612.44 732.24 691.20 825.04 709.70
00020035 00000009 645.70 359.75 458.72 513.95 702.71 465.05 819.35 492.44 664.36 613.71 732.19 691.11 824.93 709.89
00020036 00000010 646.87 356.63 457.06 516.63 703.27 464.45 822.03 492.81 666.35 612.98 733.27 692.34 826.31 712.08
00020037 00000011 646.06 363.42 461.27 513.17 705.84 465.42 822.05 489.09 667.10 610.00 734.24 696.26 825.16 712.07
00020038 00000012 651.24 359.86 456.46 514.06 707.81 464.75 829.33 487.74 675.70 608.14 734.58 695.16 831.29 710.73
00020039 00000013 649.95 351.58 468.79 528.94 711.73 462.78 832.35 482.31 675.78 604.98 738.92 699.77 834.39 712.56
00020040 00000014 655.19 350.33 462.33 519.84 709.42 462.64 839.62 482.17 687.42 600.65 740.42 695.11 840.87 709.33
00020041 00000015 653.62 352.03 465.11 513.40 705.99 462.16 837.90 480.53 685.95 599.99 739.42 694.22 840.24 707.84
00020042 DELETE   651.84 353.12 466.08 513.79 703.45 463.02 838.03 481.88 685.38 602.50 739.55 695.66 841.60 709.37
00020043 00000017 651.63 351.41 467.45 516.98 703.39 458.83 838.11 480.14 682.95 603.71 741.33 694.04 842.56 709.18
00020044 00000018 649.76 348.10 472.88 523.84 699.88 459.61 838.04 481.65 680.12 604.75 738.33 695.74 841.70 711.43
00020045 00000019 651.37 349.87 468.82 522.18 700.21 462.06 840.74 484.26 683.26 606.55 737.78 696.18 842.85 712.20
00020046 00000020 651.12 348.86 469.28 522.37 702.55 462.00 842.33 485.45 684.29 603.77 737.04 695.64 841.69 712.89
00020047 00000021 653.58 348.65 466.62 525.72 712.33 466.57 844.52 488.79 690.13 601.30 739.81 697.55 840.96 713.72
00020048 00000022 651.74 348.43 472.60 530.18 711.35 468.61 843.17 486.49 687.23 600.44 738.09 699.80 841.66 712.09
00020049 00000023 651.43 358.11 476.61 519.70 711.78 470.82 842.92 484.52 686.95 601.08 741.55 705.38 841.03 714.19
00020050 00000024 650.22 358.59 477.10 517.38 709.29 469.40 841.92 484.62 686.83 601.74 742.18 702.72 842.72 712.98
00020051 00000025 649.24 359.10 479.31 514.49 707.78 470.26 844.33 487.29 686.62 602.34 739.11 701.26 843.44 713.39
00020052 00000026 650.67 356.37 472.15 513.25 706.52 466.57 841.59 484.94 686.74 602.95 740.58 697.91 843.39 710.93
00020053 00000027 648.85 353.87 473.18 515.40 703.41 462.02 841.75 484.97 685.89 602.90 741.72 693.86 848.65 710.28
00020054 00000028 648.31 352.06 471.74 520.07 702.35 460.01 839.84 483.59 683.11 604.57 741.47 693.67 848.54 710.50
00020055 00000029 651.80 349.39 468.75 521.85 706.71 463.03 841.28 482.99 685.83 600.30 739.88 695.48 844.49 709.47
00020056 00000030 651.28 348.74 466.98 523.06 707.43 466.25 838.43 483.83 685.77 600.96 740.58 697.34 842.68 709.47
00020057 00000031 650.80 348.52 466.75 525.73 704.95 464.71 837.02 483.32 685.26 603.68 742.33 697.64 845.76 710.47
00020058 00000032 651.26 347.05 464.68 521.89 701.65 463.16 838.13 482.91 685.47 604.63 742.35 695.75 846.01 710.47
00020059 00000033 651.56 346.87 467.51 521.76 702.01 460.81 837.27 483.47 683.30 605.78 741.29 694.13 844.55 710.96
00020060 00000034 653.51 346.82 461.47 519.31 700.13 463.71 837.09 485.08 684.60 606.57 738.92 695.25 840.53 711.47
00020061 00000035 654.65 348.95 458.08 516.44 700.46 462.31 835.23 487.92 681.03 608.58 739.45 693.36 839.78 712.11
00020062 00000036 650.31 350.38 461.11 515.33 696.58 464.50 833.60 491.18 676.71 612.60 732.45 692.49 836.03 712.58
00020063 DELETE   649.16 354.13 459.47 515.33 695.26 466.00 828.83 491.66 671.46 614.69 731.62 693.15 836.29 711.45
00020064 00000038 644.86 360.93 461.61 510.27 692.98 470.56 826.93 495.26 668.24 616.56 728.73 693.29 834.29 710.92
00020065 DELETE   643.62 358.21 460.91 512.49 688.85 469.31 822.06 496.03 661.35 618.13 727.60 692.54 830.20 711.45
00020066 00000040 644.39 361.01 459.34 508.48 693.77 469.29 818.78 495.37 661.71 614.52 732.12 690.79 829.17 708.83
00020067 00000041 656.09 365.29 444.33 510.01 703.27 487.82 818.77 511.53 660.75 617.64 735.21 706.39 845.07 718.65
00020068 00000042 645.11 361.96 457.56 506.62 688.29 471.00 822.06 496.06 664.35 617.82 724.70 691.38 831.83 709.49
00020069 00000043 655.98 358.49 444.71 519.20 700.98 487.90 818.78 509.58 659.50 617.86 734.42 708.40 844.12 719.25
00020070 00000044 656.10 362.51 445.35 516.58 698.77 488.13 815.08 506.27 657.78 617.11 733.38 710.49 840.86 718.59
00020071 00000045 655.61 363.24 445.91 515.84 700.16 488.73 815.70 507.42 658.13 617.31 734.96 709.53 842.73 717.95
00020072 00000046 656.30 361.77 443.29 519.41 701.19 489.35 816.05 506.38 659.53 616.25 735.90 710.73 844.58 718.01
00020073 00000047 655.28 363.13 446.61 518.16 699.24 488.17 816.48 506.07 658.81 617.55 736.35 710.30 845.72 718.33
00020074 00000048 654.68 360.40 447.18 520.81 697.64 488.55 814.73 504.79 658.25 617.09 735.54 711.22 844.39 718.01
00020075 00000049 654.45 361.02 449.11 519.82 695.92 488.32 815.02 504.22 658.22 617.33 735.29 712.02 845.46 718.49
00020076 00000050 655.49 363.71 447.56 518.47 696.68 488.88 813.70 503.19 657.52 616.96 736.07 712.56 845.50 717.72
00020077 00000051 656.19 361.65 446.75 520.31 697.52 488.99 811.01 504.29 654.58 617.51 737.23 712.41 842.83 718.34
00020078 00000052 654.93 366.97 450.12 515.00 696.46 488.81 808.35 502.81 652.18 617.71 736.71 712.75 841.26 717.58
00020079 00000053 655.44 367.73 449.44 513.68 695.98 487.71 809.53 503.05 653.98 617.65 736.57 712.07 843.56 717.93
00020080 00000054 653.98 358.29 449.67 523.60 695.58 489.16 809.94 504.49 653.87 618.82 735.79 712.00 842.97 718.03
00020081 00000055 654.51 359.23 447.75 522.91 697.87 488.81 809.23 505.55 654.16 617.49 736.26 710.90 842.22 718.01
00020082 00000056 653.79 358.09 448.67 525.46 697.01 487.80 809.67 504.93 654.26 617.13 735.30 711.52 842.90 719.02
00020083 00000057 653.81 362.36 450.19 521.71 696.99 487.76 809.46 504.37 654.55 617.05 734.97 712.26 841.75 719.34
00020084 00000058 653.33 361.77 453.91 521.85 697.76 488.00 810.33 504.25 654.73 616.95 734.08 712.95 839.73 719.67
00020085 00000059 653.38 359.95 452.80 523.35 696.76 487.80 812.52 504.71 655.49 617.23 733.07 713.02 840.65 720.40
00020086 00000060 653.52 358.83 451.49 524.55 699.29 487.88 812.07 506.58 655.84 617.99 733.30 713.34 837.38 722.24
00020087 00000061 653.75 360.31 452.21 524.89 696.46 487.31 810.84 505.22 654.41 619.02 731.74 715.56 836.60 723.83
00020088 00000062 654.94 358.40 448.18 531.65 699.80 489.18 807.83 502.16 656.07 615.51 731.85 719.18 832.86 723.37
00020089 00000063 652.66 359.25 448.16 532.51 703.22 485.84 813.25 503.39 659.43 614.48 729.05 717.40 833.22 725.41
00020090 00000064 641.47 357.00 465.78 519.67 696.42 467.11 818.59 491.74 661.65 614.63 730.59 695.72 826.50 712.11
00020091 00000065 648.25 347.60 455.88 523.77 696.70 469.11 824.87 490.47 667.89 614.37 730.40 698.18 832.93 712.66
00020092 00000066 645.08 346.68 472.30 534.30 700.30 467.25 831.66 487.27 669.65 607.06 730.94 698.57 839.16 711.62
00020093 00000067 647.90 342.31 470.17 543.73 704.53 473.90 829.32 482.75 673.31 603.92 740.36 707.70 843.18 711.35
00020094 00000068 648.14 340.88 471.25 547.37 711.47 477.29 830.15 482.35 675.33 599.89 741.50 710.68 839.01 711.15
00020095 00000069 647.75 337.50 474.05 545.31 703.99 467.75 835.62 484.97 677.02 603.47 738.15 701.68 844.36 712.60
00020096 00000070 650.68 341.96 472.95 530.11 701.41 462.48 840.39 485.03 678.19 600.96 733.33 693.08 842.68 709.30
00020097 00000071 653.74 340.57 463.30 523.58 698.30 457.78 845.83 486.90 683.86 603.56 732.70 685.77 848.35 708.29
00020098 00000072 653.66 344.61 462.79 517.50 699.39 457.10 843.49 486.15 683.33 604.45 734.32 684.93 847.01 707.17
00020099 00000073 653.93 342.97 463.14 518.14 700.03 457.57 842.86 485.60 684.13 601.70 734.52 683.93 846.58 705.56
00020100 00000074 653.17 344.10 465.57 518.21 700.22 457.99 843.00 485.93 683.68 602.90 733.55 684.51 846.08 705.99
00020101 00000075 650.65 346.98 465.58 515.14 695.67 455.24 840.84 488.44 679.68 607.95 732.05 680.94 847.84 706.20
00020102 00000076 648.15 343.83 467.57 522.06 692.29 454.91 838.49 486.36 674.89 608.44 729.81 683.60 848.03 707.31
00020103 00000077 647.28 340.82 468.40 525.59 689.64 460.67 836.39 486.92 673.33 607.95 729.47 688.50 845.94 708.41
00020104 00000078 644.73 343.64 471.57 525.46 686.02 466.56 833.92 487.50 669.01 609.56 725.89 692.57 844.17 708.10
00020105 00000079 644.92 347.53 468.30 520.79 683.99 465.04 830.49 486.66 666.91 610.71 725.41 692.43 843.01 707.97
00020106 00000080 643.59 347.13 469.88 522.07 686.04 465.74 828.99 488.21 665.85 611.57 725.96 692.00 841.12 707.92
00020107 00000081 644.49 346.44 465.98 522.13 686.25 467.46 827.71 486.84 664.77 610.31 725.91 695.35 839.38 708.82
00020108 00000082 643.69 351.19 467.25 517.57 690.31 467.94 824.05 484.93 663.95 609.42 731.14 696.03 837.44 707.07
00020109 00000083 642.95 349.39 463.30 527.56 694.47 470.70 822.36 483.92 665.85 606.27 732.98 697.80 837.48 705.51
00020110 00000084 644.58 345.57 466.60 531.85 692.60 470.18 823.47 484.12 666.00 608.88 731.99 699.74 836.26 708.14
00020111 00000085 649.05 348.11 465.78 522.68 699.72 467.68 829.38 488.49 670.40 607.90 727.77 696.19 831.25 711.00
00020112 00000086 657.53 351.82 443.55 518.51 695.24 479.78 828.33 491.15 665.84 608.23 730.32 714.14 838.90 717.32
00020113 00000087 662.26 350.93 440.12 516.67 702.44 473.52 838.77 490.35 676.41 603.58 726.07 710.09 832.79 718.03
00020114 00000088 653.24 334.53 462.57 535.10 701.29 462.74 838.91 482.91 678.98 596.94 727.20 696.95 829.62 712.60
00020115 00000089 654.98 333.89 460.43 535.05 704.25 461.75 834.67 482.77 676.07 597.96 727.69 697.16 825.84 713.23
00020116 00000090 656.48 327.22 459.12 538.27 704.01 457.54 836.18 481.73 677.47 594.72 728.65 691.18 830.29 709.86
00020117 00000091 656.08 323.68 457.67 540.17 702.92 457.48 835.14 480.46 676.82 593.71 730.06 691.00 832.91 708.56
00020118 00000092 657.22 321.94 455.39 540.46 701.81 453.25 837.14 480.05 677.23 593.63 730.28 688.23 834.30 708.93
00020119 00000093 658.69 331.78 441.30 530.16 697.95 467.74 836.75 485.76 672.45 598.25 727.46 704.77 835.72 714.24
00020120 00000094 658.54 338.17 440.27 522.89 696.32 470.64 833.17 487.77 670.41 600.32 727.12 704.39 835.62 712.81
00020121 00000095 656.41 343.07 438.11 515.53 699.94 468.73 830.39 490.42 667.00 599.48 725.50 700.13 830.35 711.80
00020122 00000096 655.84 341.13 447.69 523.42 700.68 469.88 825.76 495.99 666.22 608.50 727.32 702.13 831.34 716.47
00020123 00000097 652.96 338.09 441.46 531.88 701.74 465.46 826.85 483.62 661.15 597.96 721.62 711.30 815.31 720.36
00020124 00000098 653.24 340.26 447.50 534.09 703.46 468.96 819.63 492.82 662.86 604.51 726.81 709.59 823.53 721.81
00020125 00000099 652.71 346.54 442.16 528.81 702.15 474.49 816.11 496.40 663.56 606.29 728.81 709.19 825.09 719.95
00020126 00000100 652.55 352.29 437.26 521.94 703.82 475.07 813.62 498.18 662.55 606.62 729.18 706.90 825.24 718.72
00020127 00000101 654.43 350.20 432.90 521.58 706.58 475.86 813.96 498.46 663.37 604.86 730.75 704.91 826.14 716.32
00020128 00000102 654.52 353.70 432.52 514.95 703.33 476.58 812.59 496.46 662.57 603.83 730.25 704.37 827.47 713.44
00020129 00000103 654.38 356.03 435.97 508.94 698.77 475.44 816.81 498.23 661.76 607.10 727.90 703.68 831.47 715.21
00020130 00000104 654.03 353.99 434.81 509.37 697.00 477.93 818.60 500.37 662.37 608.64 725.31 703.76 831.64 715.32
00020131 00000105 654.61 353.99 437.39 509.97 697.33 476.21 820.50 499.70 663.57 608.40 725.11 704.17 831.37 716.60
00020132 00000106 653.87 353.40 440.04 511.85 698.65 475.83 818.62 499.83 660.92 606.46 725.33 703.52 829.31 716.20
00020133 00000107 653.89 351.04 438.08 511.61 699.62 473.11 821.99 499.77 664.03 605.21 723.63 701.98 828.48 716.96
00020134 00000108 651.72 354.06 444.62 515.72 701.86 474.28 815.84 500.33 660.30 605.28 727.31 702.92 825.92 716.83
00020135 00000109 651.11 355.34 445.74 515.89 701.45 472.33 814.44 496.88 659.08 603.46 725.41 704.06 823.33 716.63
00020136 00000110 650.37 351.97 448.11 518.79 700.67 472.48 812.96 498.81 656.12 604.44 726.98 703.60 824.02 717.47
00020137 00000111 650.26 358.23 450.57 509.58 701.44 471.81 820.08 499.42 659.85 604.36 723.56 701.91 826.29 717.20
00020138 00000112 649.82 359.77 453.46 504.89 700.78 474.25 819.39 500.86 657.74 605.08 723.99 700.39 828.11 714.77
00020139 00000113 650.79 365.10 452.68 497.59 701.21 472.93 820.91 501.69 657.96 606.14 722.37 699.13 826.52 715.43
00020140 00000114 651.96 360.36 448.69 500.66 701.58 474.48 816.78 501.79 656.50 605.52 724.53 698.50 826.82 713.23
00020141 00000115 653.23 357.13 451.21 503.87 701.77 474.71 815.07 500.43 656.00 606.68 727.33 700.64 826.46 713.98
00020142 00000116 653.41 354.51 446.95 507.85 701.48 475.23 815.78 500.19 657.47 605.65 725.52 701.55 825.88 714.54
00020143 00000117 653.51 352.77 447.05 511.91 703.20 474.35 817.29 500.79 659.75 606.93 726.75 703.21 824.94 717.13
00020144 00000118 654.09 350.08 444.36 516.08 705.29 473.18 816.99 499.63 660.25 604.35 727.81 702.39 825.18 716.33
00020145 00000119 654.00 351.46 441.86 515.54 705.82 471.97 818.63 497.81 662.29 602.14 727.79 702.02 825.69 715.79
00020146 00000120 655.44 354.89 440.61 514.39 709.82 472.82 817.32 497.56 662.88 601.21 731.91 700.27 827.78 713.12
00020147 00000121 655.19 355.69 429.33 503.69 704.53 466.27 821.54 485.56 657.70 595.09 723.80 701.35 819.59 709.67
00020148 00000122 654.88 354.47 428.56 505.76 704.01 467.79 821.44 486.52 657.94 595.86 722.88 702.00 818.70 710.10
00020149 00000123 655.73 353.68 426.87 504.83 702.71 467.35 822.61 487.10 657.83 595.12 721.88 700.91 819.93 709.74
00020150 00000124 654.90 352.88 426.61 503.23 700.19 467.77 822.19 486.92 656.88 595.70 721.15 701.01 820.46 709.30
00020151 00000125 654.59 348.23 425.78 503.71 696.76 466.27 825.20 488.62 658.07 595.90 716.50 698.09 819.35 709.26
00020152 00000126 652.71 353.21 428.23 497.81 697.44 466.61 826.15 488.58 659.54 595.18 716.30 696.09 820.11 706.99
00020153 00000127 651.85 354.85 434.85 495.89 697.76 467.38 826.76 489.17 659.09 594.67 715.50 695.59 819.34 706.72
00020154 00000128 656.16 354.07 434.57 498.76 700.02 472.50 819.46 499.15 662.38 603.69 724.35 693.67 828.56 708.68
00020155 00000129 652.73 349.34 432.14 503.61 696.18 468.25 824.01 491.35 657.88 596.26 716.63 697.02 819.05 709.38
00020156 00000130 654.90 348.61 443.74 516.94 703.63 473.84 820.06 499.14 664.37 604.53 729.00 700.34 828.39 713.88
00020157 00000131 654.82 353.61 439.75 512.79 704.21 472.65 820.00 498.08 666.38 602.25 728.79 699.19 828.38 712.85
00020158 00000132 653.94 343.95 425.31 516.87 699.16 466.12 824.51 486.41 658.17 593.23 718.28 702.91 818.13 712.66
00020159 00000133 655.68 336.70 426.19 520.57 695.58 468.74 825.44 485.62 662.26 594.09 719.99 704.12 819.79 711.67
00020160 00000134 656.79 326.84 431.82 526.82 696.15 468.16 826.34 484.68 663.14 592.30 723.03 700.77 822.55 708.51
00020161 00000135 656.68 326.23 431.23 529.32 693.01 467.91 825.05 482.60 660.38 592.76 723.07 703.68 823.16 709.80
00020162 00000136 654.69 327.33 431.78 519.96 690.42 467.73 829.25 485.04 664.15 593.40 717.28 699.10 821.72 708.28
00020163 00000137 653.44 325.20 430.98 521.36 687.41 465.81 829.12 485.27 661.63 593.53 713.95 698.66 817.84 709.64
00020164 00000138 654.02 329.53 428.66 521.74 688.95 468.62 829.28 484.67 662.44 593.35 715.04 704.03 818.23 711.77
00020165 00000139 653.50 332.49 430.36 523.64 694.16 466.47 829.28 484.30 663.09 591.11 716.59 701.83 817.33 710.70
00020166 00000140 652.57 330.07 430.56 529.31 694.47 464.60 830.23 482.59 663.40 589.27 715.54 703.11 815.60 712.19
00020167 00000141 651.98 331.35 434.06 528.07 694.63 462.78 829.15 480.84 662.78 588.87 717.91 702.40 817.72 711.37
00020168 00000142 650.68 326.24 434.32 533.65 695.15 461.25 824.10 478.30 660.23 587.99 721.44 701.54 818.43 709.16
00020169 00000143 651.19 329.26 433.75 531.19 698.17 459.27 823.32 479.31 658.76 587.74 723.05 700.12 818.73 709.81
00020170 00000144 652.14 333.99 433.72 525.81 700.07 458.43 822.30 476.92 660.07 586.50 724.96 699.46 819.41 707.90
00020171 00000145 653.10 328.43 433.65 533.44 696.42 452.97 822.82 476.67 657.92 588.60 724.62 698.96 819.12 712.02
00020172 00000146 654.35 332.30 433.42 530.74 699.71 455.50 822.03 477.91 656.38 589.83 725.15 701.30 819.06 712.93
00020173 00000147 653.12 328.76 433.08 535.21 701.13 455.92 821.74 478.12 657.54 589.82 723.38 701.82 815.58 713.34
00020174 00000148 652.57 329.80 434.53 533.45 698.55 456.83 821.76 477.56 656.71 588.24 721.09 702.03 814.97 712.70
00020175 00000149 651.11 329.21 431.07 533.52 695.71 458.22 820.69 477.05 654.56 585.97 719.50 701.13 813.80 709.92
00020176 00000150 648.58 327.09 434.14 531.47 692.46 457.66 817.09 477.85 651.76 589.25 717.75 699.28 810.37 709.52
00020177 00000151 644.99 327.19 442.92 532.76 696.61 461.81 817.42 478.51 650.84 587.10 717.06 700.39 810.97 707.94
00020178 00000152 646.23 331.29 438.51 528.86 701.67 461.57 818.88 477.41 649.69 582.69 715.90 700.70 805.55 707.41
00020179 00000153 645.30 327.79 441.75 531.53 698.09 462.67 819.08 477.75 649.25 584.08 714.57 700.83 805.71 707.24
00020180 00000154 644.39 334.31 438.78 526.42 698.36 464.64 814.83 477.50 648.64 586.79 715.50 703.17 805.36 707.48
00020181 00000155 643.33 325.80 441.40 533.86 701.14 466.12 816.98 479.61 654.44 583.45 715.56 700.17 805.03 705.60
00020182 00000156 641.04 324.89 443.82 537.43 700.77 468.25 813.35 478.70 648.71 584.70 716.17 703.93 803.11 706.55
00020183 00000157 640.43 337.13 446.83 525.61 699.37 468.99 812.20 477.69 645.46 586.04 714.89 705.79 801.57 706.76
00020184 00000158 637.15 335.20 447.96 524.65 699.02 471.74 811.88 481.21 646.93 586.54 713.97 703.42 802.67 705.68
00020185 00000159 636.63 347.75 447.77 512.22 701.16 469.99 810.72 482.10 645.91 586.97 712.53 699.99 800.24 703.87
00020186 00000160 635.10 343.83 446.14 516.83 702.58 464.44 807.52 482.36 642.66 587.58 714.31 695.09 800.09 703.31
00020187 00000161 635.13 341.14 443.41 517.47 698.20 460.95 804.31 481.63 639.37 588.85 713.14 694.19 799.32 704.43
00020188 00000162 633.14 329.23 439.30 528.30 693.55 460.67 807.54 482.39 642.09 589.00 710.41 695.65 800.40 707.11
00020189 00000163 633.36 324.80 439.94 533.12 695.96 460.32 809.02 481.51 643.00 587.41 711.24 696.97 799.80 708.19
00020190 DELETE   634.20 324.50 435.83 533.32 692.79 464.49 806.72 482.95 640.39 587.69 709.54 700.01 799.04 708.63
00020191 00000165 635.16 330.26 431.70 528.78 691.17 466.22 806.36 483.32 639.06 588.18 707.60 701.34 798.84 708.68
00020192 00000166 634.94 336.92 433.99 521.01 694.59 467.14 806.21 484.03 639.91 588.14 711.08 697.29 800.55 704.07
00020193 00000167 636.86 335.82 432.56 518.83 694.78 469.64 808.00 485.28 643.41 590.39 715.06 699.46 804.69 705.39
00020194 00000168 636.99 330.06 429.58 522.37 692.81 467.55 804.83 483.72 641.88 590.27 714.87 698.06 803.76 704.53
00020195 00000169 636.16 322.91 431.49 529.75 687.67 467.19 805.26 483.75 641.35 589.36 712.42 697.44 804.72 704.58
00020196 00000170 636.16 324.74 430.72 527.47 688.23 466.23 804.02 482.75 640.27 588.75 711.92 696.77 803.29 703.67
