Video ID: 	u7Csig7_fqw
H: 	1080
W: 	1920
FPS: 	25.0

FRAME INDEX X0 Y0 W H [Landmarks (5 Points)]

00004490 00000000 1043.30 440.14 434.71 525.88 1132.99 685.32 1340.63 730.89 1197.17 845.88 1127.05 872.96 1257.19 910.02
00004491 00000001 1036.09 456.69 435.69 505.37 1136.42 697.79 1324.00 730.52 1198.04 819.77 1135.70 875.14 1261.84 901.39
00004492 00000002 1041.11 432.02 432.44 535.42 1130.17 671.66 1334.91 723.96 1191.65 834.69 1116.84 863.34 1249.71 906.19
00004493 00000003 1042.93 409.47 437.36 550.72 1141.60 657.99 1341.59 708.27 1204.49 822.88 1126.42 851.62 1260.44 892.76
00004494 00000004 1054.43 402.07 436.51 563.15 1153.26 650.11 1354.45 701.11 1218.50 816.94 1133.96 841.21 1275.33 883.38
00004495 00000005 1058.92 409.93 433.01 554.72 1157.97 649.39 1357.36 697.86 1225.84 810.39 1143.32 840.43 1281.89 880.42
00004496 00000006 1049.65 408.66 439.87 556.09 1152.26 648.98 1352.86 698.82 1219.20 811.45 1137.56 835.78 1280.06 876.21
00004497 00000007 1041.67 405.40 437.23 546.50 1139.97 648.62 1339.98 699.65 1202.83 809.12 1124.21 832.71 1266.32 873.94
00004498 00000008 1044.41 408.11 440.59 511.37 1131.74 647.28 1334.11 685.30 1195.71 797.30 1123.33 840.97 1262.89 872.89
00004499 00000009 1042.29 398.10 435.74 523.54 1129.40 635.39 1335.37 678.16 1193.91 788.53 1116.93 828.30 1265.94 864.10
00004500 00000010 1046.26 383.19 432.51 552.45 1131.89 615.78 1331.76 667.44 1186.23 773.36 1119.83 812.77 1268.49 855.95
00004501 00000011 1052.03 371.18 429.67 564.78 1137.34 601.01 1332.71 663.43 1180.96 762.36 1116.84 799.03 1269.23 850.85
00004502 00000012 1048.67 362.94 432.55 560.07 1133.07 591.96 1328.46 653.68 1175.69 750.61 1113.73 790.07 1265.01 840.54
00004503 00000013 1043.84 342.81 425.66 559.99 1127.75 573.73 1316.26 642.85 1165.95 736.87 1105.20 777.48 1249.72 833.19
00004504 DELETE   1038.75 318.54 422.28 577.96 1125.57 558.36 1306.99 639.35 1155.14 723.36 1093.78 760.02 1237.51 824.13
00004505 00000015 1044.21 315.02 425.01 582.96 1126.14 540.47 1298.58 638.36 1143.09 722.39 1085.54 742.41 1215.18 823.35
00004506 00000016 1048.14 301.00 422.99 593.57 1128.46 528.43 1298.68 617.08 1143.81 700.99 1087.06 738.19 1212.49 812.07
00004507 00000017 1053.38 291.13 428.77 597.47 1134.67 521.89 1305.51 602.25 1148.46 684.91 1097.02 735.75 1221.33 803.15
00004508 DELETE   1061.65 278.18 425.29 607.03 1142.28 510.69 1314.19 585.82 1155.11 670.69 1109.31 728.72 1237.02 792.06
00004509 00000019 1063.95 268.22 426.12 615.36 1148.60 501.54 1322.66 578.86 1158.99 660.60 1108.49 723.18 1237.80 788.34
00004510 00000020 1066.71 268.69 421.24 611.09 1150.06 496.30 1318.06 576.68 1156.27 654.72 1108.94 715.12 1232.73 781.98
00004511 00000021 1069.76 266.20 417.99 612.04 1151.89 493.60 1313.93 571.53 1156.21 648.17 1110.88 713.51 1228.72 777.92
00004512 00000022 1070.43 265.83 419.63 610.58 1152.78 490.72 1318.25 567.43 1158.98 642.01 1111.90 712.06 1229.49 775.38
00004513 00000023 1073.60 249.97 423.08 625.26 1158.75 481.52 1328.51 569.38 1180.19 643.54 1117.51 700.28 1238.68 773.54
00004514 00000024 1079.01 246.59 427.08 632.63 1163.02 480.11 1330.05 561.97 1181.19 636.69 1127.70 701.67 1248.69 769.76
00004515 00000025 1081.14 248.82 428.53 640.55 1169.32 482.28 1335.91 563.53 1186.91 640.50 1131.14 703.62 1256.41 771.25
00004516 00000026 1082.57 249.76 426.60 639.05 1168.53 488.16 1332.26 571.36 1184.47 647.25 1129.77 707.82 1249.38 776.85
00004517 00000027 1081.80 252.98 419.22 635.34 1160.00 495.21 1320.72 579.11 1175.59 655.95 1123.49 720.56 1233.57 789.98
00004518 00000028 1077.77 266.99 416.81 622.28 1150.87 500.62 1320.17 573.11 1157.37 655.62 1119.25 731.94 1236.92 792.47
00004519 00000029 1075.23 265.19 417.87 621.86 1149.57 498.97 1316.39 573.55 1155.18 652.80 1115.20 726.45 1233.54 788.42
00004520 00000030 1076.18 259.44 418.69 623.60 1153.20 491.56 1321.10 566.96 1159.20 645.34 1118.08 715.91 1240.59 777.95
00004521 00000031 1080.47 247.69 422.91 632.80 1161.14 484.85 1327.37 567.66 1179.17 643.35 1127.33 699.98 1254.95 768.59
00004522 00000032 1081.02 240.45 427.18 635.65 1164.89 477.94 1333.08 561.26 1180.63 635.41 1125.65 695.62 1252.12 764.95
00004523 00000033 1082.24 240.24 422.61 625.90 1162.59 470.83 1331.11 554.51 1178.29 629.82 1122.59 690.56 1244.22 760.32
00004524 DELETE   1073.89 240.21 420.16 619.66 1150.97 470.14 1318.83 551.74 1168.92 627.37 1114.24 688.79 1235.59 757.08
00004525 DELETE   1055.32 241.22 419.17 620.63 1139.84 482.35 1301.25 551.63 1148.41 633.59 1105.36 702.43 1224.57 758.41
00004526 DELETE   1048.67 253.17 414.01 609.53 1129.88 494.98 1280.85 569.07 1136.56 643.12 1094.82 704.18 1207.04 764.03
00004527 00000037 1042.57 265.83 415.22 606.18 1119.93 495.92 1274.24 574.70 1124.08 650.02 1084.48 706.13 1204.06 769.85
00004528 00000038 1043.30 263.77 416.67 604.51 1124.98 498.17 1278.02 574.14 1130.21 648.06 1088.99 704.60 1207.62 765.79
00004529 00000039 1046.48 263.63 418.95 604.33 1131.33 495.28 1287.67 569.67 1138.65 648.48 1095.47 705.61 1215.27 765.64
00004530 00000040 1051.05 262.19 417.81 610.51 1130.45 498.00 1293.31 571.07 1141.06 657.04 1100.06 712.66 1225.53 771.84
00004531 00000041 1051.29 273.07 415.67 607.72 1125.27 510.15 1291.17 577.43 1143.91 666.60 1100.21 727.45 1224.10 782.71
00004532 00000042 1040.17 290.31 419.95 593.54 1118.72 520.46 1282.64 592.45 1134.29 674.23 1086.09 728.71 1207.30 788.33
00004533 00000043 1039.10 276.11 423.05 606.87 1120.36 510.59 1282.66 584.57 1131.63 663.56 1084.86 723.32 1204.72 783.95
00004534 DELETE   1042.50 258.90 421.98 614.37 1126.39 496.34 1288.23 568.29 1138.97 650.33 1093.90 707.90 1220.62 766.27
00004535 00000045 1040.58 262.26 420.85 607.70 1126.59 483.09 1293.17 553.27 1139.58 644.23 1096.47 697.68 1233.69 754.52
00004536 DELETE   1037.61 248.09 416.77 620.48 1115.75 488.95 1287.65 553.53 1137.01 642.60 1092.24 702.59 1229.57 754.55
00004537 DELETE   1024.37 252.31 420.01 621.29 1095.92 488.14 1267.88 553.36 1117.08 643.07 1077.82 703.14 1217.50 756.07
00004538 00000048 1020.46 238.77 419.35 625.85 1090.78 481.21 1266.15 543.44 1116.89 633.17 1072.41 695.11 1215.01 745.85
00004539 DELETE   1024.54 236.29 418.04 613.20 1095.31 467.96 1276.09 523.63 1125.31 619.40 1074.44 685.58 1219.46 731.01
00004540 00000050 1020.50 215.07 423.68 632.70 1093.75 456.93 1279.82 513.08 1128.14 606.84 1066.05 677.16 1220.55 723.39
00004541 00000051 1018.23 209.27 420.86 630.46 1090.98 451.62 1278.03 504.37 1125.25 594.66 1064.38 673.61 1213.40 716.83
00004542 00000052 1017.28 214.87 416.84 622.17 1088.96 450.61 1274.95 501.00 1124.81 594.48 1066.25 675.43 1209.18 716.64
00004543 00000053 1018.05 216.35 414.95 618.68 1088.22 451.70 1277.48 501.05 1127.78 596.26 1067.45 677.37 1211.29 717.35
00004544 00000054 1015.52 214.41 414.19 623.08 1089.62 454.04 1276.30 501.95 1127.22 595.97 1066.72 677.67 1212.99 716.52
00004545 00000055 1014.11 212.10 413.59 615.74 1087.87 455.80 1262.30 501.67 1113.59 588.94 1066.48 670.01 1209.97 706.57
00004546 00000056 1014.16 224.57 408.34 600.40 1075.91 451.39 1256.26 502.69 1100.41 593.69 1057.33 670.18 1198.05 714.00
00004547 00000057 1014.47 227.84 406.81 597.11 1077.94 457.75 1259.02 508.06 1106.09 598.46 1055.90 675.40 1194.47 719.10
00004548 00000058 1008.52 229.06 408.82 603.51 1081.37 472.42 1256.17 518.68 1107.25 614.06 1060.98 688.68 1201.02 726.37
00004549 DELETE   1003.56 244.53 409.21 601.63 1075.13 485.03 1257.49 528.07 1107.67 625.43 1056.03 700.01 1201.50 735.84
00004550 00000060 989.54 249.35 410.41 598.61 1064.06 487.34 1246.80 534.69 1099.07 631.76 1047.02 702.99 1190.61 741.57
00004551 00000061 981.95 241.59 411.94 599.29 1060.30 484.52 1242.24 533.99 1095.71 631.08 1042.77 699.19 1188.12 738.84
00004552 00000062 985.84 241.89 410.28 599.07 1062.19 482.17 1240.54 526.91 1095.91 625.00 1045.54 696.31 1187.30 732.26
00004553 00000063 989.83 239.11 407.42 598.87 1064.91 477.10 1241.74 520.87 1098.50 619.24 1045.51 691.99 1188.19 727.06
00004554 00000064 992.16 231.45 409.94 600.53 1065.85 470.24 1241.01 513.16 1096.82 609.75 1045.52 684.75 1187.14 718.82
00004555 00000065 1009.42 229.56 404.84 592.64 1075.10 466.38 1249.82 512.56 1102.55 600.85 1052.88 678.32 1185.70 719.27
00004556 00000066 1014.36 216.66 413.50 612.69 1091.26 463.97 1267.22 508.45 1120.79 596.03 1068.94 676.10 1212.36 711.89
00004557 00000067 1023.62 213.19 411.97 621.33 1104.27 459.76 1282.15 500.00 1147.44 594.88 1084.15 675.75 1223.79 708.92
00004558 00000068 1030.22 211.18 408.06 618.06 1108.46 459.17 1285.10 498.51 1150.73 591.56 1087.74 673.36 1224.16 705.54
00004559 00000069 1028.49 208.85 414.38 622.12 1105.06 454.27 1287.75 496.47 1148.92 585.79 1083.84 672.16 1220.77 707.65
00004560 00000070 1032.82 210.91 409.57 615.85 1108.58 444.31 1291.17 495.72 1145.99 579.39 1087.66 660.80 1221.62 704.47
00004561 00000071 1042.31 215.84 404.62 606.38 1121.05 444.44 1297.85 492.78 1154.27 575.48 1096.52 656.11 1233.73 696.45
00004562 00000072 1036.68 211.03 409.44 612.32 1114.94 442.45 1297.26 495.66 1151.81 579.08 1093.93 657.48 1230.82 702.40
00004563 DELETE   1029.99 207.76 408.92 614.57 1104.95 444.07 1289.18 497.48 1142.17 577.69 1081.45 656.52 1219.15 701.71
00004564 00000074 1027.57 191.72 411.97 623.79 1105.51 428.48 1273.43 483.36 1131.03 558.55 1072.14 641.82 1199.96 687.64
00004565 00000075 1024.49 177.92 410.09 611.68 1092.57 405.33 1275.25 469.16 1115.47 536.05 1058.79 624.08 1192.67 678.24
00004566 00000076 1023.62 168.51 420.91 607.88 1109.13 395.46 1272.46 457.72 1123.82 525.11 1066.12 608.80 1180.66 661.15
00004567 DELETE   1022.37 165.36 431.21 600.59 1120.13 387.52 1281.55 451.72 1132.24 508.77 1070.41 594.79 1181.44 648.80
00004568 DELETE   1024.08 165.75 441.63 590.65 1129.88 383.34 1294.28 450.08 1142.31 503.47 1073.35 584.84 1191.12 640.49
00004569 00000079 1023.12 170.21 450.63 590.28 1133.72 386.55 1304.86 452.21 1152.22 507.35 1077.13 588.91 1200.78 643.78
00004570 00000080 1030.67 180.48 449.08 588.90 1138.85 393.16 1312.07 458.42 1157.68 517.98 1087.35 600.15 1214.51 654.13
00004571 00000081 1043.56 186.45 440.14 591.78 1147.10 401.96 1317.30 465.30 1161.95 528.81 1097.91 609.62 1222.73 662.32
00004572 00000082 1048.93 191.98 436.28 597.18 1151.83 407.13 1321.00 468.21 1166.68 533.26 1103.16 616.01 1228.77 667.11
00004573 00000083 1050.67 192.79 434.37 596.51 1151.40 408.25 1320.24 469.25 1165.89 537.13 1104.64 617.05 1231.02 668.00
00004574 00000084 1051.41 191.84 432.26 595.01 1150.72 411.03 1318.78 471.74 1165.78 541.35 1104.62 618.38 1231.06 668.85
00004575 00000085 1049.73 197.27 432.19 594.19 1149.96 418.69 1316.85 477.93 1166.37 547.15 1106.23 624.86 1231.05 674.24
00004576 00000086 1047.15 199.82 430.87 601.65 1148.91 422.63 1316.37 481.70 1168.64 550.96 1106.68 630.96 1232.67 680.56
00004577 00000087 1046.71 199.39 430.15 607.73 1147.43 419.46 1312.89 477.74 1165.24 549.20 1106.46 631.45 1232.45 680.36
00004578 00000088 1055.00 195.58 426.23 619.27 1144.02 410.03 1319.11 469.82 1161.98 544.07 1094.83 626.23 1228.37 677.58
00004579 00000089 1051.92 186.92 428.35 614.46 1147.39 406.79 1313.29 464.09 1162.05 532.71 1101.66 620.24 1232.34 667.82
00004580 00000090 1047.27 182.61 434.04 607.11 1143.50 402.05 1315.02 458.09 1161.75 525.08 1098.89 611.51 1236.46 657.57
00004581 00000091 1045.83 177.77 435.53 602.73 1141.29 401.26 1316.11 459.31 1159.97 525.14 1097.33 609.30 1235.16 656.79
00004582 00000092 1045.72 179.78 432.18 598.14 1139.14 402.07 1310.90 460.86 1156.84 528.11 1094.67 609.93 1228.31 658.05
00004583 00000093 1043.64 184.37 431.44 597.18 1138.48 404.37 1308.14 462.28 1155.97 530.83 1093.64 614.71 1221.65 662.55
00004584 00000094 1042.96 184.97 431.40 600.16 1138.75 405.09 1307.74 462.27 1157.00 530.47 1095.84 615.71 1222.69 662.97
00004585 00000095 1042.82 182.70 432.87 599.64 1138.45 402.33 1309.59 459.95 1157.30 528.73 1094.85 612.26 1227.18 659.67
00004586 00000096 1043.00 181.30 432.61 598.78 1137.76 401.87 1310.40 459.04 1157.07 528.00 1094.49 611.02 1229.31 657.91
00004587 00000097 1044.51 181.31 431.68 601.99 1138.57 401.97 1310.32 458.71 1157.51 528.26 1095.06 612.55 1229.24 659.26
00004588 00000098 1044.85 181.59 430.70 611.46 1140.18 402.44 1308.66 457.89 1157.96 527.27 1096.00 616.43 1227.14 662.38
00004589 00000099 1043.88 182.51 431.46 619.46 1141.36 402.85 1308.30 459.47 1158.21 529.04 1096.03 617.87 1231.38 664.64
00004590 00000100 1044.83 183.71 430.21 615.53 1140.47 401.59 1308.77 460.46 1156.34 530.50 1094.66 615.68 1232.90 664.09
00004591 00000101 1043.80 180.93 430.47 612.95 1138.72 401.14 1308.84 461.51 1155.70 530.81 1093.22 613.36 1233.09 662.58
00004592 00000102 1041.53 175.48 429.33 602.30 1135.49 396.81 1305.74 459.57 1151.28 525.58 1089.49 602.95 1228.36 653.93
00004593 00000103 1035.90 169.39 438.01 599.10 1131.92 391.33 1305.01 453.54 1148.17 516.39 1083.54 594.16 1223.98 644.92
00004594 00000104 1034.56 161.31 438.78 600.46 1132.39 386.24 1302.58 449.05 1147.69 507.67 1081.70 587.32 1216.46 638.93
00004595 00000105 1037.11 160.98 435.89 595.86 1131.55 380.40 1299.07 443.15 1143.38 504.16 1080.04 582.52 1208.99 634.43
00004596 00000106 1036.12 162.92 436.40 588.98 1130.72 378.67 1295.81 438.89 1142.16 500.97 1078.96 580.93 1198.93 631.16
00004597 00000107 1035.83 162.05 432.51 586.19 1130.07 378.04 1291.92 436.57 1140.27 496.24 1078.11 578.53 1196.14 627.45
00004598 00000108 1038.15 160.80 427.62 586.85 1127.31 379.83 1285.38 434.60 1134.92 494.83 1077.82 579.96 1192.76 625.78
00004599 00000109 1038.76 162.68 421.51 586.95 1123.94 381.72 1280.08 431.71 1129.71 493.81 1077.22 585.46 1191.39 627.41
00004600 00000110 1038.40 163.35 418.59 587.33 1120.48 379.12 1278.37 429.14 1125.69 493.71 1075.38 586.98 1191.43 628.92
00004601 00000111 1035.46 162.24 420.30 592.75 1117.27 379.93 1277.99 429.03 1122.84 494.11 1075.14 588.30 1192.89 629.51
00004602 00000112 1034.39 165.18 418.98 593.45 1114.78 381.08 1275.83 429.77 1120.47 494.21 1074.22 590.40 1193.03 631.27
00004603 00000113 1033.40 162.47 419.27 603.66 1115.14 382.71 1275.97 430.80 1122.17 494.80 1075.65 593.41 1194.40 633.91
00004604 00000114 1035.94 162.44 417.37 607.51 1112.54 384.84 1274.11 431.77 1121.92 497.70 1075.88 596.47 1197.54 635.85
00004605 00000115 1035.29 157.99 415.94 613.17 1110.90 383.29 1272.12 429.43 1121.35 497.11 1075.96 594.72 1197.86 633.67
00004606 00000116 1032.58 156.65 419.18 619.19 1108.83 383.65 1272.77 427.95 1121.01 496.41 1075.37 598.21 1198.24 635.77
00004607 00000117 1034.63 161.39 416.16 621.12 1111.68 385.64 1272.25 428.02 1121.62 495.96 1079.40 600.52 1199.12 636.74
00004608 00000118 1034.94 161.86 414.42 626.44 1111.90 386.37 1272.50 428.08 1122.58 498.63 1080.47 604.75 1203.25 640.52
00004609 00000119 1036.45 162.77 411.32 621.12 1109.84 386.41 1271.04 429.04 1120.99 501.09 1079.16 605.10 1200.12 641.42
00004610 00000120 1041.76 159.84 404.47 613.88 1108.60 389.45 1266.51 429.29 1120.85 501.82 1077.77 607.84 1185.37 642.20
00004611 00000121 1040.46 161.30 404.19 616.27 1105.64 392.81 1261.38 430.33 1117.75 502.52 1076.34 611.89 1181.96 644.47
00004612 00000122 1039.95 160.35 404.84 619.66 1103.63 394.96 1259.85 430.73 1117.25 504.01 1076.13 615.64 1179.92 646.89
00004613 00000123 1039.01 161.91 405.60 618.27 1102.56 396.48 1258.81 432.09 1115.98 505.24 1075.61 617.13 1178.46 648.13
CROP_BBOX: 662 0 1877 1080
