Video ID: 	_7Twk0ZPy_o
H: 	1080
W: 	1920
FPS: 	23.976023976023978

FRAME INDEX X0 Y0 W H [Landmarks (5 Points)]

00107112 00000000 561.37 148.23 418.74 610.78 702.98 410.48 860.48 409.97 798.97 527.30 722.97 610.97 848.75 609.74
00107113 DELETE   564.51 146.86 418.77 610.13 703.40 408.67 861.63 410.96 796.29 527.12 722.22 609.76 847.09 610.66
00107114 00000002 565.36 146.51 416.11 607.00 697.52 405.62 853.71 412.68 783.56 525.25 713.56 605.99 835.72 610.96
00107115 00000003 560.75 138.97 412.76 618.34 689.21 401.72 842.19 414.46 769.04 521.39 698.18 602.57 821.81 612.43
00107116 00000004 555.20 139.04 412.38 620.31 680.55 399.97 832.53 411.99 759.59 516.24 684.77 597.99 811.97 607.62
00107117 00000005 549.77 136.93 417.86 622.84 671.73 398.34 826.84 408.46 751.45 515.92 677.94 597.62 808.88 605.54
00107118 00000006 548.27 139.06 415.81 616.99 664.75 397.82 823.36 406.25 748.17 515.62 675.71 597.15 807.16 603.75
00107119 00000007 546.41 138.85 414.35 616.27 664.93 398.02 821.32 405.01 749.93 517.55 680.25 598.37 808.06 603.81
00107120 00000008 542.22 120.76 423.46 633.78 657.35 403.62 824.27 406.03 742.56 520.94 678.89 601.91 810.56 604.61
00107121 00000009 542.92 137.43 414.54 622.83 664.02 401.92 819.63 407.28 751.41 522.96 681.67 605.67 808.70 609.91
00107122 00000010 541.74 140.09 412.50 619.77 660.11 401.67 816.43 405.66 745.20 523.26 677.24 604.36 804.86 607.50
00107123 00000011 541.25 142.63 407.35 608.17 655.30 399.50 813.52 405.51 738.99 521.82 672.44 602.16 795.94 607.73
00107124 00000012 538.29 143.22 410.57 605.13 652.15 399.78 812.12 404.69 736.68 520.78 672.05 600.10 797.42 604.59
00107125 00000013 537.15 139.46 410.63 610.27 651.78 398.77 812.50 399.92 739.37 519.56 674.51 599.16 802.83 600.11
00107126 00000014 536.03 130.26 421.27 622.78 657.51 397.45 817.67 393.92 750.42 515.36 685.76 599.55 814.72 595.82
00107127 00000015 546.08 137.47 419.66 615.69 673.02 395.06 828.12 385.79 771.32 510.40 708.21 600.04 835.30 591.06
00107128 00000016 551.36 146.02 424.12 600.71 688.16 389.67 848.42 369.87 797.87 501.76 727.68 598.72 854.07 580.90
00107129 00000017 556.10 141.59 423.26 592.84 697.94 387.57 858.19 364.59 811.75 496.02 740.29 589.69 868.76 569.02
00107130 00000018 560.58 139.33 419.71 579.30 703.31 384.58 860.94 358.98 817.37 488.53 746.52 582.10 872.94 559.06
00107131 00000019 561.70 130.43 416.66 577.89 704.30 379.14 861.79 355.52 817.11 481.09 748.15 576.34 869.44 555.12
00107132 00000020 557.51 131.13 417.88 580.69 695.38 373.86 854.57 348.80 807.83 480.25 744.06 577.10 862.34 554.23
00107133 00000021 549.81 128.70 415.31 583.13 687.06 366.47 842.23 345.52 794.98 472.77 731.53 572.66 843.86 553.51
00107134 00000022 539.71 134.50 415.14 574.00 671.39 360.13 835.65 347.82 776.62 473.24 713.81 567.95 831.05 556.75
00107135 00000023 527.60 122.47 422.18 579.85 659.26 359.48 832.01 349.72 763.82 468.99 697.13 558.61 835.34 552.12
00107136 00000024 524.11 110.87 422.70 592.93 659.63 356.65 829.08 348.18 764.06 463.93 697.22 557.24 832.13 551.92
00107137 00000025 524.32 108.93 420.80 590.54 663.45 353.80 828.18 343.34 769.21 458.48 706.19 555.04 834.03 547.86
00107138 00000026 524.96 114.78 419.38 588.09 666.05 351.77 829.38 337.16 775.82 456.69 704.96 550.03 842.28 538.82
00107139 00000027 526.91 100.62 419.21 592.03 678.01 349.62 833.52 329.86 788.62 453.85 717.59 543.75 851.08 527.42
00107140 00000028 529.88 97.59 420.30 592.05 684.23 351.41 841.03 327.94 798.71 453.82 724.41 546.02 858.19 526.43
00107141 00000029 533.51 92.94 417.37 597.95 688.90 355.55 845.29 330.84 805.13 456.00 727.12 548.30 861.62 527.69
00107142 00000030 534.08 93.73 418.79 604.42 688.49 354.71 845.30 332.37 803.46 456.22 724.34 550.38 860.56 531.74
00107143 00000031 529.74 92.76 419.92 601.75 685.52 352.30 842.39 333.48 798.88 453.46 719.98 548.84 853.38 533.46
00107144 00000032 525.39 103.99 417.37 583.90 676.85 349.47 833.77 338.22 785.11 454.82 710.17 545.15 838.99 536.57
00107145 00000033 517.03 111.08 418.22 586.23 662.60 352.65 829.28 345.60 770.81 458.48 691.84 547.19 828.96 542.78
00107146 00000034 502.13 119.79 424.30 596.72 647.62 357.31 812.71 344.06 766.78 458.16 679.02 560.52 817.18 548.22
00107147 00000035 499.95 123.69 426.60 598.63 646.43 358.29 812.99 344.97 764.61 464.41 677.68 564.50 816.55 552.14
00107148 00000036 509.93 134.64 421.89 589.68 651.23 361.51 819.94 345.28 773.57 463.08 685.33 567.48 828.55 552.71
00107149 00000037 528.27 132.88 419.99 588.35 675.57 354.93 841.53 342.73 791.20 466.14 712.12 565.66 843.16 554.19
00107150 DELETE   543.58 122.43 414.34 592.22 698.11 361.41 860.88 339.69 819.28 466.88 737.12 567.57 866.78 547.94
00107151 00000039 548.35 123.10 412.30 586.79 709.97 362.87 871.72 347.19 832.15 469.13 745.87 565.75 871.43 551.59
00107152 00000040 544.74 119.98 419.61 603.86 706.67 364.75 867.88 351.59 828.88 471.67 740.75 570.70 866.73 558.71
00107153 00000041 542.80 122.18 418.89 607.98 701.34 364.96 857.53 353.16 815.33 474.61 728.93 571.70 856.79 560.69
00107154 00000042 536.90 121.85 416.46 608.83 690.15 366.22 847.98 354.84 802.29 476.91 720.41 575.93 842.00 565.05
00107155 00000043 538.80 123.19 413.02 606.80 691.43 368.09 848.91 355.69 804.72 479.04 722.66 577.68 843.10 566.40
00107156 00000044 545.30 120.29 412.84 609.55 699.88 369.44 857.65 354.92 816.79 478.46 737.46 580.23 857.23 566.95
00107157 00000045 548.41 116.21 410.77 611.37 705.75 373.08 862.67 358.88 824.93 481.17 746.40 582.79 861.60 570.01
00107158 00000046 547.91 116.99 411.93 613.99 704.96 373.89 863.14 359.11 825.67 481.44 745.35 585.05 862.58 571.61
00107159 00000047 544.98 116.60 416.38 620.59 695.99 374.29 856.16 356.68 816.56 479.50 737.85 585.88 861.62 570.00
00107160 00000048 538.97 127.16 414.72 611.11 687.85 372.38 847.70 353.87 805.81 478.44 725.74 583.27 853.75 567.17
00107161 00000049 533.34 123.38 418.69 602.85 682.43 369.94 842.79 349.29 799.91 470.04 723.73 574.24 849.70 556.87
00107162 00000050 528.00 115.81 418.65 594.03 679.20 369.39 847.22 344.22 801.68 466.77 725.82 570.28 858.98 550.78
00107163 00000051 529.03 112.21 417.76 591.05 678.59 365.89 846.09 338.26 803.91 462.30 728.93 566.35 863.56 544.16
00107164 00000052 527.18 110.26 418.36 592.96 678.41 364.51 845.77 336.96 804.07 461.74 729.62 566.41 864.42 544.18
00107165 00000053 525.90 110.59 418.31 591.55 677.20 362.77 844.33 336.06 802.61 462.15 728.42 565.01 862.64 543.46
00107166 00000054 525.46 108.91 419.42 593.08 674.58 361.90 841.02 335.54 797.80 461.32 725.91 564.08 859.06 542.98
00107167 00000055 523.75 109.15 420.54 592.48 672.41 361.04 838.19 336.34 793.78 460.42 723.57 561.97 855.47 542.41
00107168 00000056 525.07 109.41 421.63 591.75 670.56 361.01 836.75 336.72 789.78 460.39 723.58 561.76 854.97 542.53
00107169 00000057 526.60 110.99 421.11 588.59 670.91 360.96 837.28 337.17 788.98 460.03 724.74 561.92 854.75 543.16
00107170 00000058 528.38 111.10 420.87 595.26 670.84 359.81 836.56 335.55 788.61 458.28 725.63 565.88 854.22 546.92
00107171 00000059 531.55 106.45 414.73 604.50 675.98 358.76 836.18 334.34 792.67 457.39 729.77 567.18 854.84 548.06
00107172 00000060 531.08 103.21 417.75 597.82 672.33 359.45 834.85 331.83 791.39 453.59 730.40 563.81 856.58 541.65
00107173 00000061 527.15 103.48 420.14 588.59 673.48 355.62 832.54 330.03 789.33 448.49 729.10 554.51 853.55 533.72
00107174 00000062 522.35 101.75 420.47 586.38 668.33 353.77 832.77 330.00 787.52 449.08 724.31 553.71 852.38 534.39
00107175 00000063 518.93 100.76 421.48 588.65 667.05 354.42 831.13 333.12 783.80 448.64 720.26 554.33 846.21 537.50
00107176 00000064 518.49 100.59 420.80 593.18 664.73 355.02 828.33 334.46 780.19 448.86 715.72 554.22 844.06 537.93
00107177 00000065 519.02 98.54 418.08 597.72 665.67 353.02 823.52 334.66 776.35 446.34 715.48 552.75 838.61 538.57
00107178 00000066 519.66 96.18 418.15 602.25 664.51 350.79 821.75 332.50 774.28 445.61 711.53 551.19 837.45 536.87
00107179 00000067 522.19 96.59 419.87 592.44 665.66 348.29 819.88 329.41 774.09 439.34 717.54 546.80 839.06 531.75
00107180 00000068 525.65 96.50 423.71 591.43 666.60 346.57 823.71 323.29 780.51 433.71 723.90 544.76 851.82 525.45
00107181 00000069 532.18 101.81 418.45 575.78 671.82 341.56 829.19 313.83 792.57 427.40 737.99 541.42 861.71 518.12
00107182 00000070 534.73 95.58 418.13 583.74 677.94 337.17 833.32 307.72 800.24 421.92 746.48 540.89 867.16 515.61
00107183 00000071 533.99 93.18 421.40 589.90 679.93 337.23 835.13 305.86 802.11 420.85 747.09 540.79 870.24 513.72
00107184 00000072 533.17 92.09 421.24 594.14 678.41 336.81 835.26 306.76 801.00 421.69 742.80 541.94 868.51 516.13
00107185 00000073 534.01 97.37 419.08 581.07 673.75 338.66 831.95 308.01 796.38 425.98 742.69 542.24 866.93 516.08
00107186 00000074 533.20 102.95 419.07 568.24 669.80 340.01 828.59 307.95 791.24 428.58 739.89 539.23 865.47 511.92
00107187 00000075 530.66 104.02 419.51 562.53 665.54 341.09 825.11 309.35 783.80 432.18 734.11 537.21 860.16 510.47
00107188 00000076 528.96 112.79 417.27 552.92 662.30 344.44 818.45 314.70 773.43 438.36 727.38 537.92 850.99 513.41
00107189 00000077 517.27 109.35 426.09 574.24 652.81 347.04 812.36 318.63 763.90 446.11 716.06 547.87 842.52 524.80
00107190 00000078 512.15 111.71 421.09 578.33 647.96 346.84 807.80 324.27 757.31 449.21 707.35 550.55 826.90 533.23
00107191 00000079 504.82 113.36 426.27 594.59 642.67 347.58 806.75 323.59 755.38 454.57 697.63 554.69 828.28 535.86
00107192 00000080 504.87 110.97 423.94 598.07 645.96 348.14 806.96 322.02 760.89 452.67 699.97 552.81 834.32 531.74
00107193 00000081 508.43 104.86 422.00 600.03 651.77 348.98 809.81 322.24 766.46 451.08 704.48 550.56 840.95 528.59
00107194 00000082 514.89 98.47 414.18 589.70 658.11 349.65 812.04 324.69 770.06 448.69 708.42 540.79 842.61 520.33
00107195 00000083 518.66 86.75 412.35 598.52 662.95 347.84 816.09 321.61 776.99 444.05 715.61 539.83 847.79 517.99
00107196 00000084 519.56 90.09 412.36 601.22 668.59 345.91 822.09 318.25 787.68 441.80 721.01 541.46 855.94 518.29
00107197 00000085 524.03 94.91 407.33 595.45 677.68 342.76 830.81 315.94 799.68 439.39 727.94 542.31 860.38 519.79
00107198 00000086 527.24 88.44 404.01 599.93 683.20 342.37 836.32 315.63 808.75 439.86 734.98 543.14 863.52 520.36
00107199 00000087 527.65 91.26 405.91 598.54 683.29 344.95 837.74 317.58 808.10 443.88 738.24 548.31 865.13 525.07
00107200 00000088 524.19 90.10 406.48 598.99 681.28 346.98 834.62 321.53 803.32 447.71 734.59 549.85 855.92 528.95
00107201 00000089 519.63 93.48 408.28 594.93 674.73 347.85 831.63 324.86 794.63 450.38 728.28 551.83 849.67 533.29
00107202 00000090 515.72 96.81 416.37 588.49 667.53 352.22 829.41 332.88 783.30 455.25 718.79 551.98 844.60 536.66
00107203 00000091 511.99 93.64 416.19 602.03 663.65 355.00 828.42 340.00 778.84 459.95 711.02 557.51 837.54 545.91
00107204 00000092 509.31 95.41 416.25 610.93 665.20 355.94 829.54 345.11 778.50 464.62 707.90 562.98 830.85 555.32
00107205 00000093 512.10 95.10 412.34 614.88 666.27 356.39 831.17 345.44 781.55 467.96 708.54 565.09 833.03 557.48
00107206 00000094 512.69 98.94 411.45 603.44 669.38 356.10 834.44 343.44 784.71 467.18 712.06 562.60 835.15 553.68
00107207 00000095 513.02 98.73 413.88 604.32 670.96 357.61 836.00 343.50 788.01 468.93 715.95 565.03 839.45 554.73
00107208 00000096 513.25 97.36 412.80 605.07 672.92 357.55 837.78 341.80 791.68 470.12 719.43 567.35 841.38 555.64
00107209 00000097 515.07 99.18 408.21 604.77 675.97 357.64 837.82 342.47 794.27 469.87 721.63 570.39 836.76 559.61
00107210 00000098 516.43 103.73 405.69 601.72 677.90 357.27 837.39 342.53 794.54 470.30 721.18 570.42 833.70 560.39
00107211 00000099 515.40 103.60 407.50 606.61 676.86 357.91 837.89 343.98 793.28 471.83 718.68 572.38 832.53 563.15
00107212 00000100 516.02 104.48 408.64 604.95 676.42 357.44 837.91 344.00 792.29 471.24 717.74 571.29 832.85 562.59
00107213 00000101 516.02 104.24 408.86 602.17 675.98 357.39 837.60 343.71 792.04 470.74 717.84 570.77 832.55 561.91
00107214 00000102 516.17 104.08 409.19 601.44 675.62 356.89 838.30 343.26 792.39 471.02 717.94 571.02 832.99 562.11
00107215 00000103 517.22 101.14 410.70 605.08 676.04 356.42 839.20 342.71 792.96 470.86 718.82 571.44 835.00 562.33
00107216 00000104 518.60 99.24 410.75 606.49 676.90 354.73 839.07 341.11 793.39 469.21 720.20 569.87 836.53 560.70
00107217 00000105 518.06 96.08 411.51 610.15 677.89 353.73 839.29 339.64 794.23 469.03 721.05 569.67 837.34 559.99
00107218 00000106 517.41 97.65 412.42 607.38 677.51 351.70 839.31 338.24 792.47 467.75 720.44 567.75 835.98 558.59
00107219 00000107 520.20 97.45 406.91 593.60 677.57 347.29 837.32 334.98 791.54 462.01 723.77 563.20 832.67 554.74
00107220 00000108 519.98 97.02 406.22 592.35 673.28 347.11 833.16 337.03 785.75 456.37 720.87 563.77 827.66 557.23
00107221 00000109 515.47 99.30 410.96 588.56 668.03 346.55 830.84 338.42 778.04 456.95 711.98 560.47 823.65 555.56
00107222 00000110 515.79 98.97 410.85 587.84 667.41 343.14 830.39 336.59 776.81 450.98 710.82 558.10 821.33 554.31
00107223 00000111 524.12 90.70 409.39 603.93 681.45 342.85 833.65 328.98 793.31 446.31 725.55 558.17 833.46 547.93
00107224 00000112 537.08 96.39 406.23 615.55 694.24 342.52 848.63 326.87 812.20 449.82 736.41 559.94 856.72 546.70
00107225 00000113 538.76 92.48 407.51 616.55 696.92 346.20 855.22 326.02 820.35 450.74 741.51 561.26 867.21 543.68
00107226 00000114 526.82 94.31 419.57 630.89 690.05 349.24 848.98 334.11 810.45 454.35 726.96 565.53 858.70 553.01
00107227 DELETE   517.61 110.54 418.60 606.39 673.35 349.17 835.91 342.08 787.12 455.88 709.96 563.31 835.92 559.14
00107228 00000116 505.33 119.92 421.66 595.25 657.12 358.69 822.40 343.74 778.11 454.59 691.75 569.42 819.99 556.34
00107229 00000117 510.71 107.78 418.99 603.02 661.54 355.79 829.45 351.20 771.33 459.86 697.21 564.38 819.09 562.92
00107230 00000118 519.90 114.87 418.99 591.57 669.52 358.86 837.95 344.57 784.85 465.52 714.19 565.61 840.54 555.67
00107231 00000119 532.64 108.88 406.74 590.54 689.66 374.14 851.24 349.83 811.13 474.99 738.96 577.37 860.16 558.23
00107232 00000120 542.92 107.70 398.05 596.81 699.10 381.47 858.58 350.06 823.86 481.73 754.64 583.85 875.51 557.54
00107233 00000121 542.04 108.61 399.59 595.29 696.58 382.70 857.33 352.52 820.98 483.80 752.89 584.81 874.72 559.67
00107234 00000122 534.14 111.83 402.00 599.68 691.68 378.73 850.98 356.40 810.61 487.25 734.64 581.35 858.29 563.69
00107235 00000123 519.65 116.03 413.91 612.89 672.55 376.07 836.90 366.18 783.83 490.22 708.05 583.15 831.97 577.15
00107236 DELETE   497.81 131.32 417.04 597.41 651.28 373.03 812.56 362.83 766.96 489.39 688.49 588.61 804.59 578.58
00107237 00000125 490.58 123.62 422.45 611.73 646.11 368.14 802.61 365.57 751.90 486.87 670.89 583.65 785.92 579.88
00107238 00000126 485.40 133.92 424.42 615.28 647.23 364.57 805.65 368.39 752.82 489.49 659.36 583.84 782.41 585.42
00107239 00000127 483.45 122.47 424.40 636.61 657.30 372.26 817.82 374.96 771.42 492.62 670.67 591.84 798.44 592.42
00107240 00000128 498.56 120.01 411.35 631.47 669.95 378.07 830.50 370.66 797.06 488.06 691.26 595.64 819.70 589.02
00107241 00000129 517.61 115.46 396.76 637.70 685.42 378.33 844.77 361.58 820.01 488.06 723.68 594.93 850.22 581.72
00107242 00000130 529.84 117.83 394.85 617.81 700.94 373.34 846.29 357.56 825.86 478.05 739.90 587.68 851.17 573.59
00107243 00000131 527.79 120.55 396.46 590.02 703.54 380.47 856.20 354.33 832.91 483.58 751.30 581.37 868.99 559.43
00107244 00000132 527.53 115.82 400.41 595.27 697.85 381.39 856.68 357.05 823.68 488.40 741.28 579.87 866.76 559.74
00107245 00000133 525.22 108.61 409.07 621.41 687.99 381.41 854.15 363.20 808.67 495.11 721.12 584.69 854.27 570.31
00107246 00000134 526.69 112.21 412.68 631.26 680.63 384.41 848.77 372.47 793.35 501.35 710.93 591.97 841.75 583.75
00107247 00000135 526.42 111.14 416.39 635.11 678.67 388.58 846.56 379.31 787.48 505.23 705.83 593.97 834.06 588.21
00107248 00000136 531.99 127.79 411.73 622.91 685.63 384.20 845.69 380.41 793.47 509.79 704.99 599.49 829.54 595.62
00107249 00000137 537.33 121.11 412.67 630.77 694.99 387.82 853.47 382.33 807.39 506.99 717.40 600.19 842.08 594.74
00107250 00000138 544.33 117.48 410.11 633.46 705.81 390.22 860.25 381.67 820.82 502.90 735.76 599.65 856.11 591.16
00107251 00000139 548.08 117.41 405.44 628.42 706.68 390.16 861.30 377.51 825.58 500.74 743.46 597.74 861.20 585.82
00107252 00000140 542.03 112.21 409.38 625.22 702.96 391.82 867.61 372.65 822.66 502.38 743.20 597.95 872.56 581.46
00107253 00000141 533.32 118.88 410.61 623.68 687.67 383.44 848.61 368.62 809.73 493.51 728.36 595.54 852.23 581.77
00107254 00000142 522.75 115.18 408.80 631.17 677.87 390.12 843.35 371.42 798.99 499.51 720.22 597.10 845.83 582.98
00107255 00000143 508.75 127.14 411.80 612.98 661.55 393.83 827.32 371.73 788.83 497.46 703.80 602.44 834.84 582.93
00107256 00000144 501.04 126.75 413.29 616.48 654.91 397.44 818.10 376.67 778.81 501.36 696.87 605.58 824.20 586.79
00107257 00000145 498.12 130.47 412.78 612.16 650.37 396.85 813.12 377.94 773.18 501.93 692.74 605.27 818.94 587.91
00107258 00000146 496.25 128.06 412.62 614.82 649.39 395.03 811.69 376.87 772.26 499.33 690.93 603.91 816.27 587.13
00107259 00000147 493.22 123.55 415.97 615.65 650.50 387.75 810.93 371.85 771.43 493.59 690.13 596.22 814.33 581.15
00107260 00000148 493.36 121.24 414.66 610.74 650.90 381.87 810.32 365.85 772.22 487.72 690.34 589.59 812.54 574.80
00107261 00000149 494.81 114.62 410.08 606.51 651.75 377.78 811.68 360.65 773.98 482.61 690.82 583.19 812.40 567.85
00107262 00000150 495.28 108.15 410.20 613.10 652.73 375.13 812.58 357.23 775.96 477.73 692.09 580.52 814.69 564.73
00107263 00000151 494.95 104.35 412.80 614.82 652.45 373.68 814.60 352.43 777.98 474.55 693.34 578.21 818.31 559.68
00107264 00000152 500.08 99.10 410.59 615.04 654.30 372.03 821.05 350.23 775.57 478.58 697.47 581.73 822.19 562.39
00107265 00000153 501.17 96.14 411.00 619.93 654.19 371.22 822.60 347.93 777.34 476.03 697.39 581.00 826.18 560.41
00107266 00000154 502.72 98.62 410.20 615.22 656.19 371.29 823.65 346.35 780.07 475.23 700.67 580.52 828.14 558.65
00107267 00000155 504.05 97.16 410.61 619.10 656.70 370.36 825.50 344.73 781.90 473.88 701.05 580.51 830.70 558.05
00107268 00000156 504.27 95.63 412.09 619.44 657.26 369.81 826.94 343.50 783.57 472.28 702.36 580.08 832.39 557.12
00107269 00000157 509.88 96.41 411.34 612.09 663.22 361.31 829.45 344.92 781.94 468.28 707.25 564.99 834.37 552.61
00107270 00000158 510.85 95.14 410.89 610.68 663.17 360.52 829.03 343.94 781.93 466.46 708.52 563.33 835.42 550.65
00107271 00000159 511.59 96.75 410.57 610.65 663.97 360.64 828.76 344.69 782.03 467.02 708.78 563.60 835.45 551.53
00107272 00000160 511.55 95.10 411.38 616.00 663.80 361.60 829.50 344.99 782.72 468.05 708.85 565.28 836.90 552.64
00107273 00000161 511.72 96.05 410.81 617.27 664.35 362.24 829.89 345.93 782.70 470.08 709.22 566.66 836.92 554.25
00107274 00000162 512.24 97.31 409.36 617.60 664.49 362.96 829.86 346.97 782.20 471.64 708.39 566.99 836.71 554.86
00107275 00000163 512.55 98.93 409.93 616.86 663.68 362.78 830.14 347.57 780.89 472.67 706.71 567.48 835.48 556.15
00107276 00000164 511.82 102.38 411.16 612.25 663.26 361.66 831.15 348.30 779.07 473.49 704.01 566.23 833.22 556.68
00107277 00000165 513.33 104.96 410.65 611.04 665.37 361.29 833.40 349.26 779.90 476.31 703.62 567.57 832.61 559.46
00107278 00000166 514.42 104.55 412.89 612.88 669.26 361.83 836.14 348.91 783.94 479.09 708.80 571.37 834.41 562.82
00107279 00000167 519.46 103.83 408.19 613.00 675.67 363.10 840.64 348.80 792.63 478.83 713.82 572.65 838.84 562.94
00107280 00000168 523.40 105.26 405.85 616.20 681.60 367.47 842.79 351.93 799.44 482.17 720.27 575.68 843.74 564.62
00107281 00000169 523.51 109.27 406.71 612.14 683.60 370.00 846.04 352.83 802.99 483.59 722.50 577.76 847.04 565.38
00107282 00000170 523.32 111.35 405.43 606.05 684.13 370.21 846.29 353.46 802.47 484.07 723.42 577.60 845.41 565.68
