Video ID: 	nCdS5AvnOJU
H: 	1080
W: 	1920
FPS: 	29.97002997002997

FRAME INDEX X0 Y0 W H [Landmarks (5 Points)]

00007768 00000000 650.40 171.92 404.24 557.49 755.44 399.33 924.03 376.26 857.21 487.10 799.42 591.62 942.88 571.85
00007769 00000001 650.09 172.30 400.98 549.60 755.03 397.43 921.37 375.70 854.52 485.38 798.36 589.02 936.23 570.57
00007770 00000002 647.93 171.53 400.56 549.19 752.65 395.87 920.18 375.20 852.56 484.99 795.10 587.46 933.05 570.03
00007771 00000003 647.01 169.92 398.99 549.51 749.86 393.66 916.91 374.96 847.17 484.04 791.39 586.79 926.02 571.26
00007772 00000004 645.61 170.35 400.78 550.72 749.21 392.60 915.65 375.44 845.11 485.18 791.56 587.96 921.88 573.82
00007773 00000005 646.30 171.02 400.93 553.04 750.18 393.17 916.44 376.03 845.74 482.49 790.43 587.65 922.91 573.55
00007774 00000006 648.73 169.55 400.62 557.48 751.62 394.01 919.54 375.32 848.49 482.34 790.88 588.05 929.55 572.45
00007775 00000007 650.72 167.32 399.75 555.97 754.17 394.19 923.02 376.92 851.54 481.24 791.57 586.28 932.63 571.65
00007776 00000008 652.66 165.01 397.17 555.39 756.33 393.93 924.48 376.70 854.00 480.02 793.18 584.24 934.07 569.60
00007777 00000009 653.88 161.70 398.39 557.21 758.11 392.64 927.67 375.35 857.60 477.61 795.80 582.88 938.72 567.99
00007778 00000010 654.49 158.13 400.02 559.26 760.62 390.69 929.93 373.53 861.08 475.38 797.77 580.92 939.49 565.95
00007779 00000011 657.01 156.19 400.02 559.39 763.47 387.09 932.69 370.29 863.20 471.97 799.43 578.80 939.37 564.10
00007780 00000012 658.93 153.87 399.97 558.57 765.87 384.87 936.69 368.82 866.77 470.01 801.36 577.38 942.12 563.08
00007781 00000013 662.44 155.07 401.94 557.42 767.74 384.77 941.78 367.32 869.48 470.39 804.11 578.01 950.61 561.99
00007782 00000014 666.19 156.36 400.89 559.40 771.81 387.49 947.37 371.07 874.65 472.58 808.29 580.78 957.80 565.57
00007783 00000015 671.57 158.54 397.99 563.16 780.58 389.24 956.30 375.79 885.17 473.37 815.41 583.61 965.76 571.20
00007784 DELETE   677.25 163.66 393.70 576.21 790.48 388.44 965.34 375.86 899.15 471.35 824.34 586.55 977.64 575.46
00007785 00000017 680.08 157.43 394.17 584.33 795.53 384.60 970.14 374.26 906.51 468.77 829.74 583.44 988.49 574.07
00007786 00000018 683.70 156.09 393.29 587.69 799.53 383.34 974.50 371.12 912.18 466.97 837.22 584.31 996.94 573.05
00007787 00000019 686.11 154.50 393.70 587.06 804.06 380.54 977.39 366.15 919.21 463.28 845.01 582.41 1003.34 569.06
00007788 00000020 686.47 150.19 393.68 590.70 806.35 377.47 980.38 361.86 924.63 458.50 848.32 580.97 1006.52 566.40
00007789 00000021 686.54 145.78 394.40 591.26 809.36 373.48 982.24 358.60 929.30 453.81 851.50 575.96 1008.76 562.05
00007790 00000022 686.84 143.63 394.59 588.26 810.36 370.70 980.56 356.34 928.67 449.75 852.47 570.11 1007.92 556.75
00007791 00000023 686.84 144.74 394.23 580.00 810.70 367.75 978.87 355.05 926.00 445.21 851.33 564.47 1003.37 552.73
00007792 00000024 686.28 144.89 394.70 572.31 810.00 365.68 976.43 353.08 923.02 443.22 848.73 560.70 997.89 549.28
00007793 00000025 683.18 146.89 394.65 563.06 807.92 364.79 974.22 352.73 919.82 442.37 845.03 558.78 991.88 548.25
00007794 00000026 683.64 144.48 388.41 556.50 796.66 371.41 975.99 352.56 916.26 439.19 836.93 565.82 991.26 549.52
00007795 00000027 682.24 145.93 388.89 553.44 795.29 374.23 972.93 355.16 913.71 441.75 835.74 566.08 988.24 549.56
00007796 00000028 680.06 148.67 390.49 553.17 794.52 376.46 970.87 357.72 912.65 445.11 835.05 567.54 986.59 551.21
00007797 00000029 679.88 148.03 389.73 552.90 794.95 377.47 971.18 358.74 914.09 446.88 835.22 567.82 986.54 551.47
00007798 00000030 681.03 148.76 388.42 548.48 795.06 377.38 969.97 357.01 913.60 444.28 835.83 565.20 986.57 547.55
00007799 00000031 681.54 148.43 387.40 543.05 796.77 373.94 969.60 354.88 914.00 438.56 837.27 559.97 985.21 543.45
00007800 00000032 681.44 145.85 387.51 540.96 796.13 370.64 970.09 351.56 914.23 434.51 837.37 556.60 986.03 539.86
00007801 00000033 677.39 137.45 398.32 547.50 800.71 361.49 973.11 354.93 907.73 436.49 842.00 541.95 990.33 536.40
00007802 00000034 677.33 134.84 398.32 553.00 800.43 358.56 970.77 352.32 907.38 434.51 843.10 542.48 988.94 537.19
00007803 00000035 679.09 134.42 395.95 555.11 801.42 355.49 970.16 349.53 907.98 430.24 843.85 542.84 985.51 537.95
00007804 00000036 680.05 132.43 396.57 552.60 801.68 354.24 970.69 348.75 907.39 429.16 842.98 540.52 984.66 536.00
00007805 00000037 678.95 130.66 397.47 549.96 802.16 353.53 970.77 348.99 907.55 428.79 843.30 537.86 984.78 534.01
00007806 00000038 678.61 131.76 397.37 549.54 802.11 353.53 970.76 349.08 907.49 428.96 842.42 537.20 984.76 533.45
00007807 00000039 679.26 132.77 397.87 548.77 802.29 354.70 972.83 350.08 907.71 431.92 842.84 538.18 986.74 534.20
00007808 00000040 680.58 136.83 396.00 545.99 803.29 358.26 975.56 352.75 909.63 435.89 843.67 539.92 990.33 535.19
00007809 00000041 684.03 135.73 393.43 549.96 804.90 363.59 977.23 356.18 910.23 444.71 843.83 544.53 991.22 538.26
00007810 00000042 685.25 139.52 395.47 553.85 808.03 371.72 979.72 362.15 913.29 451.70 846.05 552.40 991.01 544.64
00007811 00000043 687.93 151.10 399.48 553.27 816.08 376.84 982.98 361.14 928.78 452.66 856.28 565.55 994.24 552.39
00007812 00000044 689.85 152.43 397.18 558.08 816.81 379.91 983.73 365.18 930.86 456.48 857.34 571.50 993.08 559.10
00007813 00000045 690.98 153.40 397.71 557.76 819.81 383.23 987.32 369.11 935.96 462.59 858.51 575.50 997.18 563.47
00007814 00000046 692.23 151.90 396.85 560.59 820.75 387.31 991.95 374.37 939.03 470.66 856.44 580.21 1000.27 569.39
00007815 00000047 692.23 157.04 396.37 566.10 819.98 389.48 990.58 376.49 938.18 475.71 857.99 585.54 1001.17 574.29
00007816 00000048 692.82 163.83 397.14 573.61 817.24 393.93 991.34 380.48 934.44 485.56 858.97 597.67 1002.92 585.79
00007817 00000049 692.69 166.55 399.03 583.98 820.50 399.61 990.88 390.25 932.57 493.16 858.72 603.82 997.86 595.25
00007818 00000050 692.78 170.19 400.67 582.65 819.94 407.21 993.17 398.94 930.94 503.90 857.77 610.11 998.04 602.59
00007819 00000051 691.92 176.86 401.35 576.17 822.31 415.75 993.18 404.50 932.99 513.82 860.01 613.89 999.95 604.16
00007820 00000052 690.53 180.46 402.29 575.43 823.60 424.06 993.13 409.79 934.30 525.04 861.00 618.74 1002.20 606.44
00007821 00000053 687.89 189.17 401.57 575.14 820.64 434.71 990.57 417.04 931.88 537.83 857.82 626.00 1003.10 611.07
00007822 00000054 688.91 194.73 397.64 581.86 822.61 445.62 995.58 431.43 938.55 550.15 855.02 633.96 1005.89 622.01
00007823 00000055 687.32 204.03 397.78 579.46 823.39 456.09 996.08 438.75 940.35 561.54 856.93 644.37 1003.87 630.20
00007824 00000056 691.39 210.99 395.30 579.48 822.54 458.80 993.56 440.40 942.00 566.01 859.60 655.56 1000.14 640.25
00007825 00000057 689.40 216.36 397.51 579.80 820.69 466.56 992.95 444.73 941.80 572.30 861.48 662.63 1002.00 644.62
00007826 00000058 688.87 223.52 396.59 575.10 818.62 472.06 994.13 448.31 940.98 581.21 858.32 666.50 1006.16 647.07
00007827 00000059 688.65 227.43 395.38 574.70 817.98 476.48 995.39 453.04 939.69 588.88 855.11 669.25 1007.75 650.17
00007828 00000060 688.11 230.23 393.65 571.90 817.35 481.41 993.87 457.19 937.51 594.56 856.43 672.65 1007.53 652.98
00007829 00000061 688.27 230.78 394.82 577.18 819.28 484.54 993.30 459.13 938.99 599.25 861.37 679.94 1007.74 658.68
00007830 00000062 690.33 233.19 393.70 577.43 821.57 486.19 993.81 460.97 940.68 600.78 867.18 684.82 1007.21 663.41
00007831 00000063 691.11 234.37 396.34 579.30 822.20 487.26 996.04 461.49 942.56 603.17 869.30 687.70 1010.17 665.68
00007832 00000064 692.49 236.58 396.54 577.27 823.90 487.87 997.04 462.17 943.46 603.81 868.94 686.07 1011.47 664.10
00007833 00000065 692.30 237.36 399.17 576.16 824.90 487.36 998.43 461.12 944.30 603.44 866.12 681.15 1014.74 658.93
00007834 00000066 692.12 235.20 399.60 577.16 823.73 485.37 999.23 459.47 944.09 601.89 863.88 677.77 1016.91 655.90
00007835 00000067 691.91 233.80 399.61 576.56 822.94 483.73 998.83 458.35 943.01 597.86 862.88 675.17 1016.35 653.85
00007836 00000068 692.57 232.37 399.80 577.00 823.34 482.17 999.24 457.13 942.98 596.10 861.82 672.74 1015.55 651.69
00007837 00000069 694.01 229.80 399.24 578.30 824.88 480.21 997.95 456.53 941.85 592.35 862.07 670.73 1012.36 650.87
00007838 00000070 693.90 227.40 398.21 576.54 825.69 476.66 997.68 453.66 943.63 585.32 863.02 666.15 1010.40 647.03
00007839 00000071 691.86 222.29 399.56 573.72 825.12 469.39 998.34 447.14 945.10 578.35 864.18 660.59 1008.98 642.30
00007840 00000072 692.08 215.46 400.95 574.33 826.08 463.37 998.86 442.03 945.37 572.37 864.64 655.56 1005.91 638.02
00007841 00000073 692.62 210.74 399.58 575.01 826.75 457.63 998.24 437.32 946.17 565.87 862.10 648.61 1007.11 631.77
00007842 00000074 688.83 201.73 400.99 579.46 827.74 455.26 1001.86 433.84 947.57 559.36 861.59 639.85 1014.38 621.49
00007843 00000075 687.49 196.76 401.03 574.69 824.68 447.34 997.22 425.83 942.67 551.41 861.27 633.16 1011.66 614.94
00007844 00000076 686.76 194.18 400.67 573.01 820.91 441.05 993.15 419.26 938.37 544.76 859.57 628.81 1009.85 610.40
00007845 00000077 686.30 190.69 399.30 578.55 820.21 436.67 989.61 414.60 937.07 539.69 860.30 627.94 1008.13 609.39
00007846 00000078 685.90 188.86 399.52 577.52 820.44 433.44 990.22 410.52 937.91 537.45 860.69 626.06 1008.55 606.73
00007847 00000079 686.98 184.29 398.09 574.22 821.05 430.83 992.46 407.29 940.06 533.50 862.97 622.68 1010.98 602.73
00007848 00000080 688.57 181.79 399.43 570.52 822.31 428.85 993.26 405.47 939.91 528.75 866.90 620.22 1010.41 600.44
00007849 00000081 690.08 178.34 401.85 573.09 826.49 427.18 996.22 404.47 944.30 526.12 870.06 619.04 1011.69 599.93
00007850 00000082 693.41 177.29 401.56 574.41 828.49 425.25 999.10 403.75 946.21 522.41 871.69 617.18 1014.30 598.75
00007851 00000083 697.55 175.09 400.46 572.68 829.88 421.57 1004.20 401.49 949.63 518.39 874.22 614.37 1019.81 596.75
00007852 00000084 700.74 177.44 399.61 566.13 832.91 418.54 1007.30 399.85 952.00 515.51 876.94 611.45 1022.11 594.95
00007853 00000085 705.91 175.67 395.66 567.54 837.67 416.85 1010.63 400.33 954.21 512.28 879.71 610.05 1024.28 595.33
00007854 00000086 708.62 173.50 394.14 573.96 841.91 417.93 1013.11 401.70 958.67 512.37 881.25 610.79 1027.05 596.35
00007855 00000087 710.07 174.17 394.16 573.05 845.29 419.22 1015.79 402.69 962.72 511.70 883.75 610.72 1029.87 596.18
00007856 00000088 712.88 172.61 392.63 573.13 847.79 418.98 1019.06 402.19 966.24 511.18 885.71 610.36 1032.09 595.59
00007857 00000089 715.53 172.17 391.16 572.92 849.49 417.80 1020.84 402.85 967.62 511.17 884.94 608.67 1032.57 595.53
00007858 00000090 714.47 171.30 392.42 575.04 847.49 417.48 1021.59 403.77 966.17 510.88 881.09 608.61 1032.67 596.65
00007859 00000091 711.44 171.84 392.72 579.64 845.53 418.29 1018.17 404.08 963.66 511.47 879.48 611.94 1029.56 599.51
00007860 00000092 706.37 176.05 394.77 579.24 839.64 420.22 1014.49 405.13 958.11 516.05 876.87 617.10 1026.44 603.90
00007861 00000093 698.71 180.56 400.42 577.79 833.86 428.36 1008.07 409.63 951.59 527.09 873.37 622.56 1020.94 606.13
00007862 00000094 693.83 188.98 401.16 578.72 829.78 440.19 1002.14 418.12 947.53 540.06 868.70 630.13 1017.76 611.34
00007863 00000095 690.99 195.11 400.90 575.21 826.48 450.43 1000.06 427.37 944.91 548.80 866.93 637.33 1016.58 617.65
00007864 00000096 687.16 203.54 401.03 570.99 825.23 457.14 997.98 430.32 945.36 554.42 865.69 640.16 1015.96 617.47
00007865 00000097 684.99 209.25 401.42 567.90 823.43 459.93 996.39 432.14 944.47 559.97 864.26 641.55 1014.83 618.11
00007866 00000098 684.40 211.18 399.62 565.15 823.23 459.66 994.93 432.35 943.75 560.54 863.58 640.00 1013.61 616.89
00007867 00000099 684.04 208.22 398.88 567.68 821.17 458.73 992.42 431.33 941.39 558.20 862.53 639.56 1012.36 616.50
00007868 00000100 684.47 204.55 397.64 571.70 819.31 455.32 988.94 429.12 938.21 553.07 861.87 638.03 1009.83 615.99
00007869 00000101 684.33 199.79 395.76 573.55 817.05 448.92 986.96 424.65 935.13 546.26 860.58 634.74 1007.85 614.39
00007870 00000102 683.77 195.04 396.62 576.22 815.58 443.17 983.97 420.89 931.95 541.82 858.91 630.66 1004.95 611.96
00007871 00000103 683.21 193.78 396.94 570.52 813.75 438.86 983.69 418.24 928.95 540.46 855.08 625.04 1004.17 607.53
00007872 00000104 682.71 190.44 396.37 567.38 811.97 436.50 983.53 415.72 926.90 539.39 855.02 622.48 1003.72 604.73
00007873 00000105 682.58 191.93 396.05 567.68 810.44 438.03 981.70 418.47 923.89 540.21 854.21 624.08 1001.69 607.38
00007874 00000106 682.82 192.11 394.05 577.24 809.06 443.09 977.75 423.76 920.96 541.55 855.06 630.19 998.52 614.06
00007875 00000107 680.23 198.51 396.22 575.96 807.31 447.60 978.11 427.21 919.63 547.84 854.18 634.80 998.37 618.02
00007876 00000108 678.67 205.87 396.94 571.50 806.84 457.12 980.06 432.97 923.07 558.13 851.40 638.53 1001.43 618.74
00007877 00000109 680.89 210.64 396.16 568.92 810.18 463.44 982.28 438.03 926.31 563.60 854.47 641.97 1002.79 621.22
CROP_BBOX: 398 0 1354 950
