Video ID: 	4NUlVA8dT5A
H: 	1080
W: 	1920
FPS: 	29.97002997002997

FRAME INDEX X0 Y0 W H [Landmarks (5 Points)]

00005358 00000000 822.43 91.53 389.95 553.19 920.79 294.44 1094.56 286.02 1013.90 363.82 954.87 491.61 1092.84 485.89
00005359 00000001 823.19 91.39 389.70 550.46 922.01 294.18 1094.79 285.17 1015.53 362.74 957.27 490.62 1092.78 484.38
00005360 00000002 823.61 88.18 388.73 550.60 922.31 295.06 1095.18 285.70 1016.86 362.87 957.39 489.96 1095.19 483.37
00005361 00000003 823.86 87.47 388.78 551.31 922.34 294.68 1095.43 285.47 1016.74 362.88 957.08 490.11 1095.18 483.62
00005362 00000004 825.01 78.67 386.59 549.82 919.52 298.29 1095.99 274.01 1013.77 361.75 958.03 495.13 1103.31 474.32
00005363 00000005 826.00 85.77 388.08 544.97 925.99 291.50 1099.36 283.32 1017.86 359.19 955.46 482.83 1099.13 476.77
00005364 00000006 826.58 89.25 388.04 538.73 931.40 292.29 1104.48 286.00 1022.60 356.84 958.29 478.18 1104.96 473.78
00005365 00000007 827.90 89.86 389.30 541.00 932.73 290.71 1107.61 284.72 1025.60 357.70 963.45 479.94 1108.08 475.79
00005366 00000008 828.08 89.52 388.54 541.34 932.90 290.70 1107.36 284.79 1025.82 357.52 963.45 479.80 1108.05 475.77
00005367 00000009 829.69 92.42 387.08 549.47 936.32 291.04 1111.11 286.30 1030.41 360.65 970.03 486.70 1113.52 483.55
00005368 DELETE   830.51 89.09 389.48 579.20 937.31 290.10 1112.06 281.67 1033.12 361.10 976.79 497.59 1123.62 490.58
00005369 00000011 832.18 93.64 391.90 579.42 940.52 292.18 1118.52 286.36 1037.61 367.68 975.20 501.34 1131.00 496.26
00005370 00000012 833.99 90.29 390.38 578.42 944.10 291.25 1122.02 286.58 1042.90 367.37 979.12 500.10 1130.65 496.05
00005371 DELETE   834.29 89.91 390.34 579.02 944.42 291.02 1122.10 286.62 1042.88 367.26 978.87 499.99 1130.83 496.17
00005372 00000014 835.31 89.56 390.83 578.83 946.86 291.47 1125.29 287.40 1047.45 370.20 982.79 502.29 1131.45 498.55
00005373 00000015 836.84 86.91 388.19 565.10 948.66 291.81 1126.70 289.40 1051.19 371.48 985.29 496.68 1125.69 494.85
00005374 00000016 838.21 88.70 384.39 544.63 951.72 294.26 1126.56 292.36 1052.87 374.25 984.93 493.24 1121.59 491.83
00005375 00000017 837.45 90.06 386.38 544.89 951.51 294.07 1126.66 292.35 1053.52 375.63 985.74 492.14 1122.79 490.85
00005376 00000018 837.24 90.08 386.72 544.89 951.38 294.20 1126.75 292.50 1053.45 375.67 985.64 492.12 1122.95 490.82
00005377 00000019 835.67 89.97 387.98 548.66 950.92 294.05 1126.06 292.41 1053.51 374.86 985.63 492.97 1123.62 491.76
00005378 00000020 835.95 89.61 390.30 561.50 948.65 292.43 1122.59 288.00 1052.07 373.04 989.45 496.33 1122.69 492.76
00005379 00000021 836.42 89.39 391.36 568.95 947.70 295.90 1120.97 290.72 1049.82 376.04 988.93 499.54 1124.60 495.21
00005380 00000022 835.91 89.89 390.25 569.28 947.34 295.88 1120.46 291.19 1049.53 376.72 988.49 500.95 1122.82 497.23
00005381 00000023 835.90 90.87 389.92 568.34 947.41 296.15 1120.65 291.55 1049.67 376.67 988.51 500.90 1123.32 497.25
00005382 00000024 834.84 89.37 390.20 571.57 946.95 295.74 1120.38 291.86 1049.22 377.11 987.62 502.07 1121.32 499.01
00005383 00000025 835.01 88.47 388.41 569.47 947.38 297.62 1121.22 293.47 1049.76 378.64 987.63 503.47 1121.22 500.44
00005384 00000026 836.63 87.07 386.47 566.71 947.52 298.92 1120.79 293.66 1050.43 379.14 987.77 502.87 1122.81 498.97
00005385 00000027 837.49 88.59 385.79 563.09 948.24 299.16 1121.48 293.32 1051.33 378.82 988.86 501.91 1124.47 497.44
00005386 00000028 837.57 88.90 385.81 563.39 948.21 299.09 1121.27 293.16 1051.32 378.86 988.84 502.06 1124.32 497.51
00005387 00000029 836.55 89.33 388.18 564.02 947.10 298.13 1120.37 291.94 1050.60 376.97 989.13 502.03 1123.60 497.20
00005388 00000030 836.06 89.38 388.80 570.73 946.93 296.31 1120.16 290.56 1050.07 376.12 988.64 503.77 1122.74 499.27
00005389 00000031 835.06 89.52 389.30 577.87 946.02 296.47 1120.77 290.77 1048.44 376.63 985.50 508.19 1121.96 503.78
00005390 00000032 833.64 90.32 389.92 577.50 945.54 294.81 1120.50 289.31 1048.56 374.77 984.92 507.51 1121.33 503.27
00005391 00000033 833.61 92.39 389.98 575.06 945.75 293.94 1120.95 288.87 1048.61 374.55 985.03 507.02 1121.36 503.15
00005392 00000034 833.36 91.97 390.91 573.58 945.15 293.21 1120.67 288.13 1048.35 374.09 985.31 505.94 1121.42 502.03
00005393 00000035 833.58 92.04 390.58 572.94 945.98 292.70 1121.37 288.13 1049.15 372.57 985.17 504.67 1121.85 501.16
00005394 00000036 834.23 93.62 390.46 570.05 948.50 291.97 1123.62 288.89 1050.37 370.43 985.53 502.05 1122.83 499.67
00005395 00000037 834.93 91.50 390.87 572.50 949.15 291.63 1123.89 287.61 1051.42 368.92 986.56 501.76 1124.80 498.52
00005396 00000038 835.16 92.12 390.14 571.39 949.32 291.53 1124.01 287.53 1051.54 368.80 986.80 501.64 1124.79 498.46
00005397 00000039 835.38 91.80 390.59 574.05 949.65 290.91 1124.10 286.23 1052.01 366.59 987.62 501.76 1127.14 497.77
00005398 00000040 835.95 92.55 390.57 574.73 951.09 289.09 1125.61 284.14 1053.69 363.66 989.43 501.65 1129.17 497.42
00005399 00000041 838.08 92.64 391.31 574.53 951.87 286.16 1128.92 281.40 1055.85 360.31 989.78 500.38 1131.64 496.02
00005400 00000042 840.86 91.71 390.11 573.00 955.34 285.35 1130.33 279.08 1059.47 355.66 992.98 499.90 1133.10 494.21
00005401 00000043 840.68 91.86 390.39 573.49 955.51 285.50 1129.66 279.10 1059.74 355.17 993.23 499.95 1133.27 494.18
00005402 00000044 842.89 91.98 390.57 571.17 958.21 285.81 1130.23 278.37 1061.23 353.24 996.10 498.69 1133.01 492.21
00005403 00000045 845.48 89.68 385.03 553.50 964.40 289.56 1135.54 279.60 1068.13 350.24 1001.14 495.81 1135.67 487.56
00005404 00000046 847.16 91.98 383.35 539.93 966.83 291.08 1135.01 280.95 1068.11 352.55 1003.04 489.32 1135.37 481.08
00005405 00000047 847.78 91.03 382.77 537.49 969.30 291.47 1135.86 281.78 1069.83 353.03 1005.32 487.56 1136.21 479.65
00005406 00000048 847.78 90.28 382.91 538.21 969.39 291.68 1135.91 282.01 1070.03 353.33 1005.43 487.86 1136.14 479.96
00005407 00000049 846.27 88.67 387.65 559.91 964.80 290.43 1139.47 282.80 1067.57 354.09 1000.31 495.00 1140.43 488.43
00005408 00000050 844.81 86.44 388.60 587.37 962.91 284.44 1135.41 279.18 1069.08 354.57 998.66 502.39 1142.17 497.05
00005409 00000051 843.28 85.26 391.02 578.16 963.54 295.22 1140.43 286.87 1073.53 368.90 1000.39 503.70 1147.23 495.82
00005410 00000052 845.71 85.15 389.31 559.06 966.57 299.17 1143.86 288.48 1077.05 372.18 1004.61 501.52 1148.33 492.13
00005411 00000053 845.62 84.09 389.35 560.27 966.33 298.69 1143.87 287.85 1076.80 372.07 1004.47 501.91 1148.04 492.44
00005412 00000054 846.68 82.44 388.05 558.21 968.20 301.24 1142.84 289.24 1078.60 375.20 1009.05 501.69 1149.25 491.08
00005413 00000055 847.55 78.28 388.24 567.60 968.71 302.68 1143.20 291.40 1080.05 379.76 1010.80 505.41 1151.08 495.09
00005414 00000056 849.57 86.93 384.43 566.91 970.67 306.33 1141.58 296.82 1081.93 386.23 1011.56 510.13 1150.14 501.49
00005415 00000057 851.40 87.85 383.11 569.13 973.35 312.80 1143.31 304.92 1084.92 393.97 1014.84 516.38 1152.06 509.02
00005416 00000058 851.27 87.78 383.22 569.19 973.33 312.84 1143.29 304.95 1084.93 393.92 1014.87 516.39 1152.07 509.03
00005417 00000059 851.78 87.43 385.31 587.95 976.05 315.60 1142.93 311.80 1085.73 396.53 1014.29 521.88 1151.33 517.92
00005418 00000060 851.41 87.85 387.89 601.54 977.95 313.25 1146.49 311.77 1086.79 392.89 1010.68 526.04 1151.06 524.23
00005419 00000061 852.19 87.75 386.50 581.98 977.75 317.04 1152.47 313.60 1090.24 396.74 1015.46 524.20 1154.02 520.62
00005420 00000062 855.66 91.65 383.44 554.35 979.39 317.07 1149.01 307.83 1088.60 395.96 1021.22 513.96 1154.39 505.55
00005421 00000063 855.35 92.65 383.66 553.76 979.51 317.30 1148.89 307.77 1088.44 396.04 1021.60 514.01 1154.53 505.36
00005422 00000064 857.16 89.37 385.06 567.01 980.97 318.10 1148.51 307.64 1088.46 396.19 1023.90 513.86 1158.06 504.18
00005423 00000065 858.29 90.17 382.02 562.64 982.93 317.34 1148.02 305.84 1090.42 395.94 1026.07 512.29 1157.69 501.97
00005424 00000066 858.17 90.26 383.24 565.05 982.14 315.93 1149.37 303.85 1089.95 395.25 1023.45 510.87 1159.44 499.91
00005425 00000067 860.89 89.72 380.69 554.93 981.77 313.70 1152.11 299.08 1092.87 391.52 1024.70 508.14 1164.41 495.10
00005426 00000068 860.83 89.88 380.78 555.43 981.97 313.83 1152.23 299.35 1092.99 391.57 1024.49 508.12 1164.21 495.24
00005427 00000069 861.05 88.66 382.28 559.68 981.47 313.10 1154.08 298.81 1093.43 391.10 1023.36 508.94 1166.61 496.05
00005428 00000070 860.39 87.32 383.67 574.83 982.28 313.62 1155.13 302.26 1094.44 393.15 1022.20 516.27 1165.98 506.30
00005429 00000071 860.25 91.11 382.50 589.61 983.52 311.72 1154.14 302.12 1094.69 391.18 1018.87 521.21 1163.90 513.14
00005430 00000072 860.97 89.35 382.04 575.43 983.02 315.00 1155.44 304.13 1095.17 395.65 1021.27 517.38 1165.17 507.89
00005431 00000073 860.88 89.87 382.07 575.27 983.01 314.67 1155.59 303.76 1095.08 395.50 1021.11 517.31 1164.88 507.80
00005432 00000074 859.34 84.12 382.08 568.07 980.25 312.54 1152.51 300.66 1092.40 391.44 1022.07 510.64 1163.80 499.82
00005433 00000075 857.71 83.40 382.70 560.58 978.42 309.34 1149.97 296.13 1091.28 387.52 1021.31 506.35 1161.80 494.19
00005434 00000076 857.69 81.42 382.24 563.73 978.38 309.71 1148.74 296.16 1091.45 386.55 1021.72 506.57 1161.73 494.24
00005435 00000077 857.26 81.10 382.65 564.21 978.22 309.65 1147.89 296.76 1090.81 387.00 1020.88 506.72 1160.69 494.92
00005436 00000078 856.70 82.53 382.79 562.53 978.23 309.60 1147.71 296.48 1090.58 386.94 1020.90 506.50 1160.22 494.51
00005437 00000079 856.02 81.36 382.77 564.92 977.21 308.76 1147.22 296.00 1089.73 386.17 1019.86 506.52 1159.95 494.81
00005438 00000080 855.40 78.52 383.22 580.27 977.03 307.49 1147.44 295.84 1090.45 387.02 1019.05 512.60 1158.82 501.83
00005439 00000081 853.47 78.62 385.03 592.21 977.61 306.05 1145.01 296.99 1088.16 385.65 1015.68 514.02 1155.39 505.61
00005440 00000082 853.25 79.17 384.92 596.45 977.22 306.03 1145.77 298.04 1088.18 384.40 1014.34 517.24 1154.58 509.97
00005441 00000083 853.24 78.55 385.01 597.21 977.20 305.94 1145.68 297.94 1088.11 384.41 1014.14 517.22 1154.42 509.93
00005442 00000084 853.19 80.95 382.81 586.41 977.15 303.76 1143.74 297.32 1085.60 381.76 1014.79 512.29 1148.89 506.33
00005443 00000085 852.46 81.16 384.55 583.98 976.35 303.19 1140.10 294.44 1082.74 378.66 1016.43 509.74 1146.43 501.84
00005444 00000086 848.31 81.17 388.23 575.08 972.83 302.30 1136.21 290.85 1080.22 375.56 1016.80 505.07 1143.22 494.95
00005445 00000087 844.95 82.67 389.59 573.53 968.25 302.12 1132.17 289.92 1075.63 372.42 1014.74 505.40 1139.62 494.76
00005446 00000088 844.95 83.88 390.24 572.51 967.90 302.04 1132.02 289.67 1075.01 372.59 1014.66 505.41 1139.46 494.64
00005447 00000089 844.08 86.19 391.56 592.39 962.78 299.26 1132.96 288.91 1068.86 375.34 1003.63 514.25 1140.63 504.91
00005448 00000090 841.82 85.14 391.70 604.22 957.27 297.01 1130.78 287.84 1062.43 375.71 994.66 518.11 1139.96 509.59
00005449 00000091 841.33 88.51 391.29 602.07 952.94 296.12 1127.86 287.22 1054.11 378.03 988.01 516.46 1137.70 508.10
00005450 00000092 841.83 85.11 391.08 601.09 948.77 297.94 1125.10 287.32 1047.51 381.76 984.01 514.81 1135.55 505.12
00005451 00000093 841.67 85.06 391.42 601.40 948.34 297.81 1125.51 287.10 1047.24 382.17 983.41 515.06 1135.42 505.30
00005452 00000094 841.92 85.74 387.79 596.43 945.22 299.67 1122.76 287.84 1044.21 382.79 982.13 515.69 1133.67 505.25
00005453 00000095 842.34 85.24 386.75 589.38 943.67 301.52 1120.89 290.62 1043.20 382.34 981.20 513.54 1130.61 504.29
00005454 00000096 843.12 82.23 384.59 586.86 943.69 301.94 1120.31 292.29 1042.18 383.84 980.48 512.87 1126.12 505.06
00005455 00000097 841.70 82.57 385.82 587.81 941.64 300.29 1118.97 290.11 1040.45 383.18 978.87 512.64 1125.21 504.34
00005456 00000098 841.63 82.71 385.81 587.57 941.73 300.61 1118.71 290.85 1040.36 383.31 978.63 512.73 1124.81 504.84
00005457 00000099 839.51 83.51 389.52 599.09 940.93 296.57 1119.74 286.91 1037.68 379.76 976.90 514.70 1126.30 506.38
00005458 00000100 840.49 86.20 387.93 596.07 940.49 297.09 1120.21 286.61 1037.07 377.62 977.27 515.68 1127.20 506.82
00005459 00000101 841.38 87.98 386.39 590.10 941.19 294.98 1119.63 285.15 1037.17 375.97 978.57 512.66 1125.64 504.54
00005460 00000102 842.07 84.57 385.82 594.32 943.42 293.72 1122.22 284.60 1039.56 372.88 979.89 513.50 1124.78 506.04
00005461 00000103 841.93 84.79 385.97 593.74 943.20 293.74 1122.20 284.49 1039.22 372.95 979.73 513.17 1124.68 505.61
00005462 00000104 843.94 86.69 384.25 592.00 946.67 292.32 1124.69 284.06 1042.47 370.21 982.60 513.10 1124.47 506.42
00005463 00000105 847.21 85.63 381.83 574.48 954.13 292.73 1127.77 288.81 1047.78 366.41 985.75 500.74 1121.86 498.19
00005464 00000106 848.49 84.93 382.16 556.61 956.40 293.75 1127.87 289.94 1047.10 365.36 983.28 492.00 1119.17 489.81
00005465 00000107 848.90 83.90 383.44 555.18 959.36 291.84 1133.31 288.40 1051.67 361.02 986.25 489.03 1125.03 486.71
00005466 00000108 849.06 83.72 382.92 554.41 959.45 292.23 1133.54 288.54 1051.66 361.09 986.07 489.30 1125.21 486.74
00005467 00000109 849.68 85.63 384.54 560.40 958.81 286.39 1128.67 281.19 1054.00 358.05 994.30 486.59 1127.06 482.31
00005468 00000110 850.14 83.45 385.88 570.96 961.09 286.87 1132.20 279.83 1059.43 360.60 997.60 493.91 1132.32 487.88
00005469 00000111 850.93 83.46 384.70 563.66 964.26 290.36 1138.36 281.23 1065.38 361.93 1000.04 494.87 1138.78 486.86
00005470 00000112 849.79 83.10 386.81 563.15 964.44 291.49 1141.01 281.83 1067.92 364.07 999.94 495.31 1141.81 486.64
00005471 00000113 849.91 83.38 386.60 562.76 964.68 291.24 1141.00 281.88 1068.11 364.23 1000.14 495.16 1141.73 486.76
00005472 00000114 850.32 82.09 388.42 572.70 965.44 291.62 1141.81 283.70 1069.26 366.44 1000.23 497.57 1143.32 489.96
00005473 00000115 848.74 83.75 390.90 593.30 965.65 292.56 1143.48 286.62 1069.08 372.38 995.42 507.46 1147.32 501.20
00005474 00000116 845.88 82.71 394.22 604.72 963.79 294.25 1141.65 286.55 1071.69 374.86 996.68 513.73 1149.98 505.81
00005475 00000117 845.09 79.67 394.61 610.10 962.47 299.42 1139.80 290.57 1070.87 379.80 996.26 515.06 1152.39 506.10
00005476 00000118 844.95 79.43 394.73 610.33 962.48 299.45 1139.81 290.65 1070.93 379.76 996.23 515.05 1152.35 506.12
00005477 00000119 845.12 77.96 394.62 606.51 960.74 301.74 1139.61 291.26 1068.00 382.60 994.13 513.61 1153.44 503.25
00005478 00000120 844.36 77.19 396.02 604.83 960.97 302.61 1142.35 293.14 1069.14 381.50 993.20 511.81 1154.72 502.33
00005479 00000121 843.95 78.90 395.35 592.73 961.21 302.18 1143.90 293.78 1070.02 378.15 993.91 508.12 1152.75 499.72
00005480 00000122 844.64 79.66 394.66 588.47 961.31 299.47 1143.48 289.82 1071.20 374.50 995.92 504.86 1153.69 495.45
00005481 00000123 844.30 78.82 395.02 589.77 961.20 299.25 1143.56 289.71 1071.21 374.41 995.86 504.95 1153.75 495.65
00005482 00000124 844.24 83.91 394.94 582.32 962.09 295.17 1144.63 287.51 1071.16 371.69 995.64 501.67 1152.67 493.77
00005483 00000125 844.59 82.96 393.13 583.80 962.84 293.09 1142.48 286.10 1070.16 366.75 997.00 500.86 1150.58 493.65
00005484 00000126 845.50 84.34 390.96 582.85 961.98 289.36 1139.37 281.13 1066.93 361.18 994.93 497.12 1147.01 489.15
00005485 00000127 843.03 85.04 391.30 565.89 962.31 290.60 1142.72 282.98 1069.81 360.21 994.07 490.96 1146.94 483.86
00005486 00000128 843.62 85.52 390.46 565.01 962.39 290.83 1142.81 283.26 1069.73 360.20 993.94 491.00 1146.75 483.99
00005487 00000129 842.68 89.95 390.55 540.03 966.29 293.56 1142.81 285.53 1074.11 359.51 999.24 482.62 1146.55 475.24
00005488 00000130 844.36 88.12 388.94 539.60 967.60 293.04 1144.09 284.70 1075.69 358.24 999.12 479.56 1149.01 471.82
00005489 00000131 845.12 88.98 387.97 535.61 968.33 292.44 1143.45 282.74 1076.68 358.21 1002.35 478.90 1149.95 469.94
00005490 00000132 842.38 93.52 391.42 533.55 968.52 291.75 1144.29 281.63 1079.40 361.29 1006.27 482.84 1150.02 473.33
00005491 DELETE   842.46 94.54 391.49 532.81 968.77 291.49 1144.75 281.87 1078.74 361.49 1005.93 482.82 1149.58 473.74
00005492 00000134 841.84 94.33 393.99 552.73 969.93 291.35 1139.97 283.11 1078.94 364.51 1009.92 489.46 1147.10 481.47
00005493 00000135 845.18 89.14 391.54 586.47 972.68 296.96 1142.22 291.38 1078.57 375.71 1003.73 507.87 1146.30 502.52
00005494 00000136 843.09 88.54 398.38 600.58 971.01 302.06 1144.59 295.87 1080.78 383.18 1003.03 515.42 1153.02 508.98
00005495 00000137 845.13 83.04 397.53 603.37 971.98 304.71 1146.78 298.89 1080.46 385.36 1001.43 514.34 1154.31 508.11
00005496 00000138 845.23 84.62 397.34 601.43 972.20 304.48 1146.71 298.74 1080.43 385.36 1001.52 514.05 1154.12 507.91
00005497 00000139 847.76 84.55 392.94 582.75 972.46 306.43 1149.00 298.35 1081.11 385.76 1003.75 509.34 1154.04 501.52
00005498 00000140 847.88 85.02 390.89 561.00 971.47 305.25 1149.45 294.62 1082.43 381.77 1007.21 502.50 1153.59 492.68
00005499 00000141 846.48 92.43 387.94 540.31 971.89 301.41 1145.32 289.54 1081.09 377.81 1009.94 493.59 1149.60 482.86
00005500 00000142 846.73 92.16 387.28 535.00 971.32 298.03 1144.27 286.25 1080.05 371.57 1011.00 488.91 1148.88 478.16
00005501 00000143 846.89 91.51 387.22 535.66 971.16 298.05 1144.34 286.32 1079.87 371.67 1010.79 489.03 1148.83 478.31
00005502 00000144 845.04 91.38 390.32 537.09 967.96 296.27 1142.07 285.14 1076.54 369.50 1007.64 487.90 1146.59 477.66
00005503 00000145 844.43 88.25 390.98 543.24 967.31 295.45 1139.04 283.92 1075.03 367.99 1009.13 489.12 1144.14 478.72
00005504 00000146 843.85 89.03 392.09 546.02 966.69 293.55 1133.75 281.27 1071.93 367.81 1013.10 489.39 1139.04 478.63
00005505 00000147 842.19 85.11 392.60 549.50 965.73 297.43 1132.37 282.31 1072.26 371.32 1012.61 491.61 1139.91 478.56
00005506 00000148 842.07 85.94 392.55 547.94 965.87 297.47 1132.49 282.81 1072.26 371.46 1012.34 491.44 1139.44 478.81
00005507 00000149 841.12 83.12 393.83 553.85 964.21 301.96 1133.00 286.08 1071.93 375.55 1010.42 495.67 1143.17 481.92
00005508 00000150 841.40 84.42 392.93 555.13 964.27 304.79 1132.31 288.24 1071.72 378.68 1009.55 497.96 1144.23 483.84
00005509 00000151 840.58 87.38 392.94 561.48 961.59 307.71 1132.46 292.16 1070.36 383.02 1004.64 503.57 1145.59 490.40
00005510 00000152 841.85 85.85 390.45 572.14 959.57 307.96 1133.20 296.48 1066.61 387.18 1000.27 509.49 1145.52 499.42
00005511 00000153 841.88 85.57 390.03 571.27 960.09 308.10 1133.22 296.87 1067.21 387.09 1000.69 509.02 1145.20 499.20
00005512 00000154 838.79 88.78 392.53 585.83 957.66 305.46 1131.04 294.73 1063.82 388.30 997.90 515.92 1142.73 506.59
00005513 00000155 836.59 95.98 390.56 577.70 953.57 302.11 1125.45 292.08 1058.87 385.24 993.64 512.06 1139.62 503.61
00005514 00000156 836.74 95.73 387.07 562.66 950.14 304.67 1125.19 294.64 1056.16 387.59 990.39 507.84 1137.66 499.87
00005515 00000157 836.21 93.73 387.99 553.74 949.03 306.44 1123.52 295.97 1054.16 387.76 987.67 503.57 1133.04 495.53
00005516 00000158 836.38 92.55 387.63 555.15 948.96 306.35 1122.91 295.72 1054.23 387.67 987.85 503.64 1132.65 495.47
00005517 00000159 837.54 90.75 386.94 550.51 949.13 307.26 1121.98 297.93 1052.49 388.19 986.46 500.45 1129.73 493.50
00005518 00000160 836.45 89.84 387.38 548.92 947.10 304.27 1121.83 295.49 1050.16 385.92 985.32 500.49 1127.70 493.92
00005519 00000161 834.91 91.90 389.29 549.39 945.70 299.35 1120.90 291.65 1049.07 382.54 986.44 499.09 1124.73 493.40
00005520 00000162 833.36 93.59 389.34 545.06 944.81 298.22 1120.22 291.82 1048.34 382.20 984.30 494.80 1123.35 490.08
00005521 00000163 833.04 93.34 389.23 544.16 944.81 298.49 1120.03 292.08 1048.33 382.52 984.04 494.94 1122.69 490.26
00005522 00000164 831.62 93.60 389.56 540.45 944.84 297.88 1118.20 290.32 1048.72 379.24 985.79 492.42 1120.72 486.76
00005523 00000165 831.38 97.23 388.50 539.19 943.86 295.28 1114.57 288.46 1046.61 375.60 986.83 489.58 1118.72 484.76
00005524 00000166 831.32 94.78 389.87 544.07 942.67 296.99 1115.48 289.56 1046.00 378.74 986.24 493.43 1119.85 488.16
