Video ID: 	4NEsKULMWls
H: 	1080
W: 	1920
FPS: 	25.0

FRAME INDEX X0 Y0 W H [Landmarks (5 Points)]

00005360 00000000 895.99 274.16 498.81 601.36 1022.87 519.51 1230.68 593.10 1073.16 730.29 976.51 694.91 1173.93 757.31
00005361 00000001 896.44 272.31 498.69 602.68 1022.44 519.22 1231.55 591.27 1073.61 728.98 977.25 698.69 1171.41 759.78
00005362 00000002 897.92 267.19 498.56 606.92 1023.37 520.85 1233.20 588.12 1076.14 726.37 980.29 705.11 1169.21 762.06
00005363 00000003 899.58 254.18 490.70 610.70 1013.91 512.28 1241.18 574.00 1084.99 730.31 981.12 711.38 1162.56 764.59
00005364 00000004 903.56 252.12 486.53 622.12 1012.49 514.04 1242.24 571.36 1086.19 732.70 987.88 726.18 1163.12 775.78
00005365 00000005 906.76 248.17 485.19 627.97 1013.38 510.32 1242.08 570.91 1084.92 727.64 990.39 728.27 1160.40 780.41
00005366 00000006 908.44 230.46 486.57 649.55 1014.70 509.78 1236.36 566.88 1082.56 715.40 994.86 733.79 1155.77 782.23
00005367 DELETE   906.13 210.17 492.09 650.88 1008.37 481.19 1232.02 543.43 1072.58 696.33 990.08 708.60 1159.81 761.66
00005368 DELETE   910.23 193.47 480.46 650.99 1008.35 450.55 1238.87 509.99 1079.47 673.17 989.88 687.84 1160.90 739.07
00005369 DELETE   918.32 180.16 465.87 652.08 1006.46 422.41 1238.86 485.77 1077.14 649.13 985.23 663.87 1161.86 718.31
00005370 00000010 912.85 153.51 470.38 665.38 1013.14 400.11 1243.30 461.06 1084.13 618.53 988.79 642.10 1164.66 694.38
00005371 00000011 912.21 127.08 472.64 675.57 1014.82 378.99 1242.33 439.92 1086.47 594.46 986.97 623.76 1166.44 676.22
00005372 00000012 916.42 129.32 469.05 653.44 1015.71 361.52 1235.48 431.72 1077.87 584.08 988.43 602.87 1159.67 662.30
00005373 00000013 919.33 114.51 466.09 659.24 1013.28 347.09 1235.31 420.55 1072.43 573.69 981.28 591.69 1157.82 654.02
00005374 00000014 920.87 111.10 466.40 653.47 1017.38 336.33 1238.31 416.00 1072.34 560.16 982.86 578.21 1159.34 645.36
00005375 00000015 922.36 101.55 468.27 663.14 1020.81 330.61 1243.68 410.43 1075.80 554.36 984.71 572.79 1162.61 640.38
00005376 00000016 926.86 98.14 466.55 666.73 1025.59 325.74 1246.64 403.75 1079.86 544.99 987.83 572.60 1163.16 638.88
00005377 00000017 927.12 95.55 467.43 669.21 1028.16 324.64 1248.52 401.79 1083.09 540.63 989.28 572.46 1162.65 638.20
00005378 00000018 927.26 94.67 470.33 666.49 1030.19 322.28 1249.74 399.34 1085.41 538.43 992.02 570.79 1160.18 636.65
00005379 00000019 927.17 89.80 471.15 667.83 1028.59 320.13 1248.22 396.24 1084.09 536.16 991.54 570.27 1157.77 635.42
00005380 00000020 927.27 87.15 469.51 666.05 1027.62 317.18 1248.58 393.71 1083.31 533.31 990.16 566.89 1158.63 632.14
00005381 00000021 925.49 81.12 472.02 670.74 1028.08 314.96 1248.88 390.88 1083.60 530.21 989.41 563.57 1159.46 628.53
00005382 00000022 924.71 77.10 472.18 673.99 1027.99 312.99 1248.93 388.21 1082.64 526.93 988.69 560.04 1160.71 624.36
00005383 00000023 922.85 74.00 472.10 675.36 1027.89 309.44 1247.83 386.95 1081.52 522.93 987.18 553.60 1162.62 619.77
00005384 00000024 922.15 73.99 472.74 670.84 1027.63 308.04 1246.89 385.68 1081.13 520.15 987.16 549.39 1162.21 615.61
00005385 00000025 921.59 74.22 471.73 670.58 1027.99 306.97 1246.70 385.77 1080.84 518.68 986.03 549.85 1159.87 617.00
00005386 00000026 922.79 75.60 470.75 671.46 1026.36 306.30 1245.73 384.25 1079.32 520.87 985.39 554.02 1158.75 620.49
00005387 00000027 923.60 74.53 471.11 675.46 1026.78 306.12 1245.33 382.79 1079.62 518.73 986.02 556.38 1160.00 621.77
00005388 00000028 923.78 75.81 470.69 674.43 1025.98 305.00 1244.48 383.30 1077.30 517.78 983.95 554.92 1160.86 621.59
00005389 00000029 923.45 75.03 470.51 672.96 1025.67 303.87 1243.67 383.63 1075.94 516.01 982.37 552.05 1159.84 619.83
00005390 00000030 923.71 71.56 469.16 675.61 1024.52 302.29 1241.40 385.18 1072.28 514.10 981.18 549.30 1158.84 619.33
00005391 00000031 920.14 71.42 472.07 672.74 1022.82 299.93 1238.25 382.66 1069.42 507.70 979.46 546.11 1154.13 615.80
00005392 00000032 919.21 67.96 470.88 673.22 1020.56 293.36 1233.85 382.01 1062.70 503.86 974.87 540.93 1147.79 615.05
00005393 00000033 915.09 65.51 475.94 672.45 1018.36 291.37 1229.98 381.35 1056.61 500.11 972.09 537.36 1142.21 612.65
00005394 00000034 913.54 64.98 476.50 667.92 1018.48 287.29 1228.83 382.13 1053.64 498.78 970.65 531.42 1139.91 610.62
00005395 00000035 914.55 65.69 477.05 668.68 1019.72 288.18 1230.55 382.69 1056.91 500.57 972.07 532.15 1144.08 611.08
00005396 00000036 918.80 67.20 474.77 670.26 1024.49 289.82 1238.60 382.85 1066.21 504.77 977.52 535.07 1151.73 612.88
00005397 00000037 923.47 65.63 473.50 675.74 1027.89 295.37 1241.14 382.32 1070.73 506.99 983.11 541.37 1156.31 614.72
00005398 00000038 925.43 68.34 470.95 673.42 1030.00 298.11 1243.30 383.29 1074.75 510.64 986.31 545.14 1156.54 617.07
00005399 00000039 925.44 68.65 469.70 675.53 1029.04 297.73 1241.80 382.29 1073.48 509.30 985.62 546.23 1155.00 617.72
00005400 00000040 924.04 67.21 471.42 676.56 1027.36 296.18 1240.75 382.14 1071.38 507.15 983.88 544.53 1153.68 617.14
00005401 00000041 923.42 65.23 471.62 676.66 1027.49 295.20 1239.81 382.68 1070.54 506.37 983.33 542.11 1153.50 615.85
00005402 00000042 923.78 65.89 470.47 677.10 1028.16 300.89 1237.95 388.43 1069.57 506.91 982.96 542.27 1153.92 616.07
00005403 00000043 925.82 67.01 469.46 675.89 1028.86 304.15 1238.19 390.77 1070.11 506.87 984.98 543.84 1155.31 616.75
00005404 00000044 927.30 69.73 468.79 674.05 1028.39 306.32 1239.09 390.74 1071.44 508.81 986.49 547.52 1155.80 618.64
00005405 00000045 927.98 69.19 467.77 675.20 1028.44 305.34 1238.72 390.54 1070.83 509.46 986.66 548.63 1154.45 620.34
00005406 00000046 927.03 67.66 467.45 677.09 1026.14 303.28 1236.47 387.96 1069.05 507.80 984.52 548.24 1152.86 619.63
00005407 00000047 923.51 65.46 467.96 679.97 1023.83 298.47 1233.43 385.56 1063.78 503.38 980.31 545.15 1148.95 618.27
00005408 00000048 921.90 63.37 469.27 682.61 1020.60 294.97 1228.63 382.19 1058.06 500.07 978.08 546.31 1143.02 619.30
00005409 00000049 922.12 59.93 468.82 686.30 1018.47 291.51 1226.46 379.67 1053.61 498.65 975.82 545.78 1139.16 619.60
00005410 00000050 922.90 63.77 469.31 679.96 1019.55 291.26 1228.61 381.98 1055.59 501.96 976.53 544.55 1139.95 620.48
00005411 00000051 924.32 61.50 468.53 683.85 1022.36 292.88 1235.30 385.65 1062.04 507.45 976.85 545.69 1144.19 623.65
00005412 00000052 927.14 67.28 469.93 678.64 1027.85 298.83 1240.16 385.77 1071.18 510.21 984.38 549.39 1149.39 623.04
00005413 00000053 927.46 65.30 473.94 684.47 1035.38 301.78 1249.17 386.67 1081.58 514.28 989.16 550.48 1158.49 623.00
00005414 00000054 929.31 68.04 473.76 682.15 1035.23 303.75 1250.03 384.87 1082.73 516.55 991.10 554.35 1162.10 623.91
00005415 00000055 929.29 70.43 472.30 679.08 1034.75 303.38 1249.10 384.35 1081.95 515.54 991.31 553.63 1162.64 622.87
00005416 00000056 928.17 71.97 469.17 675.79 1031.01 303.55 1245.34 384.70 1077.69 515.87 989.28 551.65 1160.24 620.76
00005417 00000057 925.69 74.33 471.24 670.24 1027.08 300.72 1241.04 383.64 1071.61 514.32 986.90 547.79 1158.48 618.05
00005418 00000058 923.95 70.18 471.81 672.00 1026.76 298.33 1239.37 382.71 1070.19 510.43 985.31 543.03 1157.76 614.40
00005419 00000059 923.24 73.41 471.98 668.55 1025.93 299.20 1238.61 383.20 1069.24 510.39 984.83 543.49 1157.83 614.44
00005420 00000060 922.76 74.76 472.74 668.28 1026.16 300.54 1238.50 383.87 1069.56 510.91 985.87 544.05 1158.58 614.49
00005421 00000061 923.42 76.34 472.08 667.23 1025.27 301.74 1238.22 384.76 1069.06 513.94 986.11 545.19 1160.03 615.27
00005422 00000062 922.84 78.84 472.05 665.87 1024.24 302.52 1237.13 387.25 1066.90 516.02 984.39 545.06 1159.48 616.46
00005423 00000063 920.44 83.75 473.91 662.00 1022.24 303.14 1236.71 388.18 1065.79 515.91 983.06 545.44 1159.68 616.95
00005424 00000064 917.93 89.34 474.32 656.68 1021.38 303.89 1235.69 392.36 1063.65 516.44 979.63 542.62 1157.20 616.75
00005425 00000065 916.37 96.78 473.10 647.73 1020.78 302.15 1235.59 394.71 1061.80 518.34 976.46 538.91 1154.83 616.25
00005426 00000066 914.82 105.69 474.83 639.90 1021.92 304.33 1237.71 397.42 1064.71 522.49 977.77 540.38 1155.51 618.22
00005427 00000067 914.99 106.96 475.25 641.26 1021.60 307.00 1238.80 396.70 1067.23 525.91 978.97 544.75 1157.14 619.94
00005428 00000068 914.87 111.50 476.63 636.72 1021.74 308.39 1240.08 395.76 1069.68 527.33 980.29 546.63 1159.34 620.05
00005429 00000069 914.68 110.85 477.07 638.60 1021.32 309.30 1240.39 395.68 1070.71 528.69 980.06 548.15 1159.86 620.80
00005430 00000070 913.62 110.30 476.48 640.95 1020.73 310.31 1238.83 398.01 1068.52 529.75 979.10 548.75 1158.10 622.34
00005431 00000071 912.25 113.50 477.64 636.81 1020.19 310.70 1239.06 400.11 1068.47 531.69 978.12 547.77 1157.52 622.73
00005432 00000072 913.17 112.75 477.25 639.57 1020.53 311.47 1238.47 401.38 1067.59 532.43 978.28 549.75 1155.57 625.09
00005433 00000073 915.24 112.64 474.74 640.96 1019.97 312.16 1237.84 401.46 1066.12 534.05 979.23 552.92 1154.43 627.64
00005434 00000074 914.99 115.37 475.01 639.69 1020.44 313.26 1237.45 402.23 1066.27 534.21 980.48 553.94 1154.08 628.38
00005435 00000075 914.09 118.21 474.83 638.36 1019.14 312.91 1236.60 402.68 1064.76 534.90 979.92 554.09 1153.16 629.17
00005436 00000076 914.12 114.50 474.67 642.53 1018.15 312.80 1234.58 403.53 1062.11 533.35 978.83 554.62 1150.74 630.30
00005437 00000077 913.99 116.49 474.55 640.92 1018.40 313.08 1234.89 403.74 1062.94 534.31 978.73 554.37 1151.85 630.04
00005438 00000078 913.61 118.93 477.05 636.61 1020.97 313.80 1238.79 403.47 1067.32 534.15 979.58 551.70 1157.22 626.73
00005439 00000079 916.30 118.32 476.05 637.67 1024.37 315.39 1240.33 402.97 1071.04 534.24 981.60 551.73 1161.32 625.17
00005440 00000080 919.26 118.20 475.92 639.00 1026.28 316.63 1241.55 401.86 1073.36 533.77 983.61 552.93 1164.44 624.38
00005441 00000081 920.45 117.85 474.48 640.37 1027.01 317.00 1241.54 402.38 1073.48 533.73 984.05 552.96 1165.33 624.52
00005442 00000082 918.95 117.68 475.12 640.91 1026.99 316.61 1241.31 403.38 1073.11 533.22 982.27 551.26 1165.25 624.04
00005443 00000083 919.80 116.60 476.04 640.24 1028.90 313.97 1243.13 404.21 1073.19 531.77 982.08 548.54 1165.58 624.16
00005444 00000084 923.79 103.41 477.77 650.92 1033.35 312.72 1244.35 403.96 1075.27 527.95 984.40 547.39 1162.71 624.10
00005445 00000085 926.72 89.52 485.49 664.64 1044.05 310.78 1253.90 405.83 1086.09 528.01 989.84 546.07 1167.19 626.66
00005446 00000086 932.62 84.51 496.55 666.93 1068.55 310.26 1273.10 414.16 1108.97 524.66 1002.98 538.13 1177.08 625.99
00005447 00000087 945.79 84.80 503.74 668.01 1078.50 312.97 1294.81 418.97 1128.37 527.56 1014.10 529.96 1203.28 618.16
00005448 00000088 947.46 85.99 517.41 670.09 1092.31 313.58 1311.14 424.31 1141.42 534.96 1023.32 530.33 1214.05 623.45
00005449 00000089 958.75 90.04 514.88 665.43 1106.14 320.24 1321.34 434.13 1152.93 542.43 1033.93 532.12 1223.13 628.11
00005450 00000090 966.66 98.03 516.72 666.42 1116.49 326.11 1330.53 440.01 1163.47 554.11 1044.43 542.76 1228.46 639.11
00005451 00000091 972.88 101.80 518.19 661.66 1126.83 329.55 1338.36 441.15 1176.01 556.20 1051.22 546.36 1230.64 640.90
00005452 00000092 972.45 110.03 520.88 655.60 1126.07 332.19 1339.11 441.77 1175.23 559.54 1054.27 552.35 1232.60 645.20
00005453 00000093 972.70 111.82 514.13 654.56 1120.40 334.55 1333.10 443.18 1167.98 562.43 1051.50 553.19 1233.72 645.14
00005454 00000094 972.37 115.16 507.01 651.49 1112.58 334.68 1329.13 439.21 1161.73 562.50 1049.30 553.76 1235.80 641.91
00005455 00000095 971.75 117.43 499.66 648.99 1107.22 333.90 1324.42 439.06 1153.70 562.97 1045.75 552.72 1235.86 640.79
00005456 00000096 969.92 116.79 496.06 650.58 1101.75 334.82 1321.31 439.03 1150.81 564.00 1041.08 553.83 1233.49 641.00
00005457 00000097 968.51 118.96 495.22 647.30 1097.44 336.22 1318.67 436.40 1148.47 563.39 1039.61 554.59 1231.92 638.42
00005458 00000098 966.86 117.03 494.56 651.25 1095.01 337.77 1315.40 438.18 1146.02 562.50 1036.62 554.17 1230.16 638.10
00005459 00000099 964.94 120.39 496.23 649.03 1094.71 338.69 1315.47 438.99 1147.16 562.98 1036.78 554.20 1229.41 638.09
00005460 00000100 965.87 122.82 495.18 646.51 1095.37 339.35 1315.06 440.05 1146.44 562.39 1036.81 553.91 1228.52 638.18
00005461 00000101 964.43 124.97 496.14 644.36 1096.07 339.42 1315.14 440.58 1147.32 562.45 1036.63 552.59 1228.68 637.21
00005462 00000102 963.15 121.26 496.57 647.88 1093.82 339.61 1314.03 441.16 1145.96 563.01 1033.96 553.04 1226.43 638.02
00005463 00000103 959.53 123.64 500.94 643.90 1090.33 339.56 1312.49 440.28 1144.27 562.90 1030.54 555.12 1222.73 639.65
00005464 00000104 957.64 123.39 501.64 643.74 1089.44 338.90 1311.54 440.26 1143.65 562.33 1029.00 552.62 1222.99 637.58
00005465 00000105 955.09 122.98 501.19 644.30 1086.92 339.06 1310.45 441.06 1142.06 563.29 1026.02 552.47 1221.30 637.85
00005466 00000106 953.17 122.15 502.35 643.53 1085.30 338.29 1309.35 440.96 1141.18 562.54 1023.78 551.46 1219.90 637.31
00005467 00000107 950.18 120.39 504.05 645.49 1084.53 337.11 1308.64 442.21 1140.65 561.97 1021.37 548.20 1219.87 635.95
00005468 00000108 949.42 121.06 502.94 644.03 1084.10 336.81 1306.77 442.84 1139.21 559.92 1020.01 544.85 1219.96 633.30
00005469 00000109 946.69 119.81 504.94 645.67 1081.14 335.91 1303.21 442.30 1135.91 558.08 1016.34 544.96 1216.20 633.62
00005470 00000110 946.59 119.05 503.72 645.64 1079.84 335.36 1300.78 442.80 1133.04 557.38 1014.69 541.67 1216.15 630.85
00005471 00000111 944.87 119.98 501.24 644.80 1077.94 334.00 1298.04 443.82 1130.32 556.32 1011.65 540.47 1213.70 631.31
00005472 00000112 944.16 114.79 503.11 649.63 1075.57 332.47 1295.82 443.09 1126.80 555.22 1009.41 542.38 1208.67 633.78
00005473 00000113 943.02 116.32 503.58 648.84 1073.56 331.37 1293.51 442.01 1124.49 553.83 1008.40 542.48 1206.79 633.91
00005474 00000114 941.88 120.32 505.35 643.07 1071.04 330.85 1292.34 440.06 1122.23 553.42 1007.37 545.02 1203.85 635.27
00005475 00000115 941.37 123.53 502.84 640.14 1069.11 333.98 1289.97 440.25 1121.20 554.75 1006.20 547.29 1202.39 635.00
00005476 00000116 942.07 114.61 499.40 647.92 1067.14 337.22 1284.95 445.96 1114.37 555.42 1001.28 547.52 1197.67 637.16
00005477 00000117 938.19 118.09 499.22 645.43 1061.62 340.40 1278.96 448.45 1107.66 558.84 997.44 551.83 1192.09 640.70
00005478 00000118 935.35 115.74 499.73 650.04 1056.44 337.49 1275.84 446.40 1103.13 560.92 992.27 554.59 1186.26 644.09
00005479 00000119 929.27 121.49 506.21 650.95 1053.95 341.64 1271.29 444.71 1102.54 557.37 1000.16 562.76 1181.78 647.79
00005480 00000120 930.60 122.60 502.52 650.80 1051.97 341.71 1269.71 441.35 1101.67 556.46 999.69 567.28 1179.48 649.91
00005481 00000121 932.04 127.22 494.61 647.46 1061.10 341.62 1265.27 440.71 1099.43 559.69 999.08 565.70 1171.99 650.14
00005482 00000122 931.50 121.38 499.64 658.11 1053.97 338.66 1269.43 439.08 1101.10 550.74 998.14 563.39 1181.33 646.81
00005483 00000123 932.48 121.41 501.00 656.80 1056.06 337.44 1270.18 438.24 1101.73 549.20 999.93 560.22 1183.57 644.02
00005484 00000124 933.81 122.60 500.15 654.27 1058.89 335.58 1273.36 437.71 1104.34 548.54 1002.00 557.18 1186.69 642.08
00005485 00000125 933.22 120.05 502.85 653.84 1058.13 333.31 1273.37 435.83 1103.18 546.00 1002.07 553.99 1187.43 639.22
00005486 00000126 928.59 111.59 510.99 653.85 1061.20 328.04 1271.13 437.40 1098.81 553.30 998.92 554.08 1179.26 645.41
00005487 00000127 927.44 107.64 506.63 657.22 1056.30 327.63 1267.66 432.09 1096.56 550.46 994.35 555.26 1175.44 642.98
00005488 00000128 926.95 104.40 504.15 656.48 1051.07 321.75 1263.42 424.84 1090.79 545.77 992.77 554.35 1169.82 640.99
00005489 00000129 926.31 103.52 499.54 652.72 1050.17 322.32 1261.09 420.17 1091.55 541.43 995.44 551.78 1171.64 634.15
00005490 00000130 926.83 110.19 498.53 646.72 1047.93 333.02 1256.43 426.48 1090.06 545.14 998.03 554.73 1172.08 633.36
00005491 00000131 931.53 105.97 495.44 653.83 1047.04 343.59 1253.62 440.01 1087.91 552.95 998.61 557.32 1174.56 638.22
00005492 00000132 929.76 122.08 495.76 647.72 1052.89 359.83 1250.68 455.41 1085.61 566.50 996.87 568.32 1171.44 649.01
00005493 00000133 928.85 133.74 487.56 639.51 1049.95 373.45 1255.40 461.29 1096.77 577.53 1001.08 582.23 1174.63 656.85
00005494 00000134 926.29 146.55 486.44 633.58 1040.61 388.84 1246.08 478.22 1085.16 596.82 993.97 590.05 1173.31 665.30
00005495 00000135 921.33 164.64 490.64 624.72 1034.88 398.43 1245.15 488.80 1082.30 609.13 990.95 603.57 1169.89 679.51
00005496 00000136 918.65 174.83 487.91 624.08 1027.51 405.81 1238.37 499.71 1072.19 620.38 987.68 609.39 1163.48 687.78
00005497 00000137 914.38 183.79 484.35 624.13 1024.23 414.99 1235.78 512.24 1068.28 630.05 984.25 613.35 1162.99 694.26
00005498 00000138 915.09 191.53 475.00 626.20 1018.83 427.28 1227.81 513.99 1066.46 636.90 982.09 625.56 1163.64 697.89
00005499 00000139 911.37 195.23 474.03 632.17 1010.69 437.74 1227.37 517.36 1065.83 653.67 975.78 644.58 1159.54 711.61
00005500 00000140 909.01 219.89 476.62 613.64 1004.26 452.02 1228.44 525.22 1063.59 671.92 980.05 659.69 1167.70 720.57
00005501 00000141 907.75 226.11 482.16 608.26 1002.49 464.42 1217.27 535.84 1045.23 677.80 973.21 668.71 1156.48 727.10
00005502 00000142 900.45 236.96 477.03 614.92 991.97 475.63 1222.12 548.76 1058.75 690.62 978.02 677.10 1159.85 737.35
00005503 00000143 896.53 259.69 475.57 593.89 987.72 479.59 1225.28 553.22 1059.89 698.46 974.55 682.78 1160.92 743.84
00005504 00000144 894.85 270.71 472.44 584.09 988.65 482.28 1224.15 562.14 1057.64 703.24 972.76 681.96 1158.44 747.93
00005505 00000145 890.40 275.41 480.16 587.32 988.22 487.89 1224.43 569.61 1057.33 710.13 968.72 687.22 1157.11 755.14
00005506 00000146 891.19 278.60 477.25 591.69 987.64 494.89 1218.81 570.40 1056.67 714.44 966.97 696.58 1155.45 759.64
00005507 00000147 889.71 279.25 477.01 592.26 988.73 500.08 1217.61 573.87 1057.74 716.16 965.68 699.32 1154.51 760.97
00005508 00000148 887.90 282.04 492.82 594.39 996.52 509.00 1211.51 578.82 1046.45 716.77 974.52 709.33 1154.72 767.26
00005509 00000149 888.15 279.50 492.38 595.80 996.08 511.04 1210.69 576.94 1047.44 715.90 976.67 713.26 1153.38 767.80
00005510 00000150 887.99 281.24 491.43 594.79 995.81 511.31 1209.89 575.60 1047.72 715.27 976.86 713.51 1152.99 766.75
00005511 00000151 887.86 284.42 491.22 591.59 996.51 511.72 1210.99 575.23 1049.29 715.34 976.86 712.78 1154.85 765.42
00005512 00000152 888.63 284.69 492.11 592.11 995.86 510.39 1211.69 576.51 1047.60 716.82 975.57 711.28 1155.15 765.89
00005513 00000153 885.70 285.28 496.02 592.92 994.51 509.13 1211.03 576.95 1045.70 717.56 974.81 709.59 1154.68 765.57
00005514 00000154 886.34 280.54 495.10 596.24 992.91 506.13 1209.94 577.32 1041.66 716.58 973.41 707.22 1153.86 765.86
00005515 00000155 887.33 278.77 475.92 597.96 981.45 496.33 1214.95 573.93 1049.97 720.19 960.93 700.54 1152.77 764.82
00005516 00000156 888.59 281.18 490.55 592.89 991.56 503.08 1204.50 580.13 1034.64 715.92 969.95 703.28 1148.11 766.73
00005517 00000157 889.44 282.40 490.09 590.57 992.72 502.02 1206.12 580.34 1034.96 715.14 969.06 701.94 1147.78 766.42
00005518 00000158 890.60 279.45 475.95 595.15 984.92 496.38 1216.45 575.59 1050.64 717.62 962.93 699.01 1152.02 764.67
00005519 00000159 893.20 277.57 474.97 596.09 988.44 496.60 1219.26 575.15 1054.17 717.00 965.24 698.22 1153.67 763.53
00005520 00000160 893.64 275.38 477.31 597.72 988.98 497.67 1220.10 574.99 1054.49 717.32 965.27 699.63 1152.77 764.11
00005521 00000161 894.62 275.68 476.84 597.03 988.96 497.95 1221.24 577.07 1054.01 718.58 965.54 698.60 1154.16 764.38
00005522 00000162 894.98 275.33 478.73 599.11 989.07 499.14 1221.83 577.32 1053.91 719.25 965.15 700.32 1155.95 765.28
00005523 00000163 897.03 276.08 478.38 599.95 990.50 501.58 1223.37 579.21 1055.46 720.63 966.82 703.08 1157.91 767.55
00005524 00000164 897.91 283.83 476.61 592.38 991.96 504.74 1221.39 578.77 1057.00 720.90 968.17 703.52 1160.20 764.90
00005525 00000165 900.33 292.58 476.57 581.37 996.23 509.55 1223.48 580.49 1061.47 721.74 972.19 703.83 1164.31 762.81
