Video ID: 	KknVjvKSrIQ
H: 	1080
W: 	1920
FPS: 	25.0

FRAME INDEX X0 Y0 W H [Landmarks (5 Points)]

00024050 00000000 996.96 180.74 347.84 512.36 1103.38 396.33 1258.57 432.31 1171.77 498.35 1092.22 562.11 1219.50 592.25
00024051 00000001 1017.33 194.63 348.42 501.11 1126.71 404.88 1277.28 442.09 1187.62 505.98 1110.32 568.05 1234.56 600.03
00024052 00000002 1033.14 207.99 354.13 500.34 1142.66 415.73 1296.69 450.12 1209.48 526.71 1132.85 584.96 1250.55 615.37
00024053 00000003 1047.93 209.53 365.48 519.94 1174.87 426.52 1331.38 473.89 1238.08 539.07 1149.79 596.76 1265.56 636.01
00024054 00000004 1062.28 230.94 365.29 518.67 1183.29 440.25 1342.61 488.73 1242.33 560.19 1155.80 604.92 1281.75 646.24
00024055 00000005 1071.74 241.74 363.75 522.58 1189.08 453.20 1344.25 500.13 1246.97 569.63 1157.96 608.47 1292.03 649.32
00024056 DELETE   1085.50 255.67 356.20 508.01 1201.16 451.91 1352.63 494.43 1260.73 566.26 1172.02 613.59 1310.00 650.33
00024057 00000007 1093.71 257.68 353.25 502.58 1205.29 450.95 1357.30 495.54 1262.67 565.01 1176.46 608.32 1318.56 646.93
00024058 00000008 1089.13 251.34 355.36 499.58 1203.79 453.35 1358.89 497.55 1263.87 560.72 1177.96 602.76 1314.07 640.56
00024059 00000009 1089.14 229.69 357.56 499.80 1203.67 430.29 1362.13 474.58 1263.94 538.88 1181.31 587.98 1314.75 625.80
00024060 00000010 1089.10 211.20 352.14 494.99 1203.95 417.84 1357.75 456.83 1266.27 519.99 1182.95 571.27 1314.03 604.82
00024061 00000011 1092.28 192.33 348.37 500.51 1201.31 396.70 1354.30 429.88 1263.98 501.58 1181.27 557.27 1314.90 586.50
00024062 00000012 1088.11 183.20 353.13 502.19 1194.38 379.98 1345.77 414.19 1256.95 484.96 1175.23 545.61 1307.10 575.22
00024063 00000013 1080.86 186.28 351.81 490.18 1184.74 373.32 1336.84 401.55 1252.02 471.53 1172.88 538.80 1299.12 562.86
00024064 00000014 1080.03 176.82 350.53 498.24 1181.30 367.29 1331.32 394.23 1244.02 470.72 1163.73 537.91 1290.80 561.14
00024065 00000015 1068.90 167.27 357.19 507.61 1175.21 365.05 1332.70 399.59 1234.35 471.48 1154.13 536.05 1281.70 565.74
00024066 00000016 1072.28 175.71 340.99 494.75 1164.01 372.72 1318.89 396.93 1225.82 475.52 1155.89 544.68 1279.65 565.66
00024067 00000017 1065.48 169.64 341.39 512.48 1162.63 382.07 1308.29 412.47 1216.98 481.46 1153.34 547.76 1276.93 572.85
00024068 00000018 1064.02 170.00 339.24 497.64 1155.62 392.42 1301.52 413.20 1211.28 490.66 1153.61 565.27 1257.97 582.76
00024069 00000019 1045.76 184.90 352.71 503.26 1143.13 395.77 1298.61 418.58 1208.31 502.05 1142.68 576.17 1254.88 596.90
00024070 00000020 1046.53 210.52 345.44 503.30 1137.75 412.72 1294.23 437.87 1196.14 519.67 1124.92 582.00 1254.85 605.31
00024071 00000021 1037.96 225.77 348.40 493.92 1127.61 427.10 1289.40 454.23 1187.29 537.62 1118.97 593.77 1252.16 618.30
00024072 00000022 1039.29 242.04 340.26 497.54 1122.85 446.59 1276.05 467.28 1182.91 549.72 1118.19 612.95 1245.30 630.28
00024073 00000023 1036.36 254.03 341.74 496.65 1122.44 453.71 1275.59 481.81 1179.71 560.62 1112.71 620.93 1248.87 645.99
00024074 00000024 1035.38 264.86 340.47 491.10 1121.18 457.77 1274.19 485.46 1178.21 570.63 1109.42 622.71 1249.74 647.98
00024075 00000025 1032.79 258.02 339.12 495.51 1114.16 464.33 1267.17 483.82 1174.01 574.21 1107.56 622.36 1246.57 638.67
00024076 DELETE   1032.62 264.68 342.09 483.47 1119.81 455.94 1273.03 482.49 1178.89 561.96 1105.86 611.65 1250.67 635.87
00024077 00000027 1028.93 246.80 341.19 492.83 1116.86 450.25 1269.73 470.53 1178.23 553.91 1108.27 602.78 1247.91 619.06
00024078 00000028 1025.47 236.09 347.91 492.99 1119.30 431.27 1279.32 463.91 1176.60 540.95 1104.87 586.33 1247.25 614.44
00024079 00000029 1028.73 220.01 344.50 490.42 1126.65 414.21 1282.23 444.93 1186.69 521.44 1109.57 568.09 1253.15 595.93
00024080 00000030 1029.86 201.79 344.79 492.32 1130.12 396.32 1282.47 424.50 1191.50 506.32 1111.55 554.78 1254.82 581.28
00024081 00000031 1031.10 193.49 342.88 492.89 1129.50 382.47 1280.85 413.93 1189.64 486.04 1109.41 540.49 1255.79 569.30
00024082 00000032 1027.50 191.28 346.45 489.67 1128.03 375.08 1278.98 405.90 1190.40 474.97 1107.21 532.19 1253.33 560.20
00024083 00000033 1022.80 184.70 350.53 491.34 1123.13 371.23 1275.08 400.45 1187.19 471.20 1109.00 534.12 1245.57 559.89
00024084 00000034 1022.59 178.74 347.94 491.41 1120.87 372.69 1273.08 400.83 1186.24 472.78 1109.03 537.63 1242.33 562.03
00024085 00000035 1023.05 174.19 343.37 486.56 1117.13 380.51 1272.77 403.99 1180.16 479.23 1108.84 546.34 1237.33 566.14
00024086 00000036 1021.93 172.62 340.96 485.05 1115.03 388.96 1269.43 413.77 1174.04 488.36 1107.61 552.26 1231.01 573.03
00024087 00000037 1017.87 180.04 340.58 483.00 1109.21 395.96 1263.08 418.74 1168.33 495.17 1106.15 561.77 1223.32 580.61
00024088 00000038 1009.21 182.11 339.94 503.89 1111.45 394.80 1259.77 426.29 1175.79 499.79 1099.80 562.14 1220.20 588.88
00024089 00000039 999.43 180.25 345.23 518.20 1102.46 395.09 1257.01 429.41 1169.55 500.17 1089.72 563.08 1219.27 592.03
00024090 00000040 987.38 186.89 352.10 514.92 1087.96 399.98 1245.48 421.43 1159.09 504.74 1080.18 566.40 1217.07 586.70
00024091 00000041 976.49 192.28 350.58 507.20 1071.63 404.29 1228.82 421.70 1139.73 501.65 1065.69 564.52 1206.33 581.03
00024092 00000042 966.49 199.06 345.35 499.49 1060.58 402.82 1215.07 420.58 1127.30 507.79 1054.63 564.50 1194.14 582.09
00024093 00000043 956.86 203.27 337.66 497.94 1046.57 408.43 1194.95 420.30 1110.32 508.84 1042.08 564.77 1179.65 575.42
00024094 00000044 946.09 210.10 333.78 497.43 1033.02 413.67 1180.30 419.88 1100.55 511.56 1033.02 569.72 1170.74 576.35
00024095 00000045 932.28 209.11 332.58 495.21 1016.28 419.72 1166.00 426.24 1083.40 518.26 1017.65 573.36 1156.56 579.92
00024096 00000046 915.98 217.62 342.21 495.65 1000.50 425.45 1151.00 428.13 1068.74 519.11 1003.23 579.28 1144.81 582.69
00024097 00000047 903.29 224.32 337.37 492.70 986.27 426.04 1139.34 427.48 1055.60 520.06 990.02 580.18 1135.92 582.01
00024098 00000048 890.74 227.69 342.38 500.13 976.32 430.38 1125.01 431.98 1042.72 528.77 983.51 586.39 1125.85 587.27
00024099 00000049 880.24 229.21 344.48 493.63 960.90 431.78 1120.57 440.49 1027.50 533.74 974.89 590.54 1118.73 597.98
00024100 00000050 870.40 221.07 345.66 503.00 953.64 429.22 1111.47 439.81 1020.03 531.02 966.96 589.36 1107.62 598.42
00024101 00000051 863.68 226.16 343.03 500.17 945.29 437.53 1097.20 435.02 1015.13 534.55 957.78 592.96 1103.50 590.65
00024102 00000052 854.05 225.00 335.60 502.95 929.21 443.56 1081.79 433.92 996.46 534.58 948.69 599.63 1093.49 590.21
00024103 00000053 847.39 225.78 342.58 505.89 927.39 440.03 1077.48 432.54 997.87 537.56 943.72 596.11 1090.30 589.19
00024104 00000054 836.65 229.16 345.11 500.32 918.78 442.01 1069.22 431.90 991.15 534.77 936.42 596.86 1081.74 588.26
00024105 00000055 831.96 228.77 342.13 492.55 915.41 438.09 1064.31 426.46 989.01 530.52 937.00 593.56 1075.55 583.84
00024106 00000056 826.03 230.14 343.24 481.36 909.19 438.49 1061.02 425.48 984.57 527.00 933.01 591.64 1069.74 581.48
00024107 00000057 822.25 225.47 345.24 486.19 906.85 436.95 1059.48 424.84 981.94 525.61 929.39 589.88 1067.66 580.45
00024108 00000058 825.67 228.70 344.63 485.47 909.23 435.77 1058.38 425.61 979.91 525.50 929.32 588.87 1068.68 580.69
00024109 00000059 833.83 228.20 345.32 481.82 914.00 429.22 1067.49 420.86 985.66 521.56 933.22 584.07 1074.39 577.32
00024110 00000060 845.30 216.50 348.81 494.49 930.05 424.41 1080.39 427.29 994.36 520.69 939.98 581.34 1075.40 584.78
00024111 00000061 869.55 223.60 348.37 485.55 951.87 420.59 1109.53 430.46 1015.25 521.34 957.97 582.48 1090.09 591.49
00024112 00000062 899.76 221.01 340.37 495.91 977.05 432.33 1133.38 445.98 1038.51 534.15 982.94 603.14 1101.10 615.08
00024113 00000063 920.55 226.75 348.35 514.81 1013.82 438.34 1163.98 468.85 1066.61 553.48 1008.65 616.04 1119.58 641.06
00024114 00000064 957.54 248.47 349.69 499.74 1042.68 442.78 1197.64 477.76 1092.81 573.42 1033.01 624.67 1145.17 655.92
00024115 00000065 981.01 264.30 361.00 500.05 1070.62 466.63 1228.83 500.70 1123.50 596.21 1061.77 648.75 1176.91 678.51
00024116 00000066 1010.40 272.24 361.52 525.02 1110.02 486.81 1264.54 522.12 1159.70 605.79 1088.85 661.84 1204.12 693.62
00024117 00000067 1028.48 296.01 369.08 513.03 1132.18 502.85 1282.07 545.55 1180.65 623.82 1112.68 670.89 1228.34 708.62
00024118 DELETE   1057.82 294.61 372.90 524.50 1166.46 514.99 1325.14 561.45 1216.10 637.09 1142.56 683.31 1258.83 721.89
00024119 00000069 1079.67 311.92 368.91 513.91 1187.62 516.62 1342.06 567.12 1232.94 644.60 1157.50 678.76 1278.80 722.68
00024120 00000070 1104.32 314.57 363.45 513.25 1210.81 510.44 1357.51 572.54 1250.44 637.86 1174.49 671.08 1295.78 724.30
00024121 00000071 1116.68 283.65 376.53 523.25 1231.07 500.58 1390.40 556.40 1284.09 622.80 1200.43 670.54 1315.98 716.30
00024122 00000072 1128.22 271.42 374.65 518.80 1249.82 478.42 1413.20 528.78 1303.83 606.43 1212.37 657.51 1335.30 700.07
00024123 00000073 1138.10 254.02 367.20 512.41 1257.31 462.79 1407.04 507.02 1312.19 582.27 1225.47 636.73 1340.61 674.11
00024124 00000074 1140.88 235.74 372.43 516.23 1259.98 445.42 1416.01 493.08 1310.19 565.20 1225.45 610.41 1345.52 651.27
00024125 00000075 1140.11 209.14 366.91 515.90 1255.59 423.84 1413.34 474.31 1306.33 535.58 1219.85 590.70 1344.11 632.83
00024126 00000076 1131.91 193.87 364.34 509.61 1250.78 404.46 1407.54 455.64 1309.57 508.14 1214.68 571.06 1345.63 613.85
00024127 00000077 1127.58 184.76 362.64 510.75 1236.25 376.16 1393.38 419.59 1292.65 492.18 1212.79 557.19 1340.84 595.28
00024128 00000078 1121.52 185.40 356.33 504.98 1224.49 369.89 1380.09 415.75 1276.14 481.47 1196.21 543.76 1330.31 584.15
00024129 00000079 1109.78 186.07 344.52 495.91 1208.08 372.95 1363.57 414.76 1262.81 477.11 1185.75 541.40 1323.56 578.30
00024130 00000080 1096.89 182.51 346.44 499.03 1194.99 374.66 1346.36 410.35 1250.10 475.47 1171.97 538.62 1308.37 570.36
00024131 00000081 1087.41 183.19 346.05 500.06 1180.24 375.49 1329.59 407.10 1235.16 477.27 1158.29 539.81 1298.03 567.95
00024132 00000082 1073.78 183.65 339.65 500.68 1160.20 379.57 1313.71 400.29 1217.14 477.53 1146.69 549.22 1280.62 567.77
00024133 00000083 1057.19 195.11 347.32 497.85 1149.76 374.49 1304.36 398.66 1207.12 475.50 1135.83 549.09 1271.36 571.76
00024134 00000084 1044.24 194.82 341.94 495.59 1133.74 381.30 1284.82 405.27 1191.00 481.21 1122.57 551.31 1258.49 574.46
00024135 00000085 1034.24 196.37 339.06 494.65 1121.68 384.71 1273.44 407.76 1178.58 484.77 1107.85 552.62 1245.36 574.80
00024136 00000086 1019.80 187.19 339.00 505.91 1106.75 390.87 1256.49 412.04 1166.54 488.78 1097.03 559.03 1231.13 578.97
00024137 00000087 999.87 190.37 341.56 508.04 1086.50 398.21 1235.10 409.27 1144.27 492.51 1085.33 564.34 1215.80 575.29
00024138 00000088 985.30 204.09 349.63 498.69 1068.93 395.83 1223.32 405.97 1127.63 492.73 1068.16 564.16 1206.41 575.38
00024139 00000089 971.63 200.62 336.90 501.24 1052.97 401.01 1201.04 407.27 1112.55 494.24 1055.70 567.72 1186.94 574.49
00024140 00000090 953.85 197.31 347.40 505.05 1038.55 398.67 1196.93 414.24 1103.78 499.39 1040.44 568.32 1178.11 583.39
00024141 00000091 944.06 201.71 340.08 499.45 1022.20 409.74 1173.87 408.39 1086.53 496.58 1033.71 575.12 1164.46 576.01
00024142 00000092 934.74 193.59 338.97 507.09 1013.65 411.52 1160.51 411.63 1075.29 497.40 1022.99 575.42 1148.91 578.62
00024143 00000093 920.89 197.34 343.93 498.57 1002.81 413.16 1153.72 416.08 1065.78 496.86 1011.38 574.60 1138.02 579.96
00024144 00000094 914.74 202.12 341.56 492.07 994.21 412.31 1144.76 413.37 1058.32 496.73 1011.52 579.05 1125.32 582.25
00024145 00000095 910.64 199.19 339.14 488.59 988.66 411.28 1137.85 413.66 1048.82 496.75 1006.40 581.15 1118.48 584.46
00024146 00000096 903.43 200.95 340.19 484.77 980.85 414.04 1132.58 416.43 1042.63 498.17 998.43 579.72 1113.58 583.08
00024147 00000097 899.52 201.68 337.23 485.91 974.25 413.72 1123.87 410.81 1038.67 499.97 995.21 580.17 1109.22 580.49
00024148 00000098 896.07 200.98 337.62 485.56 969.59 412.45 1121.66 409.24 1034.24 496.55 992.32 579.55 1107.57 579.56
00024149 00000099 891.65 198.37 337.85 487.65 966.01 411.41 1115.49 409.34 1028.43 495.15 987.69 579.04 1099.37 579.75
00024150 00000100 886.82 197.13 338.14 483.77 960.22 406.66 1111.77 403.98 1024.00 493.82 982.20 577.04 1098.10 576.69
00024151 00000101 883.96 198.02 337.19 491.51 954.46 405.82 1106.64 401.19 1017.42 491.47 979.27 580.53 1092.84 578.43
00024152 00000102 876.95 192.67 340.80 499.58 952.11 413.58 1102.48 407.55 1014.16 492.42 975.30 586.37 1089.07 583.62
00024153 00000103 872.82 194.99 343.39 493.88 948.95 415.27 1099.37 411.29 1010.11 491.27 970.93 583.44 1084.08 582.50
00024154 00000104 874.83 192.75 337.07 507.42 953.23 411.67 1102.15 416.94 1017.91 488.41 972.64 583.17 1086.84 589.87
00024155 00000105 871.76 193.07 337.86 513.34 950.82 410.72 1099.57 414.46 1014.77 486.81 970.24 585.69 1082.77 591.44
00024156 00000106 869.92 194.87 337.33 509.81 940.96 409.59 1089.79 405.21 997.88 489.34 963.24 588.90 1075.64 587.60
00024157 00000107 872.14 201.60 333.00 498.34 942.20 408.70 1089.71 405.74 998.16 490.11 964.35 590.12 1077.14 589.15
00024158 00000108 870.89 200.39 333.50 504.94 937.96 408.59 1085.15 406.36 991.99 493.66 960.32 589.74 1072.29 589.77
00024159 00000109 868.21 202.67 336.88 501.71 933.61 414.34 1082.18 415.36 985.33 493.74 952.68 590.09 1065.95 592.63
00024160 00000110 864.14 200.29 339.03 501.67 930.89 412.40 1078.72 415.07 982.50 493.85 946.75 587.23 1060.51 591.19
00024161 00000111 860.96 202.02 341.07 494.79 929.17 411.58 1077.89 417.08 978.79 491.85 942.64 584.26 1056.44 590.53
00024162 00000112 860.45 200.72 338.37 493.48 926.69 410.68 1070.72 413.61 974.10 493.07 943.76 582.75 1054.11 587.13
00024163 00000113 859.53 198.51 337.87 494.02 925.32 410.20 1068.80 413.41 970.77 491.54 940.48 580.99 1050.50 585.46
00024164 00000114 860.16 197.91 337.37 493.64 923.69 407.92 1068.01 409.71 967.78 488.81 940.40 580.31 1051.17 583.55
00024165 00000115 861.87 195.21 337.17 495.75 924.92 405.19 1068.72 407.27 968.21 486.45 941.12 577.92 1052.01 581.32
00024166 00000116 863.11 191.50 336.71 497.86 926.22 402.96 1070.19 405.73 970.26 483.43 940.29 574.40 1052.87 578.49
00024167 00000117 864.02 200.15 337.56 488.94 926.58 404.85 1073.47 407.14 974.87 482.57 943.00 573.39 1057.62 577.19
00024168 00000118 864.58 200.46 339.65 486.76 927.02 404.44 1077.53 406.67 978.30 483.75 945.52 574.04 1061.97 577.52
00024169 00000119 866.12 200.94 338.48 487.00 928.62 404.91 1079.19 405.16 982.68 485.03 948.77 576.26 1065.52 578.12
CROP_BBOX: 684 0 1651 981
