Video ID: 	rH5q0OBRDzI
H: 	1080
W: 	1920
FPS: 	24.0

FRAME INDEX X0 Y0 W H [Landmarks (5 Points)]

00003068 00000000 750.68 300.85 392.97 520.04 814.96 495.74 988.12 457.82 900.85 585.37 878.93 699.84 1017.93 665.99
00003069 00000001 756.97 311.88 382.28 507.98 823.01 502.63 986.74 468.06 899.37 585.61 877.70 694.05 1010.26 663.56
00003070 00000002 756.18 311.86 383.20 507.24 822.63 501.93 986.72 467.84 898.91 585.27 877.12 693.11 1009.42 662.96
00003071 00000003 755.64 307.52 382.06 511.18 822.05 500.21 986.37 467.05 897.26 584.95 875.54 691.51 1008.89 661.88
00003072 00000004 754.14 307.43 379.56 513.26 819.73 501.31 984.26 469.25 893.70 586.87 869.76 692.60 1004.78 664.21
00003073 00000005 751.48 304.53 381.96 518.04 816.88 502.66 981.90 469.35 891.52 587.52 867.56 693.86 1003.52 664.70
00003074 00000006 750.62 305.22 382.12 517.91 815.70 503.33 981.22 469.71 889.94 588.59 866.76 694.89 1003.71 665.59
00003075 00000007 750.32 306.93 383.22 518.35 815.52 504.40 981.46 470.44 890.14 589.23 866.84 696.40 1004.22 666.83
00003076 00000008 750.20 305.65 383.58 518.87 815.90 503.51 982.10 469.79 891.28 588.57 867.60 695.50 1004.87 666.08
00003077 00000009 751.50 308.68 383.36 515.05 818.30 500.88 984.11 469.19 892.90 587.22 869.23 693.97 1004.21 666.15
00003078 00000010 753.78 311.49 383.03 510.46 821.86 498.75 987.59 469.69 896.35 586.27 871.61 693.32 1003.91 667.51
00003079 00000011 755.73 305.55 382.99 516.45 822.08 500.25 989.09 471.34 896.07 584.87 869.53 693.06 1004.32 667.31
00003080 00000012 757.78 306.47 381.62 513.97 824.90 498.94 992.35 472.79 897.11 583.15 868.48 692.70 1003.27 669.22
00003081 00000013 763.05 301.58 382.64 516.83 821.04 487.51 1001.32 469.80 899.50 587.01 866.41 697.33 1006.15 681.31
00003082 00000014 775.75 310.49 379.99 516.33 838.37 486.07 1012.68 470.29 905.88 580.72 871.52 693.07 1015.25 679.45
00003083 00000015 775.88 310.94 380.01 516.08 838.34 485.93 1012.63 470.08 905.82 580.56 871.53 693.02 1015.07 679.35
00003084 00000016 793.34 275.52 393.37 540.86 870.92 477.27 1052.35 461.56 947.67 579.27 897.10 679.92 1041.56 666.37
00003085 00000017 798.18 283.46 392.04 527.84 876.27 473.83 1056.93 457.84 954.04 577.76 902.54 676.10 1044.24 662.60
00003086 00000018 794.37 282.20 392.82 527.49 867.12 472.47 1047.07 457.94 939.57 576.00 893.22 672.76 1033.59 660.71
00003087 00000019 789.29 293.70 391.72 512.93 853.51 469.18 1032.47 459.70 918.28 576.30 876.92 672.06 1016.74 664.66
00003088 DELETE   786.45 295.86 386.49 509.54 839.67 471.33 1012.52 463.43 897.02 574.07 862.67 678.64 1000.33 672.05
00003089 00000021 781.36 306.24 384.57 498.65 829.75 480.15 997.99 467.13 884.46 579.50 856.50 686.19 990.50 675.07
00003090 00000022 780.56 313.65 380.65 494.42 828.68 483.44 995.95 469.04 884.82 582.17 857.69 690.30 991.83 677.92
00003091 00000023 781.79 311.62 384.57 499.73 833.12 483.24 1002.09 468.91 890.98 581.54 862.75 690.02 998.46 677.75
00003092 00000024 781.90 309.10 386.49 506.38 834.53 482.64 1005.46 467.70 893.23 581.92 864.98 691.09 1001.65 678.35
00003093 00000025 780.49 309.54 386.89 508.63 832.15 484.22 1000.86 468.68 889.24 582.42 862.51 692.16 997.83 678.90
00003094 00000026 778.87 310.44 384.72 503.28 827.80 485.87 993.68 469.92 882.20 583.98 859.28 693.40 992.67 679.67
00003095 00000027 777.98 313.95 383.64 501.95 824.49 486.62 987.25 471.89 875.30 585.20 855.63 697.13 986.91 684.38
00003096 00000028 776.18 312.95 383.85 509.56 820.47 491.03 981.03 476.24 867.72 591.67 852.55 702.87 984.28 689.88
00003097 00000029 773.66 322.85 383.39 507.89 820.37 492.93 980.84 478.22 869.08 593.36 852.77 703.90 986.65 690.70
00003098 00000030 772.26 319.63 387.54 515.31 821.55 491.42 983.63 476.58 872.53 593.36 857.25 704.18 991.88 691.02
00003099 00000031 769.94 316.59 392.30 525.28 821.75 490.92 986.43 475.60 874.10 592.48 860.03 705.79 998.38 692.22
00003100 00000032 769.68 321.71 392.71 525.47 821.01 490.69 984.58 474.71 872.78 592.01 861.14 707.36 998.41 693.00
00003101 00000033 773.45 321.41 390.60 527.12 822.57 487.22 983.99 473.57 872.54 590.23 861.41 704.15 997.71 691.76
00003102 00000034 774.32 316.81 388.77 537.74 824.60 486.61 986.27 475.35 873.03 591.41 863.24 704.95 1002.27 694.41
00003103 00000035 778.36 323.43 386.19 530.35 827.41 486.08 990.04 475.25 876.47 590.38 863.14 703.96 1003.10 694.07
00003104 00000036 781.26 323.08 387.19 533.02 830.61 484.97 994.19 475.11 881.19 589.93 866.29 702.48 1007.16 693.77
00003105 00000037 785.06 324.75 388.48 534.53 834.53 487.20 996.82 476.37 883.29 590.57 870.56 702.81 1010.87 693.55
00003106 00000038 787.15 325.52 388.19 533.79 836.55 489.08 998.85 476.69 885.65 589.73 872.67 703.38 1012.99 692.91
00003107 00000039 787.16 325.49 388.02 533.72 836.63 489.18 998.89 476.83 885.76 589.66 872.75 703.37 1013.08 692.92
00003108 00000040 791.29 327.12 387.70 538.00 840.38 493.47 1002.69 479.51 888.50 593.30 878.16 707.11 1018.92 695.69
00003109 00000041 792.23 329.62 386.27 535.71 841.77 494.00 1005.03 480.41 891.74 594.61 879.20 707.51 1021.54 696.43
00003110 00000042 794.68 335.40 385.45 529.96 844.63 493.83 1010.73 479.32 898.87 593.95 882.97 707.19 1025.67 695.53
00003111 00000043 796.72 335.08 385.44 529.68 849.33 494.21 1017.52 480.35 905.83 593.76 885.89 704.76 1030.67 693.70
00003112 00000044 798.08 331.97 386.25 531.70 853.09 497.28 1022.91 481.18 912.22 590.88 887.04 703.66 1035.36 690.67
00003113 00000045 800.94 329.80 386.81 534.40 858.73 496.82 1030.66 479.18 920.61 589.76 891.05 703.58 1041.40 689.33
00003114 00000046 804.75 317.74 385.02 550.09 863.62 497.62 1034.29 475.86 926.51 587.11 895.63 704.73 1047.26 687.18
00003115 00000047 806.60 317.12 382.69 550.11 864.77 494.61 1037.04 472.87 928.32 587.58 896.72 704.93 1047.38 687.25
00003116 00000048 801.93 315.58 387.91 545.06 862.42 494.24 1034.79 474.55 925.84 590.17 893.96 702.19 1041.86 686.15
00003117 00000049 798.34 320.69 391.16 537.13 860.69 492.54 1031.91 476.92 923.49 592.11 890.09 698.25 1035.87 685.37
00003118 00000050 794.41 322.30 393.49 533.94 855.46 491.15 1027.22 477.13 916.66 589.85 884.95 697.49 1030.19 685.85
00003119 00000051 791.19 323.06 394.66 531.06 853.30 489.19 1024.57 477.39 914.83 588.67 884.41 696.62 1023.67 687.07
00003120 00000052 790.22 322.14 394.99 532.65 851.79 487.85 1022.73 477.02 913.37 588.05 884.00 698.62 1018.08 690.08
00003121 00000053 791.84 321.56 394.42 536.44 850.54 486.81 1021.77 475.94 910.56 587.18 883.31 702.78 1014.98 694.61
00003122 00000054 792.36 317.27 395.25 544.65 849.76 485.64 1020.83 473.80 909.30 587.16 884.67 708.61 1012.04 699.81
00003123 00000055 791.31 311.72 397.16 552.09 849.38 482.27 1022.22 471.31 909.34 586.32 883.65 708.57 1012.21 700.30
00003124 00000056 787.53 302.29 401.16 556.89 848.83 480.12 1022.55 468.60 909.89 584.49 884.15 704.77 1011.93 695.68
00003125 00000057 787.51 302.70 402.42 551.61 848.00 479.12 1024.29 466.12 910.20 583.03 884.21 701.56 1015.40 691.00
00003126 00000058 787.80 297.87 402.07 555.74 847.39 477.24 1024.39 464.69 909.88 581.80 881.74 700.34 1015.30 690.14
00003127 00000059 787.43 293.72 402.73 558.87 848.11 476.85 1025.87 464.46 910.43 580.69 880.40 696.67 1018.08 686.36
00003128 00000060 786.92 291.41 403.14 560.95 847.97 476.50 1026.95 464.01 910.40 579.54 879.92 694.97 1019.86 684.47
00003129 00000061 786.19 296.30 402.62 555.12 847.56 479.90 1025.26 468.11 907.63 577.93 877.72 693.96 1018.63 684.12
00003130 00000062 784.71 296.02 401.86 552.61 845.93 480.36 1023.90 468.38 905.21 576.37 875.55 694.61 1016.45 684.84
00003131 00000063 784.67 295.99 401.67 552.89 845.97 480.35 1023.75 468.37 905.18 576.29 875.55 694.63 1016.35 684.86
00003132 00000064 779.74 295.39 406.29 552.02 842.49 474.00 1021.99 465.32 901.56 575.22 871.02 692.49 1010.39 685.49
00003133 00000065 778.06 300.95 404.51 546.98 841.29 471.58 1019.33 465.01 899.87 574.92 867.67 692.55 1005.61 687.43
00003134 00000066 775.27 308.78 405.42 542.99 837.45 473.53 1014.76 466.17 897.32 576.71 864.86 695.65 1003.08 689.50
00003135 00000067 773.56 309.83 406.49 544.97 835.31 477.27 1012.43 470.20 894.89 582.10 862.51 699.29 1002.66 693.20
00003136 00000068 773.30 311.59 406.18 542.79 834.01 478.98 1010.89 472.03 894.38 584.67 861.75 701.89 1000.89 695.92
00003137 00000069 773.98 311.13 403.69 543.77 834.22 482.35 1009.37 475.64 893.23 586.72 861.92 703.65 999.90 698.14
00003138 00000070 773.75 312.64 403.81 544.54 834.59 481.67 1008.80 475.86 894.24 587.13 862.68 703.54 999.61 698.71
00003139 00000071 773.78 310.61 405.33 547.37 834.69 480.86 1010.19 474.71 895.36 586.72 863.77 703.79 999.90 698.60
00003140 00000072 778.24 312.96 406.57 553.79 836.13 481.02 1011.98 470.79 895.97 586.30 871.16 709.35 1004.12 701.04
00003141 00000073 780.09 318.47 404.76 550.71 840.02 483.63 1018.81 471.49 906.80 590.35 879.16 713.30 1016.29 703.19
00003142 00000074 784.07 308.55 401.99 558.52 852.66 485.13 1031.48 471.55 925.50 590.03 890.13 712.55 1028.31 701.90
00003143 00000075 793.32 298.42 403.27 560.56 869.79 485.46 1051.61 468.98 948.62 591.67 905.27 707.18 1050.05 693.27
00003144 00000076 797.76 293.81 408.68 563.71 878.58 486.84 1064.50 466.21 966.39 591.00 916.15 706.39 1068.57 688.17
00003145 00000077 799.09 280.95 412.12 577.00 881.71 484.33 1069.47 461.43 972.15 586.92 919.88 703.93 1074.69 683.64
00003146 00000078 799.80 283.27 411.62 577.53 881.38 483.03 1068.80 460.97 970.11 587.06 920.69 706.74 1072.21 687.15
00003147 00000079 797.56 285.68 411.66 580.35 878.46 483.57 1065.83 463.85 964.08 590.71 919.30 714.37 1064.21 696.87
00003148 00000080 796.04 287.04 411.61 582.75 877.03 483.16 1064.80 463.82 961.90 591.66 919.99 716.84 1063.08 699.36
00003149 00000081 794.87 293.83 410.46 576.53 876.07 483.75 1062.75 465.26 961.13 592.81 919.30 717.16 1061.15 700.51
00003150 00000082 795.51 292.56 407.82 576.50 874.76 484.23 1061.63 465.32 958.75 593.49 917.40 716.85 1061.44 699.77
00003151 00000083 793.24 291.52 408.33 576.21 872.10 484.87 1058.61 466.36 955.67 592.17 910.85 712.57 1061.01 696.42
00003152 00000084 793.98 295.08 404.74 566.33 869.88 487.32 1056.93 468.04 955.09 591.91 905.83 707.37 1063.55 690.91
00003153 00000085 792.28 293.72 404.92 567.97 867.46 488.63 1055.53 469.43 952.36 593.73 901.73 706.57 1062.75 690.43
00003154 00000086 792.86 293.94 403.48 571.83 866.02 489.19 1053.09 468.59 950.31 595.20 903.70 710.02 1062.38 692.76
00003155 00000087 792.24 296.53 404.05 571.33 865.01 489.81 1051.41 468.07 949.29 596.51 904.91 711.49 1063.51 693.12
00003156 00000088 792.16 296.39 403.62 574.67 865.45 489.75 1050.65 467.89 948.37 596.25 906.32 712.41 1063.53 693.61
00003157 00000089 791.75 299.00 400.55 572.96 864.21 490.70 1050.01 468.08 947.71 597.47 906.18 714.63 1063.99 695.32
00003158 00000090 791.54 297.37 400.18 576.44 863.24 492.64 1049.40 470.11 946.25 598.53 904.59 715.71 1064.86 696.63
00003159 00000091 792.16 296.59 399.29 578.13 864.32 493.03 1049.91 469.46 946.93 598.50 906.03 715.29 1066.47 695.14
00003160 00000092 793.07 300.31 399.87 576.47 864.65 493.56 1051.44 469.26 947.97 598.70 906.16 716.20 1068.35 695.46
00003161 00000093 794.63 299.61 401.10 579.18 866.69 491.94 1052.89 466.80 949.56 596.98 907.56 715.48 1070.52 693.98
00003162 00000094 795.26 298.31 401.10 582.56 867.11 490.06 1053.89 464.85 949.63 594.87 908.17 716.25 1072.27 694.34
00003163 00000095 795.93 297.28 403.21 581.93 868.51 487.38 1055.61 461.78 951.42 594.17 911.67 715.74 1073.84 693.30
00003164 00000096 792.69 288.72 411.70 584.55 869.07 481.13 1057.77 456.66 953.77 589.50 911.22 707.00 1071.94 684.86
00003165 00000097 793.91 276.70 416.46 585.40 870.20 477.74 1058.33 452.89 954.38 583.65 911.00 698.62 1072.22 675.91
00003166 00000098 795.68 270.16 413.98 585.90 871.87 475.40 1060.04 448.72 956.57 578.94 912.26 695.09 1073.18 670.57
00003167 00000099 798.94 269.67 413.12 583.74 875.77 467.02 1064.98 443.85 959.14 573.97 912.80 690.66 1069.02 669.40
00003168 00000100 797.62 271.08 416.76 584.39 878.25 460.46 1067.65 439.78 961.09 571.58 917.11 691.55 1063.78 672.71
00003169 00000101 797.17 268.74 415.29 586.53 875.90 456.68 1067.03 437.34 957.71 571.58 915.82 692.52 1060.79 675.08
00003170 00000102 796.53 264.17 416.14 588.34 875.82 453.86 1066.45 435.22 956.91 569.53 915.80 692.01 1056.20 675.34
00003171 00000103 794.85 262.68 417.62 584.13 875.65 452.63 1067.34 434.51 957.97 568.84 916.05 690.89 1053.21 674.60
00003172 00000104 793.39 257.55 420.13 585.70 874.55 451.87 1068.31 433.57 958.33 568.57 916.11 688.84 1055.91 672.07
00003173 00000105 792.50 257.54 419.62 582.59 873.68 451.70 1067.24 433.53 957.05 568.14 915.75 686.01 1056.66 669.18
00003174 00000106 792.78 259.42 416.98 579.58 873.08 452.76 1065.51 434.09 955.76 568.39 914.24 685.81 1055.64 668.74
00003175 00000107 793.48 260.46 416.24 576.89 873.64 453.20 1065.87 434.98 955.94 568.01 913.17 684.01 1056.29 667.31
00003176 00000108 794.36 262.09 414.00 575.85 872.72 454.91 1064.39 436.40 954.14 569.02 912.07 685.10 1055.35 668.28
00003177 00000109 794.97 268.69 410.42 569.41 871.84 459.74 1061.45 439.80 952.88 570.06 910.25 685.74 1054.76 667.89
00003178 00000110 794.54 270.17 409.05 568.84 870.09 462.06 1059.02 440.96 951.65 571.35 909.23 687.59 1053.97 668.86
00003179 00000111 793.93 270.35 409.46 571.03 868.37 465.74 1057.08 443.33 950.28 572.01 908.39 689.46 1055.04 669.68
00003180 00000112 793.93 270.88 408.51 569.63 867.44 469.86 1054.70 447.17 948.50 573.76 907.82 690.04 1054.25 669.96
00003181 00000113 793.80 272.54 409.12 568.71 867.76 470.86 1053.70 448.72 947.72 573.36 907.35 689.88 1053.89 670.09
00003182 00000114 794.32 271.19 408.02 568.52 868.20 468.50 1055.49 446.88 948.36 572.62 906.79 689.35 1052.97 670.12
00003183 00000115 794.07 274.15 407.60 565.14 869.14 467.10 1055.64 446.36 948.90 572.08 906.65 688.49 1051.66 669.97
00003184 00000116 793.90 273.88 406.45 566.90 868.15 468.43 1053.62 447.14 947.63 573.44 906.44 689.26 1051.30 670.35
00003185 00000117 793.36 277.79 405.53 564.75 866.64 469.16 1051.38 447.97 945.28 574.79 905.58 690.51 1049.49 671.69
00003186 00000118 792.57 277.18 405.75 565.93 865.38 470.10 1049.48 449.09 943.36 575.44 903.76 690.44 1048.31 671.83
00003187 00000119 793.21 274.67 404.94 569.08 864.87 472.52 1048.02 450.77 941.91 577.29 903.72 691.90 1048.21 672.76
00003188 00000120 792.92 278.49 403.97 565.44 863.63 472.97 1047.64 452.88 939.73 579.06 901.48 692.83 1046.43 675.15
00003189 00000121 794.30 275.91 401.60 567.51 863.93 474.00 1046.90 453.75 938.91 578.97 901.36 692.78 1047.14 675.02
00003190 00000122 794.55 276.05 400.47 566.14 863.95 474.05 1046.48 454.61 938.32 579.58 900.98 692.72 1045.98 675.69
00003191 00000123 796.20 276.60 399.34 567.37 864.45 474.77 1046.85 454.73 938.66 579.56 901.36 693.67 1047.29 676.20
00003192 00000124 796.39 276.51 398.40 567.49 864.53 475.59 1046.37 456.02 938.51 580.25 900.92 694.07 1047.15 677.03
00003193 00000125 795.77 279.50 399.18 567.32 863.98 478.74 1046.08 459.14 938.33 582.07 900.55 696.53 1047.21 679.58
00003194 00000126 795.06 280.63 399.23 565.46 862.91 482.37 1044.89 461.53 937.81 583.93 900.27 698.57 1047.83 680.67
00003195 00000127 795.19 282.01 398.40 563.80 862.45 486.66 1043.38 464.16 937.42 585.38 900.93 699.83 1048.36 680.89
00003196 00000128 796.44 287.78 395.90 560.09 863.80 491.69 1043.89 469.08 937.28 586.50 899.38 700.32 1049.22 681.54
00003197 00000129 796.42 293.64 393.06 553.66 863.86 493.56 1043.25 471.06 936.74 586.41 898.25 700.87 1047.47 682.35
00003198 00000130 798.14 292.89 391.50 552.35 864.41 493.39 1043.15 470.82 937.38 587.81 898.86 701.00 1047.49 682.52
00003199 00000131 798.66 295.07 392.02 550.33 866.03 491.17 1044.49 469.78 938.91 586.54 899.73 699.04 1047.04 681.21
00003200 00000132 797.47 290.41 394.42 552.35 867.86 488.23 1047.38 468.48 943.51 585.87 901.49 695.10 1051.10 677.97
00003201 00000133 799.60 288.27 395.26 550.04 872.40 486.05 1052.26 468.45 949.95 585.02 902.08 689.10 1054.24 673.38
00003202 00000134 803.19 289.77 394.39 545.81 876.93 485.56 1056.04 467.99 955.26 584.40 903.69 685.64 1059.09 670.05
00003203 00000135 806.36 292.18 394.71 542.57 881.40 486.55 1058.09 468.63 958.83 584.40 906.49 683.63 1060.78 667.95
00003204 00000136 807.04 290.99 397.10 542.13 883.97 486.13 1059.50 468.85 961.68 583.33 908.64 681.18 1062.03 666.09
00003205 00000137 808.28 291.73 396.59 539.36 885.37 485.11 1063.03 468.32 963.97 582.48 909.48 680.62 1063.93 666.06
00003206 00000138 808.35 294.19 398.03 536.49 887.64 482.89 1065.49 467.24 967.66 581.52 912.57 679.00 1065.73 665.37
00003207 00000139 809.77 296.27 398.60 531.28 891.41 481.54 1068.49 467.35 971.84 580.47 916.30 677.79 1067.03 665.41
00003208 00000140 810.60 296.29 401.89 530.48 894.04 479.34 1070.42 465.40 974.54 579.22 919.94 675.74 1069.07 663.54
00003209 00000141 812.00 290.83 404.36 536.70 896.21 476.53 1073.38 462.85 976.56 577.21 923.00 675.11 1071.15 662.78
00003210 00000142 814.31 289.15 402.81 535.84 897.80 476.69 1075.41 462.61 978.02 577.24 924.86 674.96 1072.86 662.42
00003211 00000143 814.96 288.67 403.07 538.67 899.92 476.16 1077.52 462.31 980.73 577.65 927.33 674.44 1075.90 662.03
00003212 00000144 817.50 289.53 400.99 538.62 900.54 477.09 1078.88 462.26 982.25 578.62 928.94 675.76 1078.91 662.66
00003213 00000145 816.95 291.74 402.35 536.45 899.10 480.95 1078.64 466.43 981.09 581.85 927.73 679.01 1079.47 666.12
00003214 00000146 817.09 293.15 400.57 535.22 898.68 481.72 1078.41 467.58 980.14 582.10 925.77 681.04 1077.03 668.59
00003215 00000147 817.42 293.96 400.76 534.26 898.57 481.81 1078.54 467.64 979.75 581.80 925.31 681.51 1076.50 669.07
00003216 00000148 819.00 293.30 402.02 538.47 901.61 479.77 1081.57 466.18 983.12 581.14 928.98 679.56 1081.55 667.49
00003217 00000149 820.33 291.78 398.53 535.79 903.48 477.70 1082.56 463.63 985.17 578.66 931.68 677.46 1081.74 665.20
00003218 00000150 820.96 291.47 398.27 536.40 903.71 477.78 1083.32 463.46 985.40 578.49 931.55 677.89 1081.89 665.47
00003219 00000151 818.84 292.01 397.68 534.48 900.30 479.19 1079.27 466.04 981.12 580.03 927.26 679.68 1076.38 668.32
00003220 00000152 817.21 291.36 397.89 534.85 897.89 480.01 1077.44 467.11 978.53 580.02 924.50 680.89 1073.76 669.58
00003221 00000153 818.59 292.65 395.45 533.62 898.46 479.84 1077.02 466.95 978.51 579.58 924.67 681.20 1072.46 669.99
00003222 00000154 816.31 295.70 397.10 530.27 896.54 481.66 1075.48 469.00 976.21 581.56 923.31 683.71 1069.75 672.64
00003223 00000155 817.38 295.73 395.29 528.35 896.22 481.62 1075.31 469.32 975.55 581.42 922.58 683.76 1069.37 673.09
00003224 00000156 817.92 296.80 394.69 527.79 895.66 483.38 1075.54 471.08 974.56 582.14 922.17 685.30 1070.12 674.61
00003225 00000157 817.07 296.36 395.41 529.15 894.98 484.19 1075.36 471.93 973.91 582.53 921.67 686.86 1069.73 676.18
00003226 00000158 818.73 296.41 395.19 529.53 896.56 483.34 1076.23 471.05 975.49 581.66 923.58 685.96 1070.76 675.23
00003227 00000159 820.80 298.69 394.31 527.31 898.40 483.43 1077.50 470.71 976.90 581.43 925.35 685.85 1071.84 675.07
00003228 00000160 820.75 296.91 394.27 529.34 898.80 483.07 1078.10 470.63 977.70 581.89 925.99 685.33 1072.50 674.73
00003229 00000161 821.18 299.39 393.63 527.01 899.30 483.37 1078.51 471.24 978.05 582.09 926.19 685.62 1072.63 675.36
00003230 00000162 821.14 300.23 394.96 526.84 899.34 484.76 1079.29 472.74 978.21 582.37 926.01 687.12 1073.07 676.94
00003231 00000163 821.78 296.90 394.60 530.11 899.98 484.21 1080.03 472.09 978.80 581.77 926.33 686.56 1073.50 676.24
00003232 00000164 822.90 298.14 395.15 530.02 901.16 483.04 1080.61 470.73 979.24 580.76 927.26 685.28 1074.73 674.71
00003233 00000165 823.88 296.66 394.17 530.68 901.98 483.43 1081.62 470.71 980.59 580.52 927.76 685.42 1075.61 674.59
00003234 00000166 824.63 295.01 395.86 536.06 903.81 482.15 1084.49 470.11 982.69 580.11 929.69 685.30 1079.12 674.69
00003235 00000167 824.93 295.60 395.18 535.57 903.41 482.53 1084.74 470.63 982.23 580.58 929.40 686.80 1078.97 676.34
00003236 00000168 825.27 299.01 394.44 535.19 903.82 484.37 1084.35 472.28 982.74 582.29 930.55 689.78 1079.10 679.17
