Video ID: 	DgSQq1aSzDg
H: 	1080
W: 	1920
FPS: 	25.0

FRAME INDEX X0 Y0 W H [Landmarks (5 Points)]

00004361 00000000 589.89 249.12 364.10 560.19 732.25 513.81 892.91 477.17 867.71 577.61 787.46 697.04 919.64 666.02
00004362 00000001 587.95 252.17 362.10 557.55 726.32 514.62 888.54 480.66 859.93 578.44 779.85 696.22 913.23 667.40
00004363 00000002 589.21 252.87 362.74 559.70 728.33 515.14 889.60 481.29 862.56 577.74 780.30 696.01 915.26 667.42
00004364 00000003 594.38 253.09 365.69 565.81 736.82 514.55 897.15 479.49 871.58 577.71 786.47 698.26 922.40 668.56
00004365 DELETE   598.69 254.77 368.36 568.74 743.28 511.77 904.44 475.81 880.37 576.38 791.69 698.52 930.43 668.33
00004366 00000005 602.19 256.59 368.24 572.00 748.44 509.47 909.32 473.88 886.78 575.44 795.21 699.04 936.09 669.33
00004367 00000006 602.72 258.01 369.19 572.64 749.68 510.11 908.67 475.19 887.57 576.77 796.89 700.43 936.11 671.43
00004368 00000007 600.92 259.61 368.71 571.53 747.14 511.05 905.71 477.70 883.31 577.56 792.27 700.47 931.42 672.91
00004369 00000008 599.49 258.35 367.17 574.62 741.28 512.16 901.17 481.28 875.02 579.06 784.73 700.53 926.10 674.77
00004370 00000009 595.93 251.18 367.78 589.86 735.71 511.75 893.76 478.34 874.62 579.05 777.84 703.59 919.12 675.82
00004371 00000010 593.08 253.54 369.05 587.81 732.43 511.97 890.97 481.27 869.79 579.64 774.20 702.95 914.65 677.14
00004372 00000011 593.81 252.88 368.38 589.01 730.39 511.85 890.34 483.67 866.96 580.66 771.11 701.49 913.95 677.49
00004373 00000012 593.55 251.30 369.18 589.26 731.30 511.39 891.57 483.27 867.81 580.73 771.60 701.44 914.49 677.50
00004374 00000013 594.89 252.27 368.94 588.00 733.34 510.79 894.25 481.99 870.53 580.98 772.43 701.42 916.50 677.13
00004375 00000014 598.27 256.95 365.75 581.17 735.88 511.66 899.68 486.75 867.50 581.93 774.34 699.10 923.09 677.83
00004376 00000015 600.41 253.45 366.48 580.15 740.81 511.62 905.14 489.08 872.28 581.88 777.57 697.47 925.87 678.42
00004377 00000016 601.76 253.06 366.80 578.97 746.02 511.25 909.87 487.82 879.68 580.89 782.24 697.47 929.58 677.82
00004378 00000017 603.83 253.40 365.35 576.29 748.73 509.29 911.62 487.57 881.55 579.71 784.88 695.80 929.95 677.73
00004379 00000018 604.73 253.92 365.31 576.45 750.33 508.27 913.54 487.82 883.32 579.04 785.31 694.97 931.26 677.91
00004380 00000019 604.42 253.89 365.39 576.36 749.57 507.69 913.46 487.52 882.51 579.32 783.82 694.67 930.49 677.92
00004381 00000020 603.73 254.72 366.20 576.20 747.97 507.12 911.35 487.33 880.65 578.89 781.95 693.62 928.78 677.23
00004382 00000021 603.55 254.21 366.84 578.30 746.22 506.45 910.93 487.90 878.23 578.76 780.44 694.07 928.27 678.64
00004383 00000022 603.75 253.85 366.01 577.51 745.02 506.13 909.80 488.00 876.34 579.01 779.76 693.85 926.91 678.84
00004384 00000023 603.42 253.86 367.23 579.58 745.32 505.18 909.83 488.23 876.35 578.13 779.31 693.72 926.57 679.66
00004385 00000024 604.59 254.02 367.31 581.47 745.63 505.22 910.75 487.93 876.55 578.18 779.49 694.65 927.52 680.28
00004386 00000025 604.41 253.06 368.64 584.22 747.48 505.42 913.24 488.93 879.19 578.57 780.20 695.64 928.87 681.91
00004387 00000026 604.68 254.17 368.30 584.62 749.42 504.80 914.72 488.73 880.91 579.85 781.43 696.67 929.44 683.21
00004388 00000027 606.00 253.41 368.37 588.65 750.93 505.54 916.22 489.36 882.53 580.44 782.43 698.11 931.26 684.55
00004389 00000028 605.84 256.31 369.12 589.20 751.09 505.94 916.61 489.23 883.61 580.33 782.53 699.53 932.07 685.46
00004390 00000029 605.61 255.07 368.44 592.04 751.49 506.25 917.05 490.34 884.30 580.78 781.19 699.57 931.91 686.19
00004391 00000030 606.03 254.91 368.53 594.29 751.12 507.09 917.20 490.63 884.31 581.44 779.13 699.69 931.73 686.02
00004392 00000031 605.60 255.31 369.38 595.12 748.68 509.03 916.35 492.06 881.60 583.27 775.81 700.26 931.55 686.12
00004393 00000032 604.15 250.47 368.06 605.62 750.19 509.04 910.79 488.57 888.82 585.26 773.99 699.44 927.50 682.84
00004394 00000033 603.67 257.66 367.66 594.67 744.16 513.04 912.81 496.81 875.07 590.34 768.78 702.11 927.23 688.51
00004395 00000034 602.41 256.99 365.04 593.43 743.42 514.55 911.44 499.82 871.58 594.10 767.40 703.52 922.44 690.92
00004396 00000035 601.97 257.13 363.46 588.50 743.36 514.31 909.79 501.11 869.83 594.51 768.34 702.71 919.32 691.42
00004397 00000036 601.71 254.42 363.71 589.42 745.41 512.34 909.62 500.65 871.05 593.75 771.73 701.96 919.23 691.84
00004398 00000037 603.52 254.49 363.06 588.00 748.93 511.86 912.03 500.26 874.77 593.40 775.96 702.59 920.78 692.76
00004399 00000038 604.61 254.46 363.91 588.81 753.08 511.15 914.19 498.90 880.13 593.82 782.46 705.75 922.12 695.52
00004400 00000039 606.20 252.38 365.34 590.51 757.63 510.75 917.49 498.35 885.79 592.76 788.78 707.46 925.54 697.01
00004401 00000040 608.09 252.58 366.00 591.38 762.18 511.19 920.26 501.12 889.17 592.41 791.94 707.74 926.87 699.10
00004402 00000041 609.51 252.60 366.38 585.24 762.64 511.01 923.87 501.79 889.76 595.16 792.38 707.53 927.57 699.84
00004403 00000042 612.13 253.62 364.74 577.95 763.23 509.82 927.64 501.22 888.69 598.88 791.23 706.62 927.53 699.77
00004404 00000043 613.88 256.56 364.48 570.41 764.84 508.41 930.70 500.72 888.94 599.68 791.31 704.65 928.28 698.53
00004405 00000044 615.58 255.79 364.03 570.54 766.76 507.60 931.41 500.24 889.62 598.31 792.43 703.61 928.40 697.91
00004406 00000045 615.59 254.40 364.15 568.19 767.66 507.17 932.38 499.56 890.64 597.67 793.20 701.59 929.07 695.71
00004407 00000046 615.82 254.79 363.86 570.66 768.42 507.30 932.13 499.08 891.96 596.86 794.11 702.07 929.86 695.70
00004408 00000047 616.28 254.62 363.51 571.28 768.64 505.79 932.63 498.29 892.11 595.51 794.42 701.14 930.68 695.25
00004409 00000048 615.64 254.02 363.56 572.93 768.24 505.57 931.41 497.21 891.54 595.44 793.99 701.35 929.39 694.80
00004410 00000049 614.48 253.57 364.08 571.73 768.06 505.90 931.42 497.01 892.41 595.37 793.55 700.76 929.72 693.79
00004411 00000050 614.23 253.78 364.30 570.54 767.64 506.17 931.05 497.01 891.87 595.92 793.11 700.65 929.38 693.47
00004412 00000051 614.17 255.10 364.33 569.96 767.70 506.79 931.50 498.11 892.00 597.12 792.77 701.31 929.44 694.52
00004413 00000052 614.61 256.91 364.12 567.01 767.18 508.46 930.69 498.77 891.42 598.48 792.89 702.09 929.13 694.47
00004414 00000053 615.31 257.52 363.93 564.77 767.13 508.67 930.94 499.65 890.44 599.15 792.54 701.49 928.78 694.47
00004415 00000054 615.84 257.52 363.82 562.79 767.60 508.40 932.18 499.87 891.05 599.49 792.69 700.95 928.81 694.30
00004416 00000055 617.07 258.00 363.00 564.59 769.54 507.58 932.71 500.19 891.83 598.01 794.25 701.24 929.50 695.61
00004417 00000056 616.00 257.27 363.13 559.86 769.07 505.08 925.96 499.60 889.47 596.05 803.61 689.68 925.73 685.58
00004418 DELETE   616.77 256.70 361.18 559.61 770.82 506.41 926.44 499.24 892.83 595.73 808.23 692.70 927.85 687.18
00004419 00000058 620.86 256.58 355.35 545.30 772.29 508.14 927.05 501.78 891.95 593.67 815.50 693.65 927.17 688.46
00004420 DELETE   621.34 256.21 357.15 546.25 773.04 514.44 930.77 504.82 894.19 592.64 817.54 696.08 930.13 688.21
00004421 00000060 623.05 255.44 354.91 541.21 775.14 514.97 931.00 508.21 895.50 591.71 817.96 694.95 928.73 689.36
00004422 DELETE   620.87 250.91 364.19 564.57 778.73 514.45 937.24 512.54 899.23 596.71 811.02 697.57 928.58 695.86
00004423 DELETE   621.33 254.81 366.06 563.78 780.83 517.78 939.14 519.13 899.97 600.97 810.92 699.81 928.32 700.83
00004424 DELETE   624.80 260.10 364.59 562.26 786.83 519.46 937.82 522.42 900.83 607.96 813.35 702.14 926.39 704.42
00004425 00000064 626.90 262.55 362.84 566.56 792.94 521.97 938.28 524.52 904.74 613.46 817.63 708.52 927.01 710.27
00004426 DELETE   630.88 265.71 362.87 569.15 795.66 524.98 942.89 527.89 906.78 619.10 820.56 714.37 931.37 716.38
00004427 00000066 640.46 264.69 361.19 585.57 807.30 523.75 956.01 532.40 920.84 624.34 827.95 711.45 941.07 719.98
00004428 00000067 646.39 268.08 359.31 585.48 809.91 525.28 961.75 533.86 923.83 628.81 831.35 714.81 945.79 723.52
00004429 00000068 648.80 267.39 361.93 592.68 812.26 526.30 964.47 534.17 926.26 629.29 836.45 718.10 950.82 726.15
00004430 00000069 646.46 265.82 362.83 603.59 807.34 522.41 953.15 527.32 920.57 623.63 833.41 724.69 939.61 728.88
00004431 00000070 648.51 269.19 363.37 600.96 810.25 522.91 954.78 529.00 921.91 625.42 828.44 723.84 936.30 729.52
00004432 00000071 647.66 270.59 366.83 614.87 809.26 526.15 956.80 536.29 925.26 629.58 816.97 724.42 939.39 733.40
00004433 00000072 647.71 271.21 368.99 621.03 808.11 530.00 959.40 540.61 927.55 631.25 813.20 726.29 944.44 735.70
00004434 00000073 647.58 273.48 370.52 623.64 809.67 532.41 960.97 544.57 928.00 634.89 811.19 728.19 945.24 738.74
00004435 00000074 650.01 274.52 367.93 617.22 811.58 534.97 963.57 545.13 930.76 637.74 813.87 729.92 946.40 738.90
00004436 00000075 651.44 277.18 367.87 601.11 814.07 535.62 962.93 542.90 928.20 639.76 820.89 728.04 945.15 734.45
00004437 00000076 651.94 276.26 366.59 594.19 811.26 534.06 963.97 540.06 930.97 635.27 820.94 724.12 948.67 729.61
00004438 00000077 648.52 278.25 366.16 583.04 808.02 540.15 969.28 539.36 928.29 637.06 817.32 723.19 956.69 721.77
00004439 00000078 649.76 275.51 363.07 581.48 806.25 534.67 967.60 533.30 926.57 630.13 820.82 720.48 957.67 718.50
00004440 00000079 650.82 262.52 362.12 596.64 808.71 515.43 961.45 520.36 931.10 619.79 827.05 713.74 950.12 718.23
00004441 00000080 649.81 260.19 363.85 600.10 808.79 510.47 961.68 516.11 931.28 613.89 823.99 710.47 948.74 715.86
00004442 00000081 650.92 255.23 364.04 597.96 810.12 505.39 966.23 509.63 937.53 609.99 828.87 707.57 955.98 711.74
00004443 00000082 648.72 258.62 363.77 572.60 806.68 512.42 966.26 510.95 931.06 606.77 833.79 704.58 961.10 702.58
00004444 00000083 649.22 256.43 363.24 573.48 805.87 510.83 966.66 508.71 931.48 604.28 834.48 703.82 962.48 701.31
00004445 00000084 647.83 254.43 365.22 601.53 812.48 500.39 964.74 504.36 939.69 601.44 831.80 704.95 955.09 708.41
00004446 00000085 645.47 255.23 362.90 600.73 811.24 501.89 960.23 505.62 937.10 602.79 832.17 706.95 949.32 710.41
00004447 00000086 642.18 253.91 361.28 585.22 803.23 509.85 956.68 509.03 925.03 604.45 831.07 705.70 954.01 703.76
00004448 00000087 642.20 252.08 361.54 571.48 799.74 509.42 955.95 506.26 923.16 598.34 831.93 697.72 955.88 694.20
00004449 00000088 641.88 250.50 363.40 572.06 797.15 507.16 955.36 503.82 922.02 593.24 831.92 695.76 958.74 692.13
00004450 00000089 640.59 249.73 363.58 572.62 797.97 504.62 953.44 502.75 921.82 591.04 830.50 693.23 955.96 691.02
00004451 00000090 638.78 249.34 363.61 573.69 797.94 504.19 951.64 502.22 921.09 590.88 830.23 692.59 954.75 690.20
00004452 00000091 637.15 249.37 363.27 573.95 795.95 503.79 950.55 502.14 919.73 590.80 827.74 692.09 953.07 689.97
00004453 00000092 637.05 249.07 360.66 574.36 793.59 503.36 949.17 502.28 918.09 591.61 824.60 691.07 951.15 689.36
00004454 00000093 636.33 248.51 359.26 574.71 791.39 502.14 946.90 501.27 916.20 591.61 822.59 689.37 950.35 687.72
00004455 00000094 636.36 248.13 357.90 578.09 791.62 499.80 944.43 499.83 914.66 590.10 820.91 688.28 948.33 687.41
00004456 00000095 636.58 247.85 355.88 580.00 792.08 499.08 941.63 498.08 913.40 588.99 821.92 689.03 947.60 687.27
00004457 00000096 636.10 248.44 354.72 580.96 791.21 499.09 939.95 497.21 912.20 588.75 820.63 689.22 946.39 686.81
00004458 00000097 634.18 249.04 356.36 580.35 790.91 499.53 939.76 496.97 911.77 589.51 820.70 689.88 946.29 686.85
00004459 00000098 635.02 249.77 355.99 576.50 790.46 500.69 940.57 497.56 911.58 590.57 821.14 689.67 947.03 686.20
00004460 00000099 635.13 251.25 356.20 573.80 790.36 501.83 941.55 498.06 911.97 591.66 821.73 690.14 947.44 686.15
00004461 00000100 634.82 251.38 356.99 574.22 790.40 502.47 942.03 499.28 911.89 591.56 821.72 690.38 947.92 686.82
00004462 00000101 634.30 251.57 357.64 574.79 790.70 503.14 942.60 499.92 912.01 592.49 821.03 690.44 947.79 686.80
00004463 00000102 634.75 251.44 357.43 574.68 790.57 503.20 942.61 500.01 911.71 592.46 820.68 690.09 948.01 686.47
00004464 00000103 634.49 252.07 358.32 573.45 790.69 503.33 942.92 500.36 911.61 592.56 820.94 689.94 947.93 686.51
00004465 00000104 634.69 252.34 358.02 572.31 790.37 503.33 943.21 500.30 911.66 592.63 821.10 690.02 947.89 686.58
00004466 00000105 634.92 252.20 357.56 571.71 790.05 504.11 943.76 501.93 911.06 592.61 820.24 689.10 947.95 686.41
00004467 00000106 634.69 252.30 357.84 572.78 789.54 504.49 944.01 503.28 910.50 592.18 818.73 688.82 947.68 686.90
00004468 00000107 632.96 251.60 359.14 576.07 789.46 504.59 943.64 503.03 910.87 592.41 817.23 688.97 947.30 686.72
00004469 00000108 631.30 251.67 359.16 581.93 789.52 504.41 942.20 502.89 911.36 591.81 815.07 689.93 945.81 687.73
00004470 00000109 629.14 251.28 360.58 587.47 789.97 503.05 941.06 502.98 911.84 590.31 814.28 690.62 944.54 689.50
00004471 00000110 630.35 250.87 357.61 586.47 790.43 509.60 943.28 509.20 913.19 591.44 813.17 689.90 945.65 688.43
00004472 DELETE   629.51 248.17 361.51 581.36 790.30 512.72 945.44 511.22 912.42 594.98 813.91 690.02 944.14 687.54
00004473 00000112 629.85 246.34 361.49 576.07 785.33 509.73 942.82 509.74 906.70 595.97 812.74 687.42 944.57 685.99
00004474 00000113 628.05 245.38 364.05 575.41 782.99 503.75 941.00 505.26 903.03 593.37 812.28 686.62 941.03 686.65
00004475 00000114 626.63 244.93 364.38 575.36 780.88 499.76 939.24 502.84 900.38 592.48 810.81 686.21 938.67 687.46
00004476 00000115 625.69 243.53 363.20 583.31 780.57 497.18 936.36 500.80 898.50 592.74 807.65 687.47 935.19 689.21
00004477 00000116 624.36 242.69 364.62 590.46 779.78 496.53 934.84 502.56 896.27 593.72 802.69 687.88 932.57 691.38
00004478 00000117 623.40 242.85 365.86 592.95 779.38 496.43 935.71 503.70 896.71 594.19 800.61 688.27 933.12 692.67
00004479 00000118 623.54 243.39 366.77 592.21 780.48 496.88 937.41 504.89 897.89 594.30 800.22 687.81 933.40 692.85
00004480 00000119 624.94 243.23 366.09 592.12 782.05 498.18 938.53 504.49 899.49 594.77 801.94 688.71 935.22 692.45
00004481 00000120 625.25 244.24 366.30 590.76 782.49 498.63 939.12 504.51 900.33 595.11 802.55 688.82 936.18 692.25
00004482 00000121 625.24 244.15 366.40 589.09 782.91 498.54 939.46 504.64 900.71 595.30 803.00 688.34 936.08 691.98
00004483 00000122 625.31 244.04 366.38 588.30 783.03 498.86 939.63 504.63 900.98 595.51 803.07 688.20 936.14 691.58
00004484 00000123 625.35 244.35 366.06 586.69 782.95 498.99 939.49 504.53 900.97 595.04 803.80 687.72 936.40 690.93
00004485 00000124 626.57 244.64 364.94 583.20 782.36 499.21 939.36 504.89 899.99 594.97 804.21 686.65 935.96 690.03
00004486 00000125 626.75 243.16 364.24 581.03 779.96 499.60 938.59 505.94 897.74 593.74 803.98 684.99 935.56 688.93
00004487 00000126 626.02 245.65 364.28 579.55 780.22 500.28 937.18 506.35 896.67 594.31 803.59 685.34 933.66 689.20
00004488 00000127 625.34 245.33 363.96 584.23 780.70 499.43 936.14 506.23 896.42 595.40 802.62 687.53 931.47 692.05
00004489 00000128 624.32 244.87 365.64 592.38 779.90 500.84 933.71 507.64 893.61 599.02 799.72 691.20 928.01 695.61
00004490 00000129 623.38 247.06 366.67 595.01 778.77 502.78 931.96 509.95 890.58 602.36 797.21 695.10 923.90 700.23
00004491 00000130 622.65 248.85 368.20 600.12 777.38 506.85 931.11 513.89 889.63 606.12 796.27 699.91 923.23 704.93
00004492 00000131 623.48 253.04 367.84 604.67 777.62 510.03 933.21 517.61 891.42 610.28 795.98 707.31 923.44 712.83
00004493 00000132 623.77 257.22 368.17 603.49 776.94 513.32 935.09 520.35 891.22 615.01 796.62 710.98 925.42 716.09
00004494 00000133 624.15 260.15 368.56 599.80 776.35 515.26 936.49 523.26 890.41 616.48 795.03 711.35 925.32 717.43
00004495 00000134 624.52 260.74 368.66 598.63 776.39 516.68 937.07 525.28 889.60 618.19 795.08 711.73 925.10 718.25
00004496 00000135 624.36 260.71 369.56 598.74 776.56 516.54 937.08 525.60 889.51 618.62 795.17 711.83 924.89 718.64
00004497 00000136 625.11 260.36 369.44 597.96 777.17 516.15 937.86 526.00 889.62 618.86 795.51 711.76 925.08 719.21
00004498 00000137 625.39 261.83 369.88 597.66 777.90 516.95 937.90 526.71 889.57 619.37 795.53 712.15 925.24 719.50
00004499 00000138 625.75 261.97 370.31 599.80 778.34 517.61 939.84 527.28 890.22 620.22 794.94 712.35 926.45 719.64
00004500 00000139 625.66 263.77 370.88 600.79 779.39 519.18 941.05 527.96 891.86 621.31 794.87 713.25 927.03 719.86
00004501 00000140 627.48 263.95 369.98 603.22 780.62 520.97 941.77 529.92 892.88 621.74 795.27 714.50 928.46 721.18
00004502 00000141 633.06 260.30 368.21 612.30 790.34 529.83 951.04 543.95 901.09 626.34 798.07 715.00 929.59 728.82
00004503 00000142 636.38 262.84 364.85 604.41 790.70 537.85 953.95 548.69 903.78 630.11 796.98 716.38 933.88 727.42
00004504 00000143 639.59 263.92 365.09 600.93 791.60 538.17 957.07 548.45 905.24 632.57 796.78 716.10 935.98 726.64
00004505 00000144 640.29 269.92 366.89 594.59 795.42 535.94 957.03 547.46 907.45 634.40 802.00 717.34 934.89 728.88
00004506 00000145 641.05 269.76 367.53 596.97 796.85 533.22 958.95 545.48 908.66 635.93 805.91 718.92 936.56 731.10
00004507 DELETE   637.35 275.99 371.86 607.87 795.46 525.14 945.19 537.90 905.48 634.18 810.88 729.76 924.47 739.83
00004508 00000147 640.35 275.58 367.70 604.84 796.35 521.96 945.69 533.16 905.60 632.16 815.30 728.16 925.38 736.66
00004509 00000148 643.61 275.00 367.44 599.20 799.27 519.30 948.21 527.54 908.61 628.16 821.11 724.22 930.61 730.52
00004510 DELETE   649.37 270.28 360.65 596.05 801.57 513.37 948.58 521.25 911.25 622.42 827.81 719.29 934.60 725.39
00004511 00000150 650.20 269.34 363.63 591.08 801.13 505.88 953.66 516.02 914.42 614.01 825.02 711.39 941.24 719.53
00004512 DELETE   650.96 272.70 364.32 566.11 800.77 498.97 956.74 509.97 914.91 605.79 823.94 699.65 943.30 708.73
00004513 00000152 649.70 271.55 366.21 575.40 802.07 497.91 956.47 508.35 916.06 605.23 825.23 701.82 942.92 710.15
00004514 00000153 650.51 271.63 366.13 597.92 805.96 501.77 955.22 512.45 918.36 610.58 824.09 712.88 939.98 721.99
00004515 00000154 649.89 270.99 366.07 596.86 803.05 501.95 956.33 512.84 918.75 610.83 819.48 710.73 941.78 719.98
00004516 00000155 649.40 271.15 364.14 582.40 799.92 496.47 955.83 504.92 917.39 603.62 818.90 703.94 942.37 711.20
00004517 00000156 649.61 269.11 362.85 571.26 798.99 493.39 956.77 501.33 918.29 600.66 820.20 697.84 946.35 704.55
00004518 00000157 645.93 271.97 360.64 558.37 793.18 501.86 958.67 505.59 915.80 599.10 820.16 695.40 954.15 698.24
00004519 00000158 644.11 265.27 362.04 563.92 795.11 498.34 956.89 502.00 916.06 597.40 822.52 694.15 952.53 696.58
00004520 00000159 642.12 263.50 361.48 564.38 794.35 496.73 955.81 498.72 915.38 595.29 824.49 694.88 951.25 695.61
00004521 00000160 640.93 260.34 360.77 564.70 794.17 495.59 954.42 496.11 914.97 594.23 825.74 694.28 950.03 693.61
00004522 00000161 640.27 256.65 360.01 570.45 795.38 495.08 952.80 494.96 914.71 594.05 827.46 695.26 949.29 693.82
00004523 00000162 640.88 258.25 358.21 569.90 797.09 494.15 952.10 494.68 915.00 592.59 828.17 695.62 947.39 694.81
00004524 00000163 640.49 258.13 358.20 571.71 797.65 494.52 950.75 495.69 915.86 590.68 828.43 695.58 948.12 695.34
00004525 00000164 639.83 256.57 357.51 570.78 796.94 494.90 948.88 493.69 917.33 588.31 829.77 694.71 948.71 692.58
00004526 00000165 639.57 254.91 356.10 571.91 797.81 493.21 948.02 491.25 918.34 585.32 830.20 693.13 948.36 690.43
00004527 00000166 640.38 251.18 353.68 574.10 798.79 492.24 947.71 489.85 919.72 581.91 832.85 692.59 949.52 689.50
00004528 00000167 639.90 249.27 353.57 575.09 799.72 492.12 948.59 489.37 922.23 580.94 834.50 692.53 950.36 689.11
00004529 00000168 640.28 247.97 352.83 572.54 799.47 491.53 948.81 488.95 922.76 579.99 835.39 691.14 949.93 688.04
00004530 00000169 640.08 248.65 353.39 570.56 797.03 492.54 949.00 489.73 922.25 579.41 833.32 689.21 951.08 686.05
00004531 00000170 640.31 250.07 353.16 566.85 795.03 493.04 950.26 490.06 921.97 578.88 833.01 688.84 953.00 685.46
