Video ID: 	BcsdlSsWXqo
H: 	1080
W: 	1920
FPS: 	29.97002997002997

FRAME INDEX X0 Y0 W H [Landmarks (5 Points)]

00013178 00000000 804.86 118.93 374.80 571.86 890.03 371.52 1088.42 357.10 994.74 476.82 927.55 574.34 1087.54 562.52
00013179 00000001 808.78 118.30 373.43 581.23 893.30 369.98 1087.29 357.91 994.68 477.75 929.27 575.88 1086.01 566.31
00013180 00000002 810.97 117.92 375.88 585.54 897.93 368.01 1092.05 356.38 1000.11 476.98 931.62 575.65 1090.63 566.23
00013181 DELETE   819.27 118.19 374.99 582.58 905.01 365.51 1096.75 352.01 1005.08 474.24 938.33 574.31 1094.92 563.58
00013182 00000004 827.99 117.84 374.71 583.83 916.66 366.05 1108.04 352.16 1015.72 472.68 945.80 572.49 1105.72 561.61
00013183 00000005 837.81 115.66 373.20 586.01 926.98 366.18 1119.22 350.82 1028.95 472.99 953.13 571.05 1115.54 559.47
00013184 00000006 843.28 106.16 376.89 603.08 938.11 361.47 1134.01 358.55 1040.31 466.50 957.31 560.50 1127.06 558.33
00013185 00000007 849.01 102.72 377.61 613.72 943.42 362.17 1139.75 359.91 1045.43 467.23 961.64 563.92 1133.19 562.23
00013186 00000008 850.28 103.23 380.15 614.96 944.96 361.62 1141.90 361.31 1046.90 468.10 961.39 565.10 1132.32 565.27
00013187 00000009 855.06 120.66 371.84 595.95 949.54 361.19 1138.49 361.45 1051.63 467.56 965.99 571.66 1122.13 572.87
00013188 00000010 856.21 121.22 370.61 594.70 949.89 360.11 1138.89 360.61 1051.12 466.57 967.14 571.89 1121.32 573.49
00013189 00000011 850.08 103.28 380.65 612.27 947.09 357.61 1141.56 358.60 1047.87 465.34 964.83 565.01 1129.52 566.38
00013190 00000012 847.59 98.84 383.71 611.64 945.84 355.22 1141.19 356.41 1048.39 463.59 967.13 564.04 1129.25 565.28
00013191 00000013 846.98 96.88 384.64 610.82 944.55 352.81 1140.59 354.40 1045.98 461.86 967.26 563.50 1127.79 564.87
00013192 00000014 845.01 96.77 386.39 607.26 942.62 350.31 1140.85 350.66 1045.77 460.36 967.35 562.85 1128.17 563.17
00013193 00000015 843.30 95.28 387.68 606.27 940.82 348.70 1140.40 347.92 1046.42 459.16 966.73 561.82 1128.81 561.08
00013194 00000016 842.62 92.35 388.65 606.44 941.36 347.20 1142.02 346.93 1047.03 458.39 966.40 560.38 1129.44 560.14
00013195 00000017 842.99 90.65 387.83 605.97 941.68 345.01 1142.75 345.14 1047.27 456.72 965.86 559.20 1129.12 559.21
00013196 00000018 844.49 89.73 386.70 606.30 942.64 343.88 1143.70 343.86 1046.98 455.30 966.98 558.36 1130.21 558.21
00013197 00000019 844.36 90.09 386.49 605.76 944.60 342.32 1142.05 342.41 1047.88 453.31 970.09 556.66 1128.90 556.73
00013198 00000020 846.24 85.55 385.28 609.19 947.16 341.89 1144.08 340.89 1051.36 451.93 974.81 557.16 1131.09 556.06
00013199 00000021 845.15 82.95 388.32 613.30 948.50 340.97 1144.85 339.32 1052.98 449.61 976.59 556.23 1132.02 554.51
00013200 00000022 847.00 82.27 388.41 611.82 949.85 341.20 1145.52 338.56 1055.42 448.07 980.13 555.39 1134.11 552.66
00013201 00000023 848.35 82.09 388.05 609.50 950.96 340.56 1145.81 337.26 1057.12 446.34 982.38 553.31 1136.15 549.83
00013202 00000024 849.90 80.57 389.06 607.49 952.23 339.15 1148.53 334.88 1059.98 443.21 985.20 551.38 1140.15 546.91
00013203 00000025 853.65 78.98 385.32 605.92 954.13 337.85 1150.37 332.49 1063.19 440.62 986.56 549.26 1142.72 544.66
00013204 00000026 858.30 76.45 380.97 603.85 956.09 338.65 1152.74 332.59 1067.04 439.36 988.97 548.29 1145.70 543.80
00013205 00000027 860.17 78.80 379.84 597.62 956.77 337.62 1155.89 329.97 1069.91 438.16 989.60 547.93 1147.84 542.48
00013206 00000028 863.96 76.73 378.20 596.45 957.66 336.84 1160.00 328.15 1071.98 438.73 990.71 548.93 1151.14 542.81
00013207 00000029 865.72 75.92 377.50 592.63 959.01 334.55 1163.75 328.06 1073.42 437.76 989.82 547.38 1153.38 542.87
00013208 00000030 865.80 73.63 378.20 594.50 958.78 333.14 1165.67 327.97 1074.29 434.90 987.07 546.22 1155.39 542.84
00013209 00000031 865.75 73.16 378.02 595.33 960.90 330.59 1166.81 326.82 1076.55 433.72 986.23 543.29 1154.55 541.29
00013210 00000032 866.46 72.53 377.29 595.38 962.25 328.58 1167.51 325.97 1077.63 432.08 987.24 541.93 1154.67 540.84
00013211 00000033 866.70 72.58 376.81 595.00 962.23 328.01 1167.00 324.99 1077.44 429.95 987.63 540.38 1155.25 538.91
00013212 00000034 866.72 72.58 376.67 593.43 961.74 327.79 1166.78 324.73 1076.81 429.13 987.15 539.68 1154.94 538.14
00013213 00000035 867.26 72.04 376.06 592.89 960.97 327.25 1167.02 324.04 1076.44 429.22 986.54 539.51 1155.94 537.87
00013214 00000036 867.28 71.42 376.40 592.31 961.36 326.04 1167.09 322.86 1076.63 427.99 987.71 538.52 1155.86 536.77
00013215 00000037 865.97 70.93 377.42 592.60 960.29 325.48 1165.81 321.66 1076.29 426.42 987.58 537.50 1155.34 535.18
00013216 00000038 866.93 70.04 376.53 593.16 960.91 324.69 1165.58 320.29 1076.46 426.28 989.51 537.80 1155.01 535.06
00013217 00000039 867.01 69.78 376.39 593.03 961.10 324.31 1165.42 319.97 1076.55 426.49 989.21 537.76 1154.44 535.01
00013218 00000040 867.80 69.81 375.64 595.01 962.25 324.23 1165.61 319.25 1077.30 426.65 991.25 538.51 1154.72 535.31
00013219 00000041 867.09 71.58 376.84 599.90 966.51 323.03 1161.95 316.99 1079.36 424.13 995.83 536.24 1151.54 532.56
00013220 00000042 869.66 71.61 375.12 602.74 969.61 322.66 1163.12 316.53 1080.26 424.10 997.59 537.42 1150.97 534.01
00013221 00000043 872.27 70.92 373.40 604.56 972.72 321.73 1164.75 316.45 1081.08 424.57 997.72 536.53 1151.41 533.97
00013222 00000044 875.60 70.01 370.59 606.63 973.36 322.67 1165.78 316.53 1080.01 424.58 996.31 535.89 1153.46 532.88
00013223 00000045 876.14 69.51 370.56 608.88 973.26 322.25 1166.50 316.27 1080.18 424.91 995.98 535.25 1156.04 532.11
00013224 00000046 876.52 70.57 370.93 604.57 973.54 323.00 1167.13 316.81 1081.31 426.22 996.57 533.89 1157.31 530.41
00013225 00000047 879.90 74.53 367.95 593.97 975.02 323.67 1170.69 317.90 1083.27 426.20 996.12 531.64 1160.11 529.06
00013226 00000048 879.48 74.91 370.06 585.54 974.84 322.23 1171.99 316.53 1084.37 424.09 996.58 527.44 1162.08 524.52
00013227 00000049 878.71 73.95 372.72 579.57 974.15 321.48 1171.96 315.60 1084.18 422.36 996.71 524.17 1161.91 520.75
00013228 00000050 880.31 71.97 372.06 578.45 973.40 320.85 1171.57 313.71 1083.44 421.73 996.01 522.19 1163.95 517.78
00013229 00000051 884.12 72.71 369.41 574.20 973.57 319.64 1171.36 310.69 1082.15 420.10 996.47 520.58 1164.72 515.05
00013230 00000052 882.13 72.13 372.31 574.17 973.41 317.60 1170.36 307.99 1082.81 417.60 999.51 521.61 1162.62 515.16
00013231 00000053 882.15 71.33 372.19 573.12 971.55 316.91 1168.88 306.49 1081.26 416.87 1001.11 525.30 1159.48 518.12
00013232 00000054 882.38 68.89 370.72 575.34 970.88 315.24 1168.23 303.92 1081.85 417.43 1003.73 527.52 1158.36 519.53
00013233 00000055 884.50 68.34 367.77 574.67 970.83 313.88 1167.92 302.68 1081.08 417.54 1003.24 526.69 1158.12 519.13
00013234 00000056 885.05 67.60 366.38 573.91 970.59 312.46 1167.18 300.86 1080.62 416.50 1003.05 526.00 1157.18 518.28
00013235 00000057 883.94 67.70 367.17 571.76 971.71 310.88 1166.67 299.18 1081.18 414.77 1004.07 524.18 1156.18 516.09
00013236 00000058 884.79 69.11 366.71 569.94 973.25 310.72 1167.15 298.09 1082.36 410.58 1005.09 522.18 1157.72 513.07
00013237 00000059 887.43 70.31 365.72 567.22 976.27 309.29 1167.58 295.62 1083.61 407.01 1007.05 518.53 1159.88 508.28
00013238 00000060 888.26 65.94 365.67 567.91 978.46 307.61 1170.87 294.63 1088.98 405.88 1008.93 515.82 1163.99 505.91
00013239 00000061 889.92 62.72 363.75 566.83 978.91 305.68 1172.85 293.63 1091.09 404.32 1009.70 514.07 1166.42 505.32
00013240 00000062 890.17 59.18 363.86 569.92 977.97 304.02 1173.24 291.77 1090.73 404.41 1009.00 514.17 1166.90 505.30
00013241 00000063 887.97 58.19 364.67 568.67 976.41 303.40 1171.12 290.58 1089.12 403.59 1009.91 515.28 1164.13 505.51
00013242 00000064 883.80 57.45 366.31 568.19 973.24 301.34 1169.78 288.05 1088.42 402.81 1008.90 515.76 1162.96 505.19
00013243 00000065 881.87 56.24 366.94 568.81 970.98 301.58 1167.68 287.19 1086.23 401.56 1007.94 516.60 1160.81 504.94
00013244 00000066 882.78 55.89 365.73 570.51 970.11 301.09 1166.30 286.90 1083.83 401.31 1007.65 516.52 1159.85 504.90
00013245 00000067 883.90 58.20 365.06 576.92 970.95 302.86 1162.42 285.41 1082.28 400.42 1009.82 518.05 1157.24 504.33
00013246 00000068 883.22 60.20 364.26 574.26 968.85 303.49 1162.83 287.05 1080.76 401.73 1006.28 518.93 1156.52 506.26
00013247 00000069 879.91 57.04 366.17 574.30 968.58 301.72 1162.85 288.75 1080.54 402.90 1004.29 517.86 1154.08 507.41
00013248 00000070 881.76 57.25 363.40 571.79 968.79 301.99 1163.79 290.26 1079.50 403.79 1001.24 517.06 1152.44 508.32
00013249 00000071 873.65 57.09 370.14 571.98 968.63 307.45 1163.35 295.74 1077.60 410.20 1004.40 512.69 1157.04 503.54
00013250 00000072 877.55 58.82 365.70 569.70 965.84 302.48 1160.52 292.26 1076.37 404.06 997.05 513.36 1151.06 505.59
00013251 00000073 874.59 58.67 367.57 572.62 962.79 304.65 1158.06 293.71 1073.69 402.54 991.93 512.34 1150.03 504.56
00013252 00000074 868.95 60.96 370.15 573.00 960.34 307.27 1155.33 296.01 1072.48 402.36 989.59 512.04 1149.26 503.92
00013253 00000075 866.18 64.40 370.79 573.56 957.79 309.90 1151.14 298.14 1068.60 403.32 985.57 511.74 1146.18 503.44
00013254 00000076 865.08 66.38 368.63 579.06 957.74 309.43 1146.43 299.67 1065.80 406.16 985.97 513.34 1140.38 506.50
00013255 00000077 863.44 70.89 366.86 577.14 956.92 310.26 1143.73 300.87 1063.85 406.95 984.26 514.48 1136.78 508.02
00013256 00000078 862.24 71.66 366.44 575.66 955.51 310.80 1141.41 301.90 1062.31 407.55 982.87 514.98 1133.75 508.93
00013257 00000079 861.28 69.94 367.02 577.12 954.17 311.81 1140.85 302.05 1062.24 408.72 982.63 517.11 1132.93 510.29
00013258 00000080 861.11 68.83 366.14 575.40 952.19 313.50 1140.65 302.71 1060.97 412.12 981.84 520.61 1131.78 513.12
00013259 00000081 858.56 61.47 371.18 579.30 950.58 317.37 1143.02 307.49 1055.93 419.52 983.65 518.34 1136.80 510.89
00013260 00000082 856.98 60.84 371.25 580.53 949.31 317.43 1141.93 308.26 1054.19 420.00 982.26 518.20 1135.28 511.47
00013261 00000083 859.76 67.89 363.85 579.00 950.39 313.77 1138.42 304.18 1056.84 414.72 979.92 523.57 1127.96 517.21
00013262 00000084 856.05 68.40 367.72 580.83 950.23 315.53 1138.95 306.01 1058.84 413.44 980.49 521.15 1130.90 514.69
00013263 00000085 855.99 70.83 368.11 576.89 951.21 317.65 1137.57 308.79 1059.92 412.65 980.84 520.25 1129.14 514.78
00013264 00000086 854.45 63.42 371.93 580.41 950.50 322.29 1141.39 313.40 1056.92 418.50 979.71 519.26 1131.69 513.40
00013265 00000087 850.34 62.42 373.80 583.69 945.03 319.75 1141.86 311.18 1053.98 422.63 977.56 522.64 1131.11 516.68
00013266 00000088 849.95 64.58 374.03 582.00 941.37 319.19 1139.56 311.21 1047.44 424.82 974.76 523.90 1127.53 518.70
00013267 00000089 850.76 66.93 369.94 578.67 937.74 319.24 1134.84 311.15 1040.17 424.22 971.32 523.11 1123.57 517.83
00013268 00000090 841.89 66.48 376.02 578.95 930.83 318.95 1131.90 312.41 1034.09 423.28 963.63 521.21 1118.72 517.22
00013269 00000091 844.15 71.15 367.39 566.32 928.72 315.34 1127.09 304.21 1028.81 421.77 955.39 526.86 1111.51 519.68
00013270 00000092 840.56 67.29 368.52 566.69 924.55 315.34 1123.40 303.00 1023.73 421.03 953.41 527.18 1108.70 518.67
00013271 00000093 838.48 66.12 370.88 567.64 920.13 317.05 1120.12 304.96 1017.70 422.40 949.50 528.43 1106.31 519.67
00013272 00000094 837.22 68.34 372.63 564.91 918.28 316.60 1118.51 305.22 1014.00 422.53 947.87 528.34 1104.01 519.82
00013273 00000095 834.58 70.24 375.32 565.58 916.30 316.24 1116.32 305.46 1012.50 423.33 946.35 529.62 1101.28 521.60
00013274 00000096 833.39 70.35 374.24 568.36 915.49 317.58 1114.53 306.36 1012.30 426.48 946.15 532.70 1098.41 524.57
00013275 00000097 833.85 72.20 372.89 568.85 914.70 317.08 1113.74 307.53 1009.35 426.69 944.59 534.20 1095.84 527.54
00013276 00000098 835.46 71.31 371.29 566.80 913.59 316.62 1113.50 307.70 1007.24 426.95 942.78 531.12 1096.92 524.45
00013277 00000099 836.19 71.15 372.15 564.46 914.18 315.62 1115.78 308.49 1007.58 428.10 940.60 527.62 1099.37 522.19
00013278 00000100 835.20 70.12 374.50 566.74 914.74 316.29 1116.00 308.67 1008.57 427.98 939.99 526.20 1100.71 520.45
00013279 00000101 835.30 70.10 374.21 568.78 915.92 315.92 1116.79 308.47 1009.96 427.47 940.01 526.53 1100.57 521.17
00013280 00000102 836.11 69.34 371.98 568.98 917.84 316.67 1116.92 310.38 1011.70 427.61 941.11 526.59 1098.65 522.83
00013281 00000103 835.88 69.11 372.65 569.60 917.92 317.15 1117.24 309.86 1011.95 427.40 941.69 527.40 1099.16 522.91
00013282 00000104 836.29 71.17 373.49 577.64 919.48 317.13 1115.28 310.14 1012.54 426.22 943.69 529.63 1097.45 525.31
00013283 00000105 837.43 72.67 373.56 588.19 920.80 317.75 1113.27 309.29 1011.69 424.90 947.02 535.35 1096.42 529.80
00013284 00000106 838.54 74.11 372.08 587.64 919.96 318.93 1113.43 309.76 1010.29 427.36 947.88 539.77 1095.56 533.77
00013285 00000107 838.20 72.56 371.22 583.90 919.53 320.09 1116.11 311.27 1011.68 431.17 946.09 538.02 1098.25 532.66
00013286 00000108 837.35 71.08 373.52 582.95 919.20 319.01 1118.13 311.18 1012.64 432.18 946.05 537.55 1099.79 532.78
00013287 00000109 840.90 74.63 371.84 580.15 921.77 320.12 1120.71 312.23 1015.29 434.47 948.80 539.52 1102.83 534.46
00013288 00000110 842.45 77.49 374.42 582.98 925.52 322.02 1123.54 312.78 1020.13 434.74 953.68 541.46 1107.22 535.63
00013289 00000111 846.93 73.86 373.60 602.00 932.49 320.47 1129.15 317.21 1028.70 430.69 958.44 538.10 1115.87 534.67
00013290 00000112 850.97 72.89 375.60 606.72 937.44 323.11 1131.39 318.28 1031.62 435.06 963.38 539.59 1121.25 534.57
00013291 00000113 853.38 75.62 376.47 599.81 940.90 325.12 1133.99 320.49 1033.45 438.73 968.25 539.27 1123.96 534.60
00013292 00000114 852.99 77.31 379.84 595.18 941.74 328.34 1135.16 323.54 1034.73 442.22 969.05 540.47 1124.00 535.78
00013293 00000115 854.15 80.42 379.68 588.09 943.23 328.77 1136.35 325.54 1034.99 442.33 969.08 540.16 1121.41 536.97
00013294 00000116 856.49 81.67 379.03 586.78 944.50 330.58 1138.05 328.15 1035.75 443.37 970.54 541.34 1122.32 538.89
00013295 00000117 858.15 82.90 379.87 586.83 945.30 332.23 1140.52 330.17 1036.46 445.47 971.15 542.43 1124.80 540.30
00013296 00000118 858.96 82.01 381.34 589.15 947.35 332.55 1143.31 331.48 1039.38 446.00 973.05 543.35 1127.73 542.14
00013297 00000119 862.22 83.91 380.70 588.41 949.29 332.83 1144.78 332.13 1041.61 446.87 976.94 544.69 1130.53 543.70
00013298 00000120 865.61 84.44 380.06 588.72 952.68 332.98 1147.51 332.16 1044.67 446.00 979.88 544.59 1133.87 543.61
00013299 00000121 868.22 83.54 380.03 595.47 955.90 331.75 1150.36 331.53 1047.10 444.79 980.51 544.70 1135.80 544.38
00013300 00000122 872.08 81.87 377.37 612.33 956.60 332.04 1152.69 331.32 1046.14 444.37 976.82 547.78 1137.94 547.42
00013301 00000123 872.11 86.12 374.70 620.13 956.13 333.12 1152.63 332.74 1045.05 447.39 973.07 552.54 1136.75 552.77
00013302 00000124 870.56 87.12 373.01 623.53 954.26 336.29 1149.24 336.33 1041.35 451.42 971.28 554.42 1136.74 555.02
00013303 00000125 867.42 89.70 375.32 615.56 950.92 338.75 1147.25 337.68 1040.54 453.71 970.26 554.19 1136.66 553.89
00013304 00000126 861.98 90.20 380.22 593.68 946.95 339.47 1144.43 335.63 1042.38 452.17 976.54 547.73 1140.90 544.06
00013305 00000127 860.92 88.30 379.52 589.03 945.09 339.44 1144.44 334.22 1042.02 448.93 975.31 546.78 1141.61 542.17
00013306 00000128 860.82 87.18 375.38 585.88 943.42 338.66 1142.61 329.02 1041.84 442.22 976.08 545.49 1141.56 538.11
00013307 00000129 857.94 85.52 376.95 587.24 943.40 335.83 1139.83 324.62 1043.62 436.70 978.27 543.02 1138.23 534.77
00013308 00000130 854.57 86.59 378.77 586.40 941.65 334.13 1139.35 319.48 1046.10 430.69 979.09 541.03 1140.77 530.31
00013309 00000131 853.45 87.23 378.29 580.72 942.01 332.19 1137.84 316.89 1046.87 425.32 979.42 536.95 1138.87 525.70
00013310 00000132 852.79 86.20 377.48 581.72 944.37 331.60 1141.54 318.87 1051.57 421.59 978.78 533.88 1140.92 524.87
00013311 DELETE   855.75 84.52 375.80 586.95 946.37 335.37 1138.77 320.92 1052.16 421.49 981.44 533.90 1144.47 523.21
00013312 00000134 857.33 84.36 373.58 588.98 946.90 336.88 1139.54 321.76 1053.60 422.43 981.47 534.87 1145.67 523.50
00013313 00000135 856.80 85.96 371.87 583.74 946.37 335.93 1139.50 320.90 1053.67 425.39 982.11 534.50 1145.72 523.28
00013314 00000136 854.54 88.77 372.41 577.86 943.31 338.22 1135.28 322.07 1050.21 431.95 980.65 534.94 1143.76 522.43
00013315 00000137 850.31 90.29 372.09 573.85 938.31 345.44 1130.68 326.58 1048.06 439.29 978.61 539.45 1141.50 525.11
00013316 00000138 846.50 93.43 374.59 569.47 935.10 345.64 1130.26 328.14 1045.16 438.09 975.22 538.90 1139.24 525.32
00013317 00000139 845.07 94.32 374.28 568.55 933.11 346.19 1128.66 331.30 1039.06 437.43 968.93 537.21 1133.48 525.91
00013318 00000140 843.95 95.53 375.81 565.94 929.30 344.15 1127.95 327.34 1031.52 442.70 962.86 540.50 1132.01 527.29
00013319 00000141 845.50 98.40 373.91 561.73 928.10 345.27 1127.28 328.22 1029.77 444.58 961.70 541.10 1131.42 527.61
00013320 00000142 844.59 96.96 373.09 563.57 929.75 347.02 1128.72 334.28 1034.38 439.59 965.26 540.56 1128.13 530.87
00013321 00000143 845.23 97.31 374.45 566.94 930.89 350.00 1129.69 337.81 1035.59 445.96 967.11 545.12 1128.73 535.58
00013322 00000144 842.40 99.47 379.72 568.03 931.60 355.74 1128.87 347.21 1034.93 453.02 966.78 549.67 1124.04 542.58
00013323 00000145 844.53 98.84 378.58 575.12 933.36 358.62 1129.39 351.82 1033.29 454.81 964.45 552.98 1121.04 547.80
00013324 00000146 845.06 102.42 378.70 577.12 931.45 361.10 1128.01 353.81 1028.20 457.83 960.83 557.59 1118.94 551.76
00013325 DELETE   845.26 103.05 377.80 580.57 930.67 358.99 1133.26 354.90 1027.52 460.08 956.23 559.69 1120.16 556.42
00013326 00000148 847.28 104.43 377.35 580.87 934.80 358.88 1135.20 355.17 1031.04 462.88 960.92 561.04 1122.11 558.00
00013327 00000149 849.79 109.90 375.97 575.79 938.34 359.61 1138.55 353.12 1039.02 463.10 970.57 563.63 1129.61 558.32
00013328 00000150 852.71 110.23 375.26 575.86 943.23 359.36 1140.88 352.03 1044.20 461.95 977.27 563.59 1135.23 557.55
00013329 00000151 855.73 109.84 373.14 570.81 947.60 358.37 1143.40 350.26 1051.63 460.16 983.39 560.76 1141.23 553.86
00013330 00000152 855.67 108.60 374.08 568.19 949.92 357.26 1143.33 349.01 1055.01 457.88 986.80 557.91 1141.58 550.86
00013331 00000153 855.25 107.52 374.00 568.00 949.55 355.45 1143.85 347.71 1055.66 456.94 986.27 556.71 1141.06 550.25
00013332 00000154 854.60 105.09 373.21 568.78 949.06 354.96 1142.98 346.69 1055.39 454.76 986.74 556.32 1140.29 549.43
00013333 00000155 854.65 102.77 372.08 572.64 948.20 353.35 1140.75 346.42 1053.04 452.54 985.71 554.68 1138.06 548.79
00013334 00000156 853.85 102.13 371.59 574.55 947.78 351.21 1137.71 344.56 1050.17 451.61 983.11 551.97 1133.42 546.47
00013335 00000157 854.43 100.47 369.31 577.36 949.03 348.91 1136.12 343.21 1048.00 446.55 981.95 549.36 1130.25 544.88
00013336 00000158 853.54 99.80 368.05 579.37 948.59 346.24 1135.17 340.21 1046.81 440.89 979.61 548.11 1126.42 543.71
00013337 00000159 849.71 98.31 369.59 586.63 944.08 343.25 1131.28 336.57 1041.84 437.61 975.64 548.12 1124.25 543.03
00013338 00000160 845.27 94.52 367.63 596.34 939.78 339.35 1123.12 334.47 1036.46 433.61 969.16 545.51 1119.02 541.92
00013339 00000161 840.70 93.80 368.40 602.33 935.01 337.50 1118.78 333.07 1031.14 430.75 961.81 547.15 1112.53 544.19
00013340 00000162 845.04 108.95 363.50 595.91 931.34 344.67 1115.89 329.54 1029.66 433.91 960.39 559.14 1113.16 548.15
00013341 00000163 843.91 109.33 358.70 597.63 924.88 343.31 1110.95 330.27 1020.41 434.47 950.29 559.32 1106.09 550.37
00013342 00000164 835.06 106.14 361.79 595.59 916.46 341.92 1104.86 331.98 1009.34 440.19 938.80 555.36 1098.54 549.08
00013343 DELETE   828.74 103.96 367.49 586.65 909.74 345.79 1101.90 335.00 1003.79 447.32 935.74 553.28 1096.98 546.10
00013344 00000166 816.61 100.22 372.37 573.41 898.95 343.54 1096.42 335.39 995.85 446.60 927.69 546.80 1090.73 541.59
00013345 00000167 810.57 92.91 373.29 575.02 891.82 338.14 1089.85 331.96 985.94 439.82 921.26 544.38 1082.38 540.33
