Video ID: 	A-DPpkWziXs
H: 	1080
W: 	1920
FPS: 	23.976023976023978

FRAME INDEX X0 Y0 W H [Landmarks (5 Points)]

00026165 00000000 654.96 206.05 528.67 685.17 802.06 426.07 1047.22 455.12 911.59 605.33 803.80 713.56 970.78 738.68
00026166 00000001 655.77 183.87 521.66 690.57 806.45 418.63 1051.19 447.82 914.44 586.45 802.07 704.46 975.35 727.79
00026167 DELETE   658.16 154.56 518.53 698.60 808.49 409.11 1052.69 440.43 920.10 576.12 805.88 686.17 986.10 712.99
00026168 DELETE   658.59 146.16 518.20 703.00 808.31 395.02 1053.64 423.44 924.24 561.20 811.09 676.37 993.19 699.92
00026169 DELETE   657.64 135.52 514.87 704.66 809.03 386.00 1055.23 406.87 932.47 545.81 818.40 671.63 1001.53 688.76
00026170 00000005 657.22 128.97 517.89 707.09 809.72 374.68 1055.64 388.30 938.26 531.66 826.36 662.16 1008.45 672.76
00026171 00000006 658.86 131.66 512.48 696.55 808.80 370.55 1055.19 378.77 942.69 526.16 832.23 659.91 1011.27 665.92
00026172 00000007 657.04 134.35 509.58 695.98 807.15 371.89 1052.45 376.48 943.01 529.72 835.48 667.50 1010.05 670.59
00026173 00000008 656.14 138.99 507.99 692.80 805.58 378.31 1052.06 383.55 943.02 539.14 834.87 672.75 1010.30 676.69
00026174 00000009 651.79 142.26 508.91 694.78 803.19 387.11 1048.99 392.73 940.28 546.06 831.61 674.92 1011.53 679.39
00026175 00000010 648.38 146.77 509.78 689.95 799.32 390.16 1044.90 395.33 937.20 547.57 830.58 673.81 1010.90 677.85
00026176 00000011 645.81 146.41 512.44 692.42 798.83 388.88 1043.93 394.86 936.32 545.71 827.73 672.99 1009.72 677.73
00026177 00000012 639.28 136.93 519.34 702.08 796.47 380.83 1042.02 390.89 933.67 535.89 822.57 665.94 1004.44 671.92
00026178 00000013 635.21 135.99 519.10 696.78 792.10 373.44 1038.89 380.36 929.22 528.23 821.20 657.08 1001.95 660.21
00026179 00000014 629.67 129.25 514.81 699.00 794.02 367.22 1029.96 369.57 926.86 519.88 824.99 651.48 998.74 652.41
00026180 00000015 624.67 122.11 511.29 703.88 787.66 367.69 1021.95 366.47 922.92 517.26 822.22 650.10 996.19 648.24
00026181 00000016 618.37 123.49 512.62 700.99 780.09 370.83 1015.22 366.01 917.81 520.02 816.58 651.51 994.33 646.70
00026182 00000017 615.45 130.85 511.53 693.54 772.94 376.11 1010.16 369.11 912.16 524.85 812.87 653.69 991.38 647.47
00026183 00000018 612.16 134.06 512.81 693.06 770.53 376.56 1004.57 369.70 907.64 525.75 813.13 655.37 984.86 649.49
00026184 00000019 611.23 125.11 511.37 701.67 769.26 372.90 1002.25 363.90 907.64 520.75 813.57 653.57 986.03 645.66
00026185 00000020 610.18 117.27 511.19 704.63 766.78 368.57 1001.25 358.66 906.28 512.60 813.58 649.56 985.51 640.77
00026186 00000021 611.14 114.19 508.44 702.27 766.67 364.43 1001.82 355.75 905.31 504.62 811.30 644.81 983.86 636.81
00026187 00000022 609.96 108.99 505.14 706.40 763.80 361.72 998.46 353.59 901.46 503.29 808.19 642.58 979.60 634.75
00026188 00000023 610.48 110.63 506.92 699.11 762.12 361.13 997.95 353.04 899.75 507.56 808.22 641.06 979.30 635.03
00026189 00000024 608.12 112.11 509.63 706.14 759.71 363.81 997.23 354.74 898.85 513.29 805.69 644.51 982.02 637.42
00026190 00000025 601.16 110.91 510.86 713.04 753.74 365.74 991.65 358.75 891.24 519.29 795.57 646.74 973.28 640.26
00026191 00000026 600.63 125.47 507.47 694.27 749.06 375.78 991.99 362.70 894.59 516.75 794.47 653.39 977.67 640.57
00026192 00000027 594.56 120.22 510.69 701.37 744.14 373.61 989.53 362.59 890.61 514.14 788.39 652.04 974.87 640.93
00026193 00000028 586.07 119.09 513.44 704.59 740.03 384.54 981.10 372.55 886.56 509.95 782.49 650.90 973.90 639.06
00026194 00000029 582.53 122.26 512.32 698.31 735.74 382.37 976.23 370.16 880.73 506.45 779.78 647.79 968.78 635.82
00026195 00000030 578.05 118.30 514.63 701.76 730.58 378.92 973.71 365.28 878.94 504.56 780.03 646.31 969.43 632.79
00026196 00000031 576.91 122.44 514.48 701.34 727.82 374.12 970.88 360.02 874.26 505.09 777.24 648.65 964.76 634.91
00026197 00000032 575.05 125.08 515.86 702.96 725.66 375.04 970.39 359.87 873.41 509.55 775.51 654.67 963.19 640.18
00026198 00000033 574.52 123.45 516.31 704.83 723.89 375.26 969.94 360.24 872.06 512.18 774.22 655.37 962.80 641.06
00026199 00000034 574.19 123.68 515.80 704.56 722.25 375.66 967.96 360.70 870.46 513.64 772.84 657.79 960.00 643.62
00026200 00000035 571.78 125.41 518.71 707.35 721.90 377.86 965.34 362.39 868.32 515.27 772.35 659.57 958.27 645.13
00026201 00000036 573.97 126.52 515.21 706.66 721.17 380.17 964.45 362.79 868.87 514.34 773.88 663.92 957.24 648.07
00026202 00000037 573.52 126.81 515.41 707.22 721.04 381.12 963.68 363.57 867.90 513.95 773.66 664.30 957.01 648.35
00026203 00000038 572.38 128.37 516.44 705.89 720.20 381.11 961.95 363.79 865.29 513.18 772.64 663.65 955.35 647.92
00026204 00000039 571.57 127.99 515.92 708.05 719.60 380.93 960.23 363.84 863.16 513.01 771.46 664.38 952.66 648.91
00026205 00000040 571.68 128.38 513.56 712.82 718.35 381.59 957.42 364.18 860.89 512.34 768.64 667.83 948.75 652.43
00026206 00000041 570.10 128.67 514.10 715.83 717.18 381.90 956.38 364.43 859.48 515.19 768.07 670.86 947.27 655.48
00026207 00000042 567.24 127.95 517.57 714.12 715.96 381.41 955.59 364.33 857.20 514.45 765.65 666.13 948.94 650.91
00026208 00000043 565.52 127.10 517.08 708.74 714.41 380.26 954.12 362.91 855.68 513.63 764.21 662.09 948.42 646.60
00026209 00000044 562.19 128.28 518.97 703.72 711.40 378.14 951.21 361.39 852.51 510.84 762.72 658.85 945.68 643.64
00026210 00000045 556.11 125.16 522.78 708.78 706.24 378.57 946.44 360.60 847.88 508.37 758.12 658.05 942.92 641.94
00026211 00000046 551.74 123.63 522.39 709.84 701.55 378.28 941.84 359.91 844.00 507.05 753.96 656.23 941.18 639.94
00026212 00000047 549.03 121.78 521.52 711.38 697.88 379.01 937.79 360.21 840.05 506.90 750.51 655.82 939.07 639.27
00026213 00000048 547.53 122.24 520.68 711.88 695.96 380.10 934.98 360.76 837.45 507.33 748.90 656.59 936.83 639.68
00026214 00000049 546.12 122.89 521.74 712.19 695.35 382.01 933.87 362.12 837.08 509.26 749.03 657.91 937.01 640.59
00026215 00000050 545.79 124.94 522.21 708.86 695.33 382.21 934.37 363.09 836.93 511.91 749.27 658.16 936.01 641.58
00026216 00000051 546.74 126.42 522.92 707.44 696.56 383.32 936.17 364.31 838.92 512.50 750.32 658.72 938.38 642.09
00026217 00000052 548.29 129.13 522.88 704.47 699.11 383.60 938.62 366.11 840.92 514.27 751.79 658.70 939.28 643.35
00026218 00000053 550.65 130.60 523.21 703.27 701.59 385.05 940.44 367.83 843.38 516.60 754.25 660.76 939.88 645.61
00026219 00000054 553.50 133.19 522.96 702.22 702.56 386.48 943.16 369.14 845.00 518.24 755.95 664.29 940.60 649.01
00026220 00000055 553.79 133.91 523.79 705.73 704.45 388.22 943.96 371.29 845.43 520.23 756.64 667.74 938.88 652.90
00026221 00000056 555.06 137.49 522.32 703.76 705.23 387.85 944.48 371.48 844.98 522.37 756.58 667.69 938.36 653.35
00026222 00000057 554.89 138.68 523.28 701.73 704.48 388.19 945.14 371.58 845.01 523.71 756.72 667.77 939.38 653.26
00026223 00000058 554.89 137.23 523.67 702.36 704.33 387.42 945.23 369.52 845.87 523.33 758.13 667.69 941.56 651.96
00026224 00000059 554.25 136.31 523.26 698.44 702.57 385.40 944.36 368.61 843.83 522.77 757.56 665.41 939.43 650.53
00026225 00000060 553.24 133.88 522.39 698.34 700.85 383.65 943.36 367.73 841.85 521.18 754.68 661.81 939.51 647.62
00026226 00000061 551.61 131.06 521.58 699.45 699.92 382.63 941.91 366.93 841.02 518.49 752.60 659.76 939.12 645.79
00026227 00000062 548.83 128.87 522.32 700.49 698.09 382.28 939.96 365.54 839.24 517.31 751.78 658.66 937.53 643.79
00026228 00000063 546.38 127.71 519.93 700.19 695.10 383.21 936.09 366.40 835.44 517.45 748.93 657.57 933.99 642.49
00026229 00000064 542.17 127.59 521.18 701.53 689.51 383.57 930.69 366.41 828.21 517.76 744.35 657.57 928.50 642.25
00026230 00000065 539.34 122.79 519.62 706.97 683.82 383.97 925.27 366.60 821.38 518.23 737.47 658.25 922.78 642.61
00026231 00000066 535.65 120.83 518.87 711.64 678.50 383.65 918.56 366.66 813.60 518.34 729.63 658.63 914.65 643.64
00026232 00000067 531.94 121.16 517.34 711.69 673.16 385.07 913.06 368.39 808.70 519.78 722.39 658.78 909.67 644.35
00026233 00000068 528.17 122.02 518.55 710.03 668.78 384.49 908.99 367.17 804.50 518.79 719.20 659.48 904.59 644.56
00026234 00000069 523.80 121.44 520.27 711.81 665.47 383.29 906.63 365.91 801.49 517.45 715.10 660.28 900.40 645.25
00026235 00000070 521.30 123.60 519.24 710.41 664.77 382.58 903.10 364.66 800.56 515.52 716.11 664.13 892.99 649.05
00026236 00000071 519.40 121.10 520.55 722.02 663.77 382.37 901.16 362.48 800.82 514.41 714.49 666.08 896.75 649.42
00026237 00000072 520.18 120.21 520.66 725.30 663.11 382.01 900.84 361.49 800.09 513.51 714.04 666.80 898.44 649.67
00026238 00000073 520.27 118.07 520.38 725.88 663.14 381.71 901.39 360.72 800.55 513.03 714.39 665.75 899.86 648.08
00026239 00000074 519.45 117.57 523.43 726.10 663.36 379.94 902.79 359.72 800.86 512.81 714.06 663.86 901.15 646.63
00026240 00000075 520.57 115.56 522.60 723.56 663.65 379.21 903.07 359.05 801.00 511.12 713.88 660.37 902.33 642.98
00026241 00000076 522.97 115.38 522.24 719.62 664.58 376.04 905.23 357.64 801.27 506.93 711.35 652.30 904.65 635.77
00026242 00000077 524.15 110.22 522.94 724.14 667.53 370.96 905.45 354.90 802.26 502.80 710.11 645.04 907.43 630.03
00026243 00000078 526.07 109.60 520.54 725.75 667.90 367.81 906.22 352.04 801.47 497.19 708.28 643.43 907.60 628.66
00026244 00000079 531.38 106.36 517.87 727.45 674.43 367.64 911.37 354.21 806.08 497.91 712.49 641.62 911.27 628.84
00026245 00000080 535.31 109.96 522.58 722.21 682.58 365.16 921.17 353.89 816.23 498.27 721.66 639.75 919.55 628.43
00026246 00000081 541.08 112.34 521.26 718.49 692.20 367.24 930.99 355.07 831.70 497.23 732.94 639.85 933.21 627.77
00026247 00000082 546.59 122.83 520.17 707.93 701.68 368.09 941.63 359.29 843.61 496.61 739.78 639.05 943.42 629.82
00026248 00000083 551.65 127.20 517.60 706.82 708.72 371.93 946.10 365.14 849.23 501.43 742.08 641.30 945.33 634.06
00026249 00000084 552.27 139.57 519.22 693.92 708.13 380.91 945.39 374.42 846.76 504.35 742.82 646.14 942.13 639.65
00026250 00000085 553.51 141.19 520.30 694.28 704.26 393.70 941.48 386.99 836.95 507.26 737.23 650.86 936.97 644.86
00026251 00000086 550.31 135.53 525.24 700.25 698.21 390.88 938.81 385.69 828.39 507.75 730.66 652.31 929.79 647.45
00026252 00000087 544.69 128.37 524.85 705.71 691.68 385.40 930.41 379.59 820.03 505.35 724.33 650.40 919.84 644.74
00026253 00000088 543.22 126.04 527.04 705.10 689.25 378.42 928.29 372.46 815.82 504.45 724.50 646.29 915.22 640.21
00026254 00000089 542.66 124.43 528.13 704.96 689.73 375.40 929.75 368.29 817.22 504.05 727.53 645.30 914.58 638.01
00026255 00000090 545.60 128.75 526.61 696.25 692.27 374.00 935.51 367.56 822.85 503.42 733.43 644.66 921.15 637.67
00026256 00000091 547.41 129.68 525.12 693.92 693.31 373.17 937.97 366.00 825.98 502.77 737.11 646.00 923.92 638.46
00026257 00000092 546.89 131.58 525.54 692.56 693.32 373.30 938.51 365.39 827.35 503.60 738.60 647.09 924.87 639.03
00026258 00000093 544.84 131.47 525.42 692.60 690.85 374.55 935.40 365.75 824.11 503.29 736.25 648.03 921.41 639.24
00026259 00000094 541.65 128.33 526.01 696.38 688.57 375.48 930.73 366.96 820.02 504.31 732.55 648.03 915.88 639.59
00026260 00000095 540.87 126.46 524.14 698.77 686.51 374.99 928.03 366.63 816.49 504.49 729.75 648.36 911.28 640.09
00026261 00000096 540.63 126.06 521.43 699.34 685.01 374.41 925.40 366.07 813.97 503.87 727.46 648.00 907.63 639.85
00026262 00000097 539.87 121.67 520.64 703.73 683.79 369.05 922.65 360.80 810.79 500.13 726.14 647.01 901.38 639.11
00026263 00000098 536.88 113.87 522.04 711.81 682.03 364.25 921.45 356.75 808.92 495.48 724.21 645.31 897.48 638.07
00026264 00000099 536.41 112.04 518.89 715.78 685.13 369.44 915.70 360.30 808.90 484.23 721.45 642.92 892.33 634.24
00026265 00000100 536.44 114.72 518.60 714.59 681.98 364.14 915.17 355.70 805.84 478.88 717.01 639.77 893.90 631.47
00026266 00000101 536.21 108.71 521.75 719.16 679.98 357.80 916.25 347.26 805.91 477.28 718.68 636.53 900.37 626.37
00026267 00000102 540.88 107.33 525.77 716.91 687.72 354.28 925.29 346.84 815.26 475.12 726.42 631.39 910.90 623.54
00026268 00000103 549.33 111.73 520.10 705.96 698.62 352.42 938.71 348.40 830.82 478.32 739.89 628.97 920.61 623.58
00026269 00000104 556.19 115.27 517.71 695.61 706.17 353.38 947.33 352.18 838.93 480.60 748.19 628.86 922.51 625.84
00026270 00000105 560.86 118.45 519.22 694.26 710.72 353.52 953.75 354.01 843.34 481.99 749.96 630.07 927.05 628.49
00026271 00000106 565.40 121.29 519.08 695.21 714.52 354.29 958.19 354.89 846.54 482.71 752.28 632.60 930.97 631.21
00026272 00000107 569.30 120.93 521.11 697.62 717.38 355.51 963.25 355.80 850.06 484.63 755.36 635.38 935.12 633.92
00026273 00000108 575.34 121.91 518.11 696.44 719.41 357.23 965.92 355.66 853.59 484.78 759.73 638.64 937.02 635.90
00026274 00000109 582.31 121.08 515.56 702.77 722.73 360.49 971.50 354.97 860.66 486.94 764.37 646.22 945.51 640.33
00026275 00000110 586.34 115.93 516.42 702.11 727.95 363.42 977.98 358.40 868.43 488.94 769.41 644.17 955.72 638.38
00026276 00000111 590.15 123.88 516.51 690.48 731.30 367.12 980.84 361.29 873.12 495.55 774.53 644.38 960.77 637.77
00026277 00000112 590.82 120.52 520.85 701.20 736.23 372.03 976.93 365.96 867.06 502.82 774.77 649.33 955.37 643.60
00026278 00000113 588.22 121.96 520.87 706.74 733.15 376.67 972.86 369.60 863.64 508.70 772.88 655.71 950.38 649.72
00026279 00000114 582.75 122.49 521.81 708.45 725.64 382.09 963.77 373.02 852.39 510.05 765.88 658.56 942.55 651.02
00026280 00000115 577.37 132.59 519.02 694.12 715.01 382.71 961.91 373.94 848.88 508.43 758.67 656.46 942.71 648.28
00026281 00000116 571.43 130.71 523.45 690.82 709.17 375.32 957.06 369.98 837.47 500.59 751.86 647.30 937.51 641.81
00026282 00000117 568.94 130.27 521.12 686.46 707.40 366.75 956.36 363.19 837.16 491.98 750.10 640.88 935.03 636.60
00026283 00000118 568.89 123.96 519.73 688.67 709.60 361.28 958.67 357.62 842.89 487.01 753.36 636.56 937.86 631.72
00026284 00000119 568.90 120.29 518.55 690.56 713.00 358.28 961.70 353.70 849.13 486.06 756.60 634.55 940.58 628.70
00026285 00000120 567.99 118.58 518.38 692.80 713.24 358.95 959.35 353.71 848.74 484.61 757.42 633.35 939.86 626.79
00026286 00000121 565.11 121.45 520.61 688.94 714.10 363.48 955.29 360.17 844.41 481.74 755.73 630.70 933.90 625.80
00026287 00000122 561.06 121.39 521.83 688.99 708.68 366.01 949.80 360.06 837.85 483.23 752.36 631.91 930.39 624.77
00026288 00000123 557.26 122.32 522.72 688.88 705.12 370.38 945.47 363.95 833.49 483.58 748.34 633.74 926.92 626.40
00026289 00000124 555.00 125.77 523.58 688.67 703.93 373.12 942.25 365.18 832.89 482.70 748.92 639.43 924.62 631.25
00026290 00000125 556.22 130.43 523.59 686.30 704.72 374.08 942.40 364.81 834.40 484.54 752.25 643.52 924.52 634.50
00026291 00000126 555.98 129.87 524.85 687.90 703.70 373.15 943.74 363.36 834.87 484.90 752.32 644.13 927.58 634.57
00026292 00000127 555.40 123.65 524.73 691.75 703.53 370.73 944.68 362.05 834.98 484.58 751.75 641.36 928.98 632.47
00026293 00000128 556.50 124.23 523.19 688.05 705.49 376.53 945.41 368.88 835.60 483.57 749.91 636.75 933.08 628.44
00026294 00000129 558.49 121.84 521.23 691.12 707.10 378.95 946.50 372.33 835.92 484.35 748.78 636.62 932.81 629.30
00026295 00000130 558.45 128.25 523.78 687.79 708.17 378.81 948.04 373.53 837.18 486.97 749.17 639.68 933.10 634.00
00026296 00000131 560.44 130.56 523.50 692.27 711.95 386.51 947.14 380.59 839.16 488.18 752.34 644.36 931.08 638.72
00026297 00000132 562.01 130.91 524.96 692.23 709.76 387.51 950.54 381.52 839.12 494.78 750.17 648.13 934.56 642.37
00026298 00000133 562.13 133.84 524.15 689.59 707.42 387.20 950.24 379.92 837.77 499.50 749.86 650.62 934.49 644.02
00026299 00000134 559.44 136.34 525.71 689.85 704.07 391.72 946.25 382.42 834.43 505.14 748.19 657.53 928.83 649.41
00026300 00000135 558.61 137.05 526.39 691.46 703.47 394.50 943.18 383.10 833.42 513.39 750.91 662.47 926.52 652.75
00026301 00000136 560.09 141.53 525.45 690.77 702.81 397.91 943.33 384.78 833.83 519.47 752.50 667.94 928.61 656.98
00026302 00000137 558.29 141.39 527.26 698.00 703.63 400.27 942.23 385.57 836.30 521.06 754.89 674.00 927.29 661.97
00026303 00000138 557.46 140.09 527.47 707.53 703.03 402.65 939.97 385.62 836.50 521.93 756.33 679.09 928.70 665.19
00026304 00000139 554.56 137.52 529.23 708.89 698.82 403.88 937.79 386.90 833.52 523.14 750.23 677.32 929.62 663.47
00026305 00000140 549.87 134.22 529.08 705.05 690.89 408.12 928.89 391.35 823.45 525.36 740.24 672.11 923.80 658.25
00026306 00000141 543.87 133.77 526.20 714.37 683.43 409.90 919.90 394.74 811.77 530.53 729.86 678.06 908.51 665.85
CROP_BBOX: 277 0 1427 1071
