Video ID: 	75xOshXQEnA
H: 	1080
W: 	1920
FPS: 	25.0

FRAME INDEX X0 Y0 W H [Landmarks (5 Points)]

00006154 00000000 357.70 103.07 574.07 816.60 537.13 402.41 785.49 419.95 660.59 532.19 557.55 694.91 741.95 709.30
00006155 DELETE   357.13 93.60 572.42 826.74 540.72 398.00 788.20 413.59 670.48 531.20 563.80 693.77 750.10 706.44
00006156 00000002 357.84 95.62 575.85 822.24 544.65 396.35 790.43 410.29 675.41 527.51 572.80 693.52 748.00 705.30
00006157 00000003 357.79 97.80 571.52 813.43 544.76 390.94 785.30 405.35 671.24 520.21 557.14 688.15 746.38 700.81
00006158 00000004 351.80 93.69 578.41 818.63 542.18 387.17 784.06 402.38 670.45 513.36 554.46 685.86 745.09 699.27
00006159 00000005 349.58 85.58 582.08 823.08 540.34 388.90 788.00 402.43 673.58 521.18 568.65 681.31 750.43 692.67
00006160 00000006 349.49 93.74 574.75 807.29 538.89 387.09 781.93 400.48 672.14 509.64 552.80 681.42 751.14 693.07
00006161 00000007 348.50 90.65 574.39 802.12 536.42 386.36 780.65 399.99 669.28 513.16 551.29 675.99 750.84 687.70
00006162 00000008 346.57 89.26 572.51 795.96 532.76 388.47 778.06 399.57 666.25 514.50 548.04 672.30 751.30 681.83
00006163 00000009 345.37 82.46 571.63 811.72 530.35 394.98 779.98 405.43 665.94 524.68 564.24 676.05 749.07 684.10
00006164 00000010 344.58 102.83 567.12 788.08 533.91 384.15 779.60 401.44 667.12 521.57 549.36 675.45 743.12 690.21
00006165 00000011 343.65 90.89 565.54 796.86 532.86 389.43 776.49 400.05 669.72 519.99 545.51 675.68 751.78 684.85
00006166 00000012 342.64 92.94 567.79 794.12 533.74 387.73 777.75 397.76 674.58 516.15 548.82 673.66 757.44 682.25
00006167 00000013 341.05 79.96 575.78 819.87 537.53 382.56 785.80 394.98 681.06 514.56 568.96 674.75 754.42 684.90
00006168 00000014 339.81 79.09 577.43 822.27 538.66 379.95 785.66 392.90 683.59 509.88 567.98 672.85 757.03 683.09
00006169 00000015 337.94 78.42 580.46 822.02 542.52 375.65 788.08 389.94 689.16 504.16 571.17 670.14 758.10 681.57
00006170 00000016 339.18 81.70 578.26 810.48 543.19 375.69 790.50 388.08 694.69 498.89 576.62 668.38 764.54 678.02
00006171 00000017 341.39 92.07 573.68 783.61 547.03 374.63 793.42 385.62 703.46 490.50 575.30 666.58 776.18 675.25
00006172 00000018 345.81 85.22 569.93 791.08 559.66 371.50 804.26 386.16 715.93 494.15 586.18 660.47 782.06 670.04
00006173 00000019 345.82 89.09 570.23 782.46 565.30 369.86 808.87 383.67 727.93 490.73 593.40 655.26 790.87 663.59
00006174 DELETE   345.07 92.23 571.82 778.97 570.81 367.28 812.51 386.18 734.33 491.37 596.64 652.19 791.05 664.61
00006175 DELETE   344.56 92.20 576.95 767.78 567.86 373.46 810.19 388.19 726.96 493.87 603.61 655.47 779.18 665.74
00006176 00000022 345.29 94.92 575.51 782.94 570.36 367.52 815.34 388.88 735.92 494.77 599.46 659.34 791.93 673.48
00006177 00000023 352.87 88.93 567.80 789.46 576.02 379.94 817.68 394.91 739.77 504.55 609.22 670.44 798.33 680.12
00006178 00000024 357.52 97.34 563.35 784.88 577.06 379.57 820.25 394.78 742.71 513.29 611.90 675.59 800.56 685.99
00006179 00000025 357.69 97.40 564.63 789.29 584.32 379.67 823.04 398.09 750.89 515.19 618.22 679.10 800.81 692.49
00006180 00000026 359.39 99.72 565.30 788.22 588.46 378.34 825.31 399.62 754.11 516.66 618.89 677.61 801.80 693.61
00006181 00000027 358.33 100.22 567.03 791.65 592.14 373.23 826.22 401.81 752.70 507.68 611.88 671.23 801.89 693.28
00006182 00000028 360.32 96.74 565.40 792.07 588.90 371.72 824.54 395.97 746.37 496.01 609.35 668.46 796.43 686.09
00006183 00000029 354.62 94.53 569.44 790.41 583.18 369.02 820.78 392.38 740.99 491.47 603.92 664.34 792.76 681.06
00006184 00000030 350.96 96.44 572.90 793.53 575.57 369.27 817.08 395.97 741.65 490.10 594.58 665.26 796.38 685.82
00006185 00000031 350.99 90.69 572.82 804.79 571.51 372.17 816.03 391.86 736.07 502.60 599.44 672.57 795.48 686.05
00006186 00000032 355.61 98.19 574.08 790.79 580.73 376.47 822.46 401.71 743.75 507.91 601.74 671.34 801.69 690.70
00006187 00000033 364.40 100.98 569.03 785.01 588.76 382.32 829.85 405.44 748.91 523.97 609.23 677.96 806.31 695.50
00006188 00000034 371.38 113.43 568.37 771.08 597.28 394.93 838.41 415.69 760.91 536.08 620.47 682.23 811.95 699.01
00006189 00000035 378.90 121.68 566.77 775.67 610.70 402.99 844.34 427.91 769.11 543.46 626.49 689.86 816.41 709.30
00006190 00000036 383.67 123.36 565.15 774.38 615.72 405.15 848.52 431.44 776.10 544.41 632.67 691.51 822.09 712.08
00006191 00000037 381.87 124.32 565.59 776.25 615.59 399.20 856.84 427.33 782.17 539.68 635.09 693.93 827.95 715.70
00006192 00000038 381.43 123.81 564.35 777.48 612.23 398.22 854.62 425.78 778.91 535.56 632.97 692.10 826.52 713.51
00006193 00000039 379.81 123.30 563.71 770.83 604.79 396.68 849.34 419.91 771.34 533.29 628.53 690.16 823.14 707.97
00006194 00000040 379.90 119.67 565.61 770.47 605.20 397.62 841.51 419.85 763.26 536.99 623.61 685.57 815.00 702.65
00006195 00000041 375.17 114.51 570.20 771.79 595.32 394.93 840.84 411.69 758.74 533.23 621.06 684.69 813.23 698.15
00006196 00000042 372.11 113.42 570.25 775.55 592.32 391.23 836.13 408.73 754.55 531.52 618.41 684.57 808.17 698.32
00006197 00000043 371.98 116.19 564.01 772.03 592.56 390.00 830.91 413.84 749.55 527.55 612.90 681.26 805.95 699.88
00006198 00000044 366.66 115.30 566.14 775.07 586.45 388.41 825.50 412.14 745.10 522.95 607.87 680.52 801.56 698.80
00006199 00000045 361.12 109.13 569.56 780.00 581.04 383.29 820.74 406.06 739.38 519.03 603.96 678.43 795.81 696.17
00006200 00000046 354.94 104.69 570.33 782.96 571.20 376.00 816.01 394.85 733.67 509.08 604.39 677.03 791.34 690.37
00006201 00000047 350.93 94.89 572.13 786.60 569.51 370.97 810.62 389.12 728.18 496.68 603.85 668.67 786.60 680.99
00006202 00000048 350.96 92.51 567.41 776.33 566.27 363.15 807.27 381.78 723.22 484.98 598.97 659.58 780.04 672.54
00006203 00000049 350.97 93.51 565.49 757.98 564.11 353.18 803.47 374.15 718.93 466.65 593.62 643.71 773.49 660.43
00006204 00000050 348.18 79.77 565.30 774.24 561.40 347.73 806.11 366.81 720.74 468.61 585.77 635.33 784.39 648.87
00006205 00000051 347.93 75.42 567.14 775.71 560.62 344.40 806.64 364.04 721.41 463.47 584.61 630.73 786.98 644.39
00006206 00000052 344.28 75.89 568.81 783.58 562.55 341.76 804.06 365.03 721.42 458.77 587.14 631.37 783.41 648.16
00006207 00000053 348.82 81.42 563.82 770.73 564.53 346.35 807.26 365.11 722.35 453.35 592.78 635.93 780.14 649.59
00006208 00000054 350.59 87.26 560.58 768.55 564.85 346.46 807.54 365.30 724.29 455.82 593.33 638.69 782.17 652.17
00006209 00000055 351.41 92.21 560.50 764.15 565.96 347.63 809.55 367.24 727.48 458.03 594.26 640.84 783.95 654.90
00006210 00000056 351.90 91.93 561.17 764.19 568.98 349.19 811.24 368.68 731.47 460.85 598.37 642.89 785.79 656.87
00006211 00000057 353.35 88.38 559.03 764.70 573.82 349.58 813.56 371.01 736.61 461.24 601.68 640.57 788.64 656.00
00006212 00000058 352.47 90.47 559.27 763.17 576.58 351.47 815.79 375.02 739.90 460.62 603.29 638.55 791.21 655.54
00006213 00000059 356.43 92.78 556.46 760.94 583.23 352.04 820.95 377.43 746.98 466.58 610.12 639.60 795.42 657.84
00006214 00000060 361.56 89.45 555.50 765.29 590.19 351.62 827.45 378.54 754.94 472.35 614.67 642.67 799.92 662.13
00006215 00000061 367.86 87.36 552.59 770.82 594.48 355.00 831.54 379.41 757.82 481.42 617.23 649.63 803.75 667.13
00006216 00000062 368.03 93.33 560.83 772.38 595.18 358.33 833.59 382.91 757.95 485.86 617.30 653.21 805.58 670.71
00006217 00000063 369.80 100.44 564.69 777.79 597.00 364.23 835.48 389.77 757.76 489.16 616.06 659.82 806.16 678.21
00006218 00000064 368.42 101.90 568.27 781.67 596.92 365.69 834.73 390.70 757.55 490.08 616.09 662.23 806.87 680.28
00006219 00000065 371.15 103.00 567.84 783.79 597.32 366.67 834.99 390.59 756.68 489.61 614.93 661.59 808.31 678.83
00006220 00000066 371.50 99.32 568.08 778.11 596.98 365.78 834.84 388.34 756.02 488.83 618.76 658.19 806.96 674.07
00006221 00000067 373.57 95.73 568.36 770.84 596.64 365.34 834.56 386.73 754.32 486.59 624.75 656.28 805.65 671.38
00006222 00000068 374.96 94.37 565.95 765.15 595.51 364.13 834.00 385.57 752.57 487.44 625.59 655.06 802.86 670.27
00006223 00000069 370.80 94.93 569.71 771.74 591.39 370.64 831.72 390.52 753.70 501.57 617.93 658.33 808.70 673.18
00006224 00000070 370.63 99.36 567.89 783.48 592.86 371.40 834.42 394.16 748.64 494.06 612.69 660.59 805.37 676.47
00006225 00000071 368.41 95.56 570.50 786.70 589.95 373.70 834.31 394.52 750.73 492.42 610.93 660.09 809.53 674.16
00006226 00000072 369.79 100.14 567.11 774.56 587.69 375.86 837.50 394.42 751.99 495.28 608.62 659.55 814.67 671.69
00006227 00000073 369.48 99.10 568.54 777.89 584.12 373.92 835.34 391.51 748.70 493.62 605.67 660.73 813.93 672.08
00006228 00000074 366.33 100.68 569.80 791.21 585.74 372.67 829.51 390.28 745.59 490.95 608.17 664.98 806.39 677.05
00006229 00000075 363.40 102.71 573.12 787.77 583.06 371.20 825.75 388.22 742.55 489.07 606.66 663.74 803.68 675.15
00006230 00000076 362.61 95.52 572.48 792.17 580.23 372.43 821.38 388.23 737.67 487.42 602.62 662.81 799.72 672.92
00006231 00000077 359.11 89.77 574.27 800.41 565.40 380.51 810.22 390.29 721.05 496.36 595.09 667.08 787.92 673.71
00006232 00000078 356.51 86.31 571.12 800.04 554.21 377.25 803.51 388.69 704.62 496.37 582.83 667.16 777.55 675.34
00006233 00000079 347.51 85.86 576.65 799.87 541.28 373.06 793.57 383.39 690.60 494.73 570.85 663.38 768.29 671.10
00006234 00000080 342.03 86.38 575.21 805.05 531.60 375.75 780.26 383.40 675.52 499.80 563.47 665.83 755.22 671.79
00006235 00000081 337.92 81.48 572.82 804.40 520.71 375.10 766.85 381.40 659.53 497.37 553.72 662.40 743.07 667.16
00006236 00000082 337.73 96.38 566.34 775.17 513.57 372.14 757.23 374.97 647.38 492.45 536.35 664.26 732.07 667.41
00006237 00000083 333.56 97.13 567.44 769.46 505.35 370.65 753.47 374.42 636.19 490.85 528.79 660.40 724.40 664.12
00006238 00000084 332.87 92.59 566.51 770.18 503.30 375.37 752.38 378.43 630.81 492.28 525.36 658.65 721.82 661.40
00006239 00000085 332.06 88.23 568.15 785.60 501.07 377.70 756.84 382.53 632.03 489.15 518.79 655.35 734.23 657.26
00006240 00000086 333.49 90.11 564.35 774.30 502.68 375.08 756.57 378.75 637.35 489.55 525.62 654.57 736.35 655.34
00006241 00000087 334.04 86.82 566.04 775.75 506.62 372.66 757.52 376.62 641.67 487.42 532.47 656.13 735.49 657.33
00006242 00000088 333.10 89.26 567.43 755.50 509.54 372.84 755.98 374.42 643.69 486.82 539.61 656.59 722.78 658.35
00006243 00000089 334.10 92.02 567.13 752.75 511.18 368.79 754.33 372.85 640.88 487.26 540.64 653.83 718.18 657.74
00006244 00000090 335.91 93.24 565.52 751.84 509.27 366.48 752.27 373.60 633.08 485.70 532.83 650.68 712.48 657.19
00006245 00000091 335.42 93.06 565.97 752.00 506.09 366.87 750.24 375.75 625.68 487.17 527.59 649.39 707.35 657.32
00006246 00000092 335.53 92.65 564.30 750.31 503.36 367.92 747.44 376.24 621.06 486.33 525.94 650.17 702.38 657.58
00006247 00000093 335.70 93.41 565.43 750.96 504.47 368.13 748.37 376.86 622.58 487.58 526.32 651.53 703.01 659.33
00006248 00000094 337.82 94.43 566.05 754.29 507.03 367.60 752.24 376.38 626.70 490.40 529.47 653.48 707.30 661.49
00006249 00000095 338.92 94.24 569.01 757.82 511.66 368.35 756.70 377.12 634.81 491.16 535.07 654.50 714.32 662.57
00006250 00000096 342.61 97.52 567.29 757.07 517.55 370.41 760.63 377.21 644.58 491.06 542.19 659.51 720.80 666.02
00006251 00000097 345.18 95.00 569.42 763.37 520.99 372.50 763.65 378.56 648.22 491.41 545.26 662.55 724.27 668.52
00006252 00000098 346.12 94.78 571.62 769.33 524.06 374.39 767.82 382.15 651.94 493.70 545.69 666.28 726.70 673.82
00006253 00000099 349.93 95.52 571.20 776.65 526.28 374.11 770.54 383.68 652.20 496.04 544.89 668.41 727.94 677.35
00006254 00000100 353.28 97.11 572.42 778.45 529.17 376.38 773.18 387.02 653.19 496.25 546.93 669.09 729.02 678.71
00006255 00000101 356.58 101.13 572.82 784.17 531.62 379.19 774.72 390.61 653.22 498.16 549.03 672.48 729.85 682.77
00006256 00000102 358.04 101.41 575.96 782.59 534.27 381.36 777.28 394.49 654.75 501.36 551.96 671.43 731.69 683.12
00006257 00000103 361.91 101.85 576.46 784.89 538.94 384.06 781.81 399.45 659.07 506.44 557.01 673.61 735.45 687.11
00006258 00000104 364.42 101.21 580.90 788.43 543.87 385.20 788.72 403.74 664.74 512.97 560.27 674.51 741.80 690.40
00006259 00000105 367.11 101.47 580.58 779.84 549.24 384.29 793.27 404.20 677.44 515.02 571.41 676.63 755.61 691.95
00006260 00000106 370.62 101.92 584.90 783.46 553.60 385.41 799.70 406.77 681.28 518.01 574.85 680.60 759.13 697.23
00006261 00000107 375.48 104.46 579.10 789.68 555.81 393.27 807.25 418.25 682.46 530.18 567.30 682.34 761.01 702.94
00006262 00000108 379.24 111.93 576.27 783.31 559.49 402.07 809.37 431.83 683.79 535.63 567.35 683.27 763.37 707.50
00006263 00000109 387.74 115.87 573.75 784.29 559.90 413.27 807.94 442.48 676.48 545.68 563.06 687.96 761.62 711.92
00006264 DELETE   389.15 123.61 575.60 798.69 554.51 417.02 801.05 445.46 664.59 551.70 558.73 708.47 745.89 732.33
00006265 DELETE   379.88 123.82 576.52 807.39 538.59 425.67 786.35 450.00 645.44 558.51 535.79 716.58 730.80 736.73
00006266 00000112 370.34 136.61 583.68 797.66 528.96 430.63 777.16 454.82 620.64 565.49 518.42 717.06 701.08 739.62
00006267 00000113 363.74 133.71 585.70 804.04 513.57 424.07 770.54 450.86 611.44 556.94 510.69 714.56 696.85 740.49
00006268 00000114 360.29 127.40 590.45 808.06 512.28 426.54 761.03 448.56 603.40 559.06 516.74 710.72 693.45 730.69
00006269 00000115 362.31 135.43 581.25 780.47 514.57 425.44 760.17 438.34 614.16 561.08 525.92 716.42 700.14 728.76
00006270 00000116 368.00 127.69 578.86 786.10 520.58 425.18 774.13 436.81 633.99 557.77 533.05 716.34 726.85 726.38
00006271 DELETE   371.42 128.69 573.57 782.97 534.76 431.85 780.66 441.02 650.86 556.24 549.50 712.06 737.90 719.57
00006272 00000118 372.10 125.86 577.98 781.66 538.12 422.94 791.16 433.80 661.53 551.91 557.06 712.41 749.03 720.96
00006273 00000119 369.64 120.18 577.60 805.22 538.74 418.49 790.19 425.44 666.72 543.96 559.74 717.28 758.32 722.75
00006274 00000120 367.56 119.14 571.68 811.22 542.95 409.05 790.03 418.32 673.57 539.85 559.24 708.78 762.98 716.20
00006275 00000121 363.70 113.15 577.32 817.42 546.20 406.04 795.78 415.52 682.19 534.48 572.34 701.38 765.63 708.36
00006276 00000122 361.55 111.09 577.66 816.44 542.53 402.60 792.89 410.51 679.49 529.50 569.92 698.56 766.17 704.30
00006277 00000123 358.10 101.78 576.35 816.56 538.44 398.52 789.36 406.41 676.00 528.65 565.30 693.42 764.27 699.36
00006278 00000124 355.93 100.10 576.44 812.78 535.38 395.33 785.03 402.78 670.75 524.06 563.79 687.80 760.36 693.59
00006279 00000125 352.27 104.73 572.04 788.76 529.48 388.70 776.60 393.28 664.72 510.14 553.64 681.74 754.10 686.13
00006280 00000126 349.16 102.33 569.19 768.16 523.18 383.51 767.77 386.65 652.94 501.14 548.25 670.59 738.27 674.06
00006281 00000127 342.56 94.46 574.34 765.21 511.37 381.94 759.18 381.97 638.47 495.45 539.81 665.24 724.63 666.05
00006282 DELETE   339.73 91.77 567.05 771.64 502.57 378.32 753.84 387.71 623.33 490.61 525.50 661.03 716.62 667.69
00006283 DELETE   332.44 84.08 569.66 767.13 484.31 372.54 740.71 379.80 603.85 490.97 504.34 654.10 706.94 660.07
00006284 00000130 324.91 75.25 568.71 782.98 480.21 372.05 728.70 377.07 594.17 484.55 493.21 651.91 695.10 656.16
00006285 00000131 321.57 75.13 571.88 792.79 476.93 369.19 721.77 371.56 589.91 478.52 494.31 654.79 694.05 656.64
00006286 00000132 322.20 72.94 567.65 797.06 479.07 362.76 723.40 367.64 593.77 476.66 492.79 649.68 698.06 653.83
00006287 00000133 324.49 76.12 571.46 784.12 490.17 359.55 731.96 366.10 601.75 474.60 504.43 642.96 696.75 649.44
00006288 00000134 326.99 78.38 567.78 770.04 496.89 360.72 739.36 366.51 614.11 468.80 511.71 640.74 703.59 646.10
00006289 DELETE   329.83 69.66 565.29 772.23 501.12 354.58 749.71 367.22 623.62 457.02 527.31 631.01 712.77 641.90
00006290 00000136 333.11 73.32 567.57 762.72 506.38 358.55 753.78 367.00 632.16 458.38 539.50 630.29 722.62 637.53
00006291 00000137 337.21 78.74 572.57 758.23 517.75 358.88 756.39 361.71 642.03 464.60 544.16 638.93 724.56 642.06
00006292 00000138 343.78 79.31 569.20 755.93 524.98 362.58 762.79 363.19 653.06 467.69 556.37 643.52 732.49 645.28
00006293 00000139 346.09 86.46 569.29 758.35 531.12 366.64 770.64 367.86 664.93 480.45 566.32 651.11 742.73 653.03
00006294 00000140 346.09 92.44 573.68 765.04 534.16 368.50 780.26 374.48 674.65 487.29 566.36 658.72 749.85 664.27
00006295 00000141 342.59 87.13 582.12 785.86 534.80 372.46 782.27 381.82 675.08 496.15 572.53 658.75 748.82 666.24
00006296 00000142 344.11 87.48 578.51 791.82 534.42 379.32 777.72 391.16 669.42 502.59 566.63 660.17 747.12 669.64
00006297 DELETE   344.65 97.48 571.39 774.24 528.19 378.24 773.47 393.80 661.20 499.76 549.86 661.04 745.38 672.08
00006298 00000144 342.16 92.83 569.34 771.62 520.73 381.06 767.00 389.73 656.13 496.79 547.15 662.68 743.48 667.84
00006299 00000145 340.94 90.55 570.75 772.79 522.60 381.03 765.15 389.78 655.94 495.40 552.15 663.64 740.09 669.01
00006300 00000146 339.90 89.54 572.51 775.45 524.81 379.81 766.18 388.07 659.65 495.70 556.97 664.50 742.48 669.44
00006301 00000147 343.27 93.97 567.47 760.80 528.14 380.53 767.02 383.13 660.31 499.77 557.93 664.53 738.07 667.62
00006302 00000148 343.02 95.36 568.45 762.77 532.47 382.41 771.75 386.74 668.37 503.36 562.87 665.83 744.64 670.07
00006303 00000149 342.27 99.91 569.63 761.69 531.73 381.59 774.47 387.52 671.03 505.07 562.34 665.92 749.60 671.38
00006304 00000150 343.13 97.44 568.65 764.70 532.16 381.91 771.83 388.88 667.53 506.47 558.28 664.69 744.78 671.22
00006305 00000151 341.99 99.63 568.65 771.38 530.02 382.84 768.70 389.72 663.21 505.18 553.20 667.13 742.67 673.79
00006306 00000152 340.00 103.23 571.09 778.07 530.40 382.62 768.64 390.33 664.95 505.62 551.96 669.78 743.73 677.02
00006307 00000153 340.13 102.33 570.77 780.11 529.65 384.00 770.80 390.58 668.13 507.28 552.96 672.58 749.01 678.75
00006308 00000154 339.96 101.96 571.14 781.73 531.59 385.33 773.30 391.08 673.39 509.01 556.89 672.86 754.92 678.19
00006309 00000155 340.16 102.74 569.01 780.35 533.54 384.68 774.65 391.30 677.84 508.88 560.22 672.46 758.03 678.44
00006310 00000156 340.73 102.41 570.03 777.76 533.11 384.67 776.96 389.90 679.57 509.51 562.09 673.14 761.35 677.88
00006311 00000157 339.44 102.66 569.52 774.84 532.36 382.59 776.25 389.11 678.90 508.77 561.14 671.28 759.91 677.08
00006312 00000158 340.07 102.76 568.69 771.32 532.37 381.10 774.96 387.65 676.62 507.43 561.15 669.34 756.58 675.30
00006313 00000159 340.44 102.44 568.00 770.75 532.35 380.29 774.64 386.64 676.32 506.18 562.00 669.65 755.58 675.56
00006314 00000160 339.86 101.59 568.84 773.78 532.53 380.27 774.38 386.53 676.14 505.76 561.36 669.92 754.70 675.76
00006315 00000161 338.83 100.97 570.50 778.27 534.17 379.66 774.40 385.41 678.96 501.92 564.19 671.40 755.60 676.74
00006316 00000162 338.24 92.35 574.82 795.43 531.62 379.27 779.33 385.92 680.14 503.62 572.58 672.90 756.30 677.92
00006317 00000163 338.10 86.95 576.03 797.84 532.77 376.53 781.79 383.47 684.20 499.13 573.85 669.68 760.65 674.54
00006318 00000164 338.68 85.36 576.13 800.32 536.12 375.41 784.19 381.89 688.97 495.65 577.04 668.49 765.20 672.72
00006319 00000165 339.17 86.08 571.48 797.77 536.85 374.26 786.45 378.23 693.69 494.39 579.34 668.83 769.59 670.87
00006320 00000166 338.95 84.06 569.83 798.97 537.79 372.20 788.43 374.40 697.82 492.72 582.43 668.23 773.87 668.47
00006321 00000167 340.93 83.18 566.68 796.35 539.98 370.46 789.77 372.48 701.24 490.35 583.50 665.62 776.71 665.52
00006322 00000168 341.49 81.02 565.66 798.87 541.48 368.62 790.88 370.25 703.18 488.18 583.98 663.12 778.90 662.58
00006323 00000169 342.70 79.01 565.99 803.87 542.92 370.63 792.43 373.60 704.06 491.47 583.95 664.78 779.92 665.41
00006324 00000170 345.01 83.57 563.59 802.84 543.97 377.38 790.99 382.54 699.53 499.88 584.44 671.53 775.31 674.02
00006325 00000171 347.08 86.76 563.46 806.76 544.83 389.66 791.51 392.22 699.92 511.48 584.01 679.83 781.11 679.98
