Video ID: 	Iw1EVIM-RGo
H: 	2160
W: 	3840
FPS: 	59.94006309148265

FRAME INDEX X0 Y0 W H [Landmarks (5 Points)]

00009581 00000000 1508.85 771.36 682.00 969.82 1586.91 1182.82 1815.78 1213.23 1619.67 1400.34 1664.77 1513.70 1837.48 1529.97
00009582 DELETE   1492.62 792.53 693.01 943.50 1569.82 1189.23 1810.88 1225.04 1615.81 1417.29 1651.50 1516.21 1839.29 1538.40
00009583 DELETE   1497.00 771.33 681.40 973.23 1580.89 1183.14 1804.29 1221.25 1606.95 1410.89 1657.24 1511.28 1830.43 1533.21
00009584 DELETE   1486.33 800.73 692.86 935.46 1565.84 1191.72 1800.80 1231.05 1603.93 1418.74 1645.79 1513.99 1831.16 1538.38
00009585 00000004 1479.27 775.28 692.15 958.98 1564.06 1184.76 1796.98 1233.18 1595.61 1418.72 1636.87 1507.85 1823.03 1537.95
00009586 DELETE   1478.19 789.73 697.07 940.76 1556.91 1192.00 1790.00 1233.36 1591.76 1417.95 1640.76 1514.64 1817.29 1540.36
00009587 00000006 1479.05 794.96 684.12 930.76 1552.83 1188.04 1782.49 1230.17 1582.55 1420.04 1634.23 1513.14 1808.31 1538.98
00009588 00000007 1477.06 792.55 683.56 936.58 1548.56 1194.92 1780.18 1234.41 1578.87 1420.60 1628.42 1518.52 1804.14 1543.06
00009589 00000008 1478.26 792.36 675.83 932.67 1548.54 1189.81 1775.80 1231.79 1572.36 1419.54 1628.13 1519.21 1797.93 1544.78
00009590 00000009 1475.58 792.92 680.75 934.36 1544.49 1193.39 1776.51 1236.45 1570.74 1422.02 1625.28 1522.36 1799.61 1548.73
00009591 00000010 1474.10 807.65 681.04 924.20 1543.89 1192.96 1772.98 1238.34 1566.96 1428.09 1625.71 1520.98 1801.47 1549.02
00009592 00000011 1473.23 811.79 684.15 923.17 1541.71 1193.58 1771.87 1240.18 1564.62 1431.38 1625.88 1523.39 1801.66 1552.26
00009593 00000012 1472.50 820.62 681.56 924.89 1541.76 1195.83 1771.01 1240.55 1564.94 1435.33 1625.25 1526.53 1802.61 1554.43
00009594 00000013 1469.98 812.39 685.28 932.71 1540.26 1195.29 1775.43 1239.76 1567.05 1438.91 1623.52 1527.20 1806.97 1554.57
00009595 00000014 1472.14 823.84 683.42 925.54 1543.40 1197.43 1779.08 1239.27 1571.22 1440.14 1621.54 1526.46 1810.06 1552.53
00009596 00000015 1471.47 813.88 687.36 939.46 1542.44 1198.53 1784.97 1239.57 1573.88 1442.64 1617.96 1528.98 1814.33 1554.55
00009597 00000016 1470.76 811.90 689.29 940.69 1544.23 1198.26 1785.82 1239.30 1576.65 1444.50 1619.91 1525.20 1818.54 1550.72
00009598 00000017 1473.98 809.31 684.56 940.44 1548.30 1198.22 1789.58 1240.81 1581.58 1441.63 1621.14 1523.73 1821.01 1550.29
00009599 00000018 1476.67 824.18 685.47 925.53 1553.28 1196.58 1792.46 1238.64 1584.62 1440.87 1626.28 1521.61 1824.41 1547.60
00009600 00000019 1476.40 801.26 688.26 945.07 1554.93 1194.44 1793.75 1238.40 1586.83 1439.47 1632.73 1522.35 1827.75 1549.37
00009601 00000020 1482.16 816.90 685.86 927.06 1562.50 1194.56 1794.18 1233.85 1590.71 1434.78 1643.50 1524.69 1827.50 1548.49
00009602 00000021 1480.24 789.37 692.04 950.90 1558.61 1191.36 1793.26 1233.05 1589.03 1429.70 1640.10 1521.64 1825.17 1546.85
00009603 00000022 1484.48 795.38 685.27 941.20 1562.94 1188.73 1797.21 1231.20 1594.33 1427.55 1640.50 1521.30 1822.65 1547.35
00009604 00000023 1487.59 789.08 686.22 944.31 1565.63 1188.67 1801.03 1230.80 1596.30 1421.78 1640.12 1522.28 1820.76 1547.93
00009605 00000024 1495.97 810.32 683.46 922.25 1572.61 1187.31 1803.02 1231.40 1598.73 1420.74 1644.82 1519.27 1820.28 1546.31
00009606 00000025 1498.09 791.47 685.68 938.40 1574.12 1185.44 1804.92 1229.61 1600.78 1417.55 1647.62 1519.76 1821.85 1546.80
00009607 00000026 1500.74 806.32 686.68 923.87 1575.60 1181.40 1805.82 1228.81 1603.56 1416.71 1649.91 1515.81 1823.05 1545.33
00009608 00000027 1501.04 784.42 691.19 944.43 1575.90 1183.63 1808.49 1228.54 1605.95 1416.33 1653.50 1517.18 1828.10 1544.90
00009609 00000028 1502.58 794.77 690.56 936.18 1579.55 1182.66 1810.26 1227.38 1608.79 1414.61 1657.94 1515.20 1832.10 1543.01
00009610 00000029 1505.58 771.17 685.20 973.19 1585.42 1179.99 1814.15 1224.36 1612.31 1407.17 1664.45 1518.49 1833.37 1545.82
00009611 00000030 1501.41 792.12 692.84 942.07 1580.78 1181.16 1811.50 1225.15 1612.34 1415.47 1662.74 1516.52 1837.73 1544.10
00009612 00000031 1507.77 779.35 687.26 968.57 1585.54 1177.18 1816.78 1221.33 1614.18 1410.25 1668.65 1519.27 1841.84 1545.84
00009613 00000032 1510.14 783.38 686.01 965.26 1586.40 1174.53 1817.90 1221.32 1612.93 1411.18 1669.49 1518.90 1843.39 1547.23
00009614 00000033 1504.71 793.10 694.37 941.70 1581.62 1180.25 1814.01 1222.98 1613.59 1416.45 1664.54 1518.42 1841.70 1544.80
00009615 00000034 1504.22 793.18 695.00 942.26 1581.93 1180.45 1815.27 1222.44 1615.16 1417.24 1665.18 1518.54 1843.40 1544.48
00009616 00000035 1505.81 791.68 694.47 943.17 1582.92 1180.75 1815.66 1222.79 1615.69 1417.52 1665.92 1519.15 1843.23 1545.06
00009617 00000036 1514.06 780.71 685.92 967.36 1589.66 1176.45 1818.23 1221.53 1616.00 1411.75 1671.75 1522.06 1843.55 1548.98
00009618 00000037 1514.24 778.14 687.11 970.56 1589.66 1176.50 1819.05 1222.16 1615.62 1411.88 1671.48 1521.77 1843.82 1549.25
00009619 00000038 1515.40 779.93 685.79 969.32 1590.46 1176.11 1819.62 1222.78 1615.83 1410.82 1672.40 1520.34 1844.70 1548.44
00009620 00000039 1508.54 791.00 694.20 944.66 1585.41 1182.16 1816.92 1223.35 1617.27 1416.50 1667.86 1519.20 1844.63 1544.53
00009621 00000040 1508.83 795.49 693.61 940.80 1585.99 1182.46 1817.06 1222.49 1618.12 1415.20 1667.79 1518.74 1844.94 1543.33
00009622 00000041 1510.76 790.76 690.68 944.37 1586.06 1183.76 1818.87 1222.29 1619.83 1415.01 1668.02 1519.50 1845.85 1542.96
00009623 00000042 1512.44 791.14 688.76 951.22 1590.61 1185.55 1820.92 1223.83 1617.01 1418.50 1667.42 1515.77 1849.31 1539.48
00009624 00000043 1511.85 792.17 690.64 948.95 1589.04 1185.42 1823.39 1224.94 1617.71 1420.37 1664.18 1514.54 1850.31 1539.22
00009625 00000044 1514.63 800.80 688.43 941.42 1590.76 1184.91 1824.49 1224.62 1618.59 1420.25 1663.82 1513.66 1850.62 1538.88
00009626 00000045 1515.11 798.40 686.26 940.16 1590.35 1182.76 1825.42 1224.48 1619.29 1422.93 1661.66 1514.10 1849.11 1540.54
00009627 00000046 1516.61 796.57 682.65 936.38 1590.82 1180.85 1826.22 1224.12 1619.09 1421.87 1658.78 1514.87 1844.04 1542.53
00009628 00000047 1516.47 781.41 683.13 948.28 1590.49 1179.26 1826.26 1222.07 1618.44 1420.48 1655.78 1516.91 1839.26 1544.47
00009629 00000048 1514.26 781.81 683.24 936.92 1584.67 1175.06 1820.50 1218.43 1619.28 1416.06 1656.79 1517.57 1832.54 1544.29
00009630 00000049 1516.38 769.61 683.30 945.98 1585.15 1171.52 1822.67 1216.00 1618.98 1413.76 1653.47 1518.78 1829.40 1546.02
00009631 00000050 1519.26 767.30 689.55 967.39 1586.55 1165.68 1821.13 1208.49 1613.81 1403.22 1654.10 1523.78 1820.52 1549.68
00009632 00000051 1520.88 771.52 686.55 960.53 1591.14 1168.02 1825.70 1205.88 1621.92 1398.63 1659.97 1527.93 1821.33 1550.25
00009633 00000052 1510.23 750.90 688.67 964.83 1587.32 1153.88 1827.07 1200.63 1621.31 1388.28 1647.49 1508.22 1818.04 1536.46
00009634 DELETE   1511.10 745.68 689.72 962.48 1590.65 1150.39 1830.29 1195.82 1624.36 1375.77 1646.08 1503.13 1810.94 1530.63
00009635 00000054 1509.36 727.72 687.32 973.94 1586.80 1139.60 1830.11 1189.43 1621.24 1374.59 1644.25 1491.95 1819.79 1521.82
00009636 DELETE   1511.00 731.08 686.84 968.63 1586.99 1137.20 1830.30 1179.94 1622.97 1367.54 1640.98 1490.96 1813.33 1516.30
00009637 00000056 1514.30 732.88 678.63 965.69 1587.59 1125.86 1829.65 1172.71 1622.53 1363.50 1638.73 1475.90 1823.08 1503.90
00009638 00000057 1519.18 728.66 674.99 967.65 1591.10 1127.09 1832.38 1169.05 1625.62 1357.31 1641.35 1477.12 1820.68 1501.98
00009639 00000058 1521.50 729.28 672.29 965.98 1590.71 1118.81 1835.02 1161.92 1627.08 1354.74 1639.09 1471.50 1823.03 1497.14
00009640 00000059 1523.66 715.09 671.23 977.84 1592.22 1118.04 1836.41 1161.89 1629.17 1355.42 1641.85 1471.35 1825.42 1497.47
00009641 00000060 1526.20 720.02 672.27 972.84 1593.87 1116.11 1835.91 1160.48 1629.89 1352.67 1645.07 1466.71 1829.33 1493.11
00009642 00000061 1525.45 711.18 676.32 982.46 1595.76 1117.63 1840.22 1165.65 1631.42 1356.44 1643.48 1463.85 1834.18 1492.84
00009643 00000062 1524.70 719.42 675.45 973.99 1595.85 1118.79 1841.18 1166.27 1631.84 1357.95 1643.90 1463.75 1836.21 1492.17
00009644 00000063 1525.17 717.07 678.78 974.48 1596.40 1120.35 1844.35 1170.64 1633.75 1360.23 1642.93 1462.99 1839.31 1493.40
00009645 00000064 1522.31 724.02 680.67 974.50 1595.16 1122.81 1844.06 1171.96 1633.89 1365.69 1642.07 1463.13 1845.13 1491.94
00009646 00000065 1521.70 722.18 681.73 977.31 1595.29 1125.71 1843.83 1176.25 1633.82 1369.23 1641.65 1462.20 1847.25 1491.54
00009647 00000066 1521.18 729.28 680.48 972.95 1595.29 1127.28 1843.27 1176.88 1634.15 1371.49 1642.26 1461.46 1850.06 1489.78
00009648 00000067 1518.64 722.02 686.78 983.63 1594.94 1128.49 1845.72 1181.12 1635.39 1377.31 1645.18 1463.63 1856.47 1493.47
00009649 00000068 1516.31 724.50 688.52 985.03 1593.65 1131.16 1846.63 1182.24 1638.36 1382.76 1647.52 1468.13 1860.15 1496.55
00009650 00000069 1514.61 721.70 691.66 991.27 1594.29 1132.47 1848.72 1183.70 1640.59 1385.43 1651.27 1471.12 1864.47 1499.48
00009651 00000070 1516.42 729.23 689.37 989.95 1596.32 1135.24 1848.11 1181.97 1642.98 1382.85 1656.11 1478.01 1861.76 1503.62
00009652 00000071 1517.60 728.89 688.66 990.41 1597.47 1136.49 1848.95 1181.66 1644.27 1381.30 1658.66 1480.65 1861.19 1505.49
00009653 00000072 1518.72 727.07 684.54 992.76 1598.76 1137.07 1848.67 1181.43 1645.17 1381.17 1662.81 1487.74 1856.29 1512.70
00009654 00000073 1519.61 728.10 682.75 991.14 1598.76 1137.94 1847.94 1180.04 1645.25 1380.99 1665.38 1493.03 1853.27 1516.88
00009655 00000074 1530.97 743.78 679.05 991.33 1607.36 1145.15 1840.38 1183.66 1637.24 1379.04 1671.28 1503.64 1843.78 1526.27
00009656 00000075 1531.65 737.06 678.51 998.23 1608.65 1144.69 1840.29 1183.75 1636.37 1379.70 1665.96 1498.04 1846.77 1521.32
00009657 00000076 1530.82 736.30 680.15 999.98 1607.72 1143.93 1840.55 1182.24 1635.25 1378.81 1663.14 1494.64 1849.58 1517.16
00009658 00000077 1528.73 742.51 682.58 985.24 1607.84 1145.27 1841.99 1182.07 1635.48 1375.96 1658.29 1485.32 1855.90 1506.51
00009659 00000078 1511.32 733.92 694.74 987.77 1590.34 1137.09 1844.45 1181.41 1639.51 1386.04 1654.68 1476.94 1866.45 1499.89
00009660 00000079 1511.56 732.05 694.50 987.11 1590.32 1137.08 1843.74 1182.49 1639.30 1385.00 1653.57 1472.27 1867.94 1495.76
00009661 00000080 1508.94 735.50 694.01 980.14 1589.19 1138.58 1841.56 1183.03 1638.41 1386.23 1650.72 1468.80 1868.01 1491.50
00009662 00000081 1509.59 740.08 693.82 976.38 1589.83 1139.58 1841.81 1183.09 1639.12 1386.21 1652.62 1469.87 1869.29 1491.83
00009663 00000082 1508.53 744.68 694.68 972.63 1589.43 1141.06 1841.71 1182.94 1639.50 1386.95 1653.86 1473.77 1868.29 1494.82
00009664 00000083 1509.74 742.54 696.35 977.85 1592.15 1142.24 1844.64 1186.09 1641.62 1389.39 1656.53 1475.24 1872.29 1497.55
00009665 00000084 1509.98 742.46 694.27 980.18 1593.21 1145.04 1844.45 1186.63 1643.66 1391.59 1660.77 1479.52 1873.43 1500.42
00009666 00000085 1511.97 751.49 693.55 975.07 1595.81 1146.50 1846.35 1186.36 1645.77 1391.85 1663.09 1480.24 1877.34 1499.81
00009667 00000086 1517.62 762.15 689.75 954.47 1601.48 1153.96 1843.30 1186.07 1646.89 1393.50 1670.20 1478.94 1874.67 1498.33
00009668 00000087 1517.13 761.93 691.68 955.06 1602.23 1153.39 1844.63 1186.73 1647.23 1396.19 1670.56 1478.59 1876.97 1498.76
00009669 00000088 1516.55 760.96 691.55 959.48 1601.72 1153.74 1844.28 1186.54 1647.03 1397.93 1672.29 1481.35 1878.15 1500.67
00009670 00000089 1516.06 760.41 693.78 961.61 1602.54 1154.78 1844.76 1186.93 1647.99 1398.06 1674.06 1483.07 1879.38 1501.90
00009671 00000090 1515.29 761.63 694.97 963.25 1602.68 1154.42 1844.74 1187.01 1647.37 1398.26 1675.06 1484.05 1880.04 1503.03
00009672 00000091 1508.51 753.05 695.10 987.01 1595.27 1147.18 1847.14 1185.18 1647.86 1399.72 1670.04 1487.47 1884.58 1504.89
00009673 00000092 1514.69 765.09 691.85 960.23 1602.33 1155.51 1843.84 1186.58 1647.48 1398.84 1675.67 1485.82 1880.28 1503.30
00009674 00000093 1515.43 762.99 690.55 962.94 1602.96 1154.96 1843.08 1185.31 1647.66 1398.48 1676.73 1485.98 1880.97 1502.86
00009675 00000094 1517.13 772.68 685.09 950.50 1607.41 1149.53 1842.82 1180.35 1646.43 1396.25 1678.27 1486.50 1878.25 1505.98
00009676 00000095 1509.09 749.71 692.61 990.64 1595.38 1147.37 1846.02 1183.47 1647.36 1399.21 1670.19 1486.59 1886.62 1502.52
00009677 00000096 1509.19 753.21 691.80 985.80 1595.08 1146.95 1844.24 1183.10 1646.31 1398.23 1670.24 1485.53 1885.79 1501.38
00009678 00000097 1508.87 745.49 695.39 986.15 1594.73 1146.06 1846.05 1184.44 1646.96 1397.66 1667.40 1479.73 1887.04 1497.02
00009679 00000098 1508.58 742.88 696.02 985.90 1595.00 1145.58 1845.58 1184.08 1647.15 1395.60 1665.33 1478.10 1884.08 1495.83
00009680 00000099 1508.70 744.72 697.50 978.82 1595.86 1145.62 1847.80 1185.06 1648.67 1393.78 1663.31 1475.28 1882.39 1494.03
00009681 00000100 1508.35 742.47 695.65 978.05 1595.78 1144.46 1847.76 1184.95 1648.21 1393.52 1660.83 1474.44 1879.04 1494.22
00009682 00000101 1506.57 739.25 697.85 977.94 1594.73 1141.25 1849.57 1183.73 1647.36 1392.16 1656.19 1470.79 1877.62 1492.08
00009683 00000102 1505.90 735.27 698.72 980.10 1593.62 1140.11 1851.51 1182.93 1647.41 1392.71 1653.45 1474.18 1873.61 1496.26
00009684 00000103 1507.45 733.34 700.96 982.00 1594.93 1136.33 1855.38 1179.48 1649.51 1390.58 1651.89 1473.00 1873.49 1495.66
00009685 00000104 1509.44 736.33 698.53 979.62 1596.69 1133.66 1854.80 1176.85 1648.06 1388.29 1650.40 1471.99 1870.53 1494.98
00009686 00000105 1511.55 734.90 696.07 980.17 1599.63 1131.82 1860.49 1175.46 1654.53 1384.18 1651.23 1471.67 1869.68 1495.49
00009687 00000106 1514.52 734.16 695.27 982.11 1602.24 1131.14 1861.61 1172.65 1655.83 1384.67 1651.95 1470.32 1872.28 1492.66
00009688 00000107 1515.88 726.46 694.72 986.82 1604.22 1129.99 1868.01 1170.32 1662.68 1381.60 1656.78 1471.69 1875.62 1493.60
00009689 00000108 1520.35 727.01 691.77 985.54 1609.61 1130.12 1869.36 1166.84 1665.74 1375.92 1659.56 1467.90 1878.68 1487.72
00009690 00000109 1526.74 749.74 687.81 954.01 1616.50 1135.34 1879.22 1164.22 1677.10 1373.89 1664.84 1471.01 1880.43 1491.35
00009691 00000110 1529.30 746.35 685.76 954.73 1620.34 1135.30 1882.34 1163.25 1683.09 1372.02 1670.40 1471.44 1884.12 1490.95
00009692 00000111 1533.54 750.41 680.35 948.08 1622.18 1136.24 1888.19 1163.51 1689.02 1371.64 1675.16 1473.89 1886.25 1492.22
00009693 00000112 1535.89 746.37 683.01 950.00 1628.58 1133.73 1892.26 1161.79 1692.65 1371.95 1679.75 1471.15 1891.39 1490.35
00009694 00000113 1539.58 751.04 684.22 948.16 1630.42 1135.06 1900.41 1159.35 1701.47 1368.66 1683.83 1474.94 1896.83 1491.27
00009695 00000114 1541.86 760.57 689.60 939.28 1637.87 1134.35 1911.61 1156.03 1709.62 1368.36 1687.29 1473.99 1904.19 1488.87
00009696 DELETE   1543.71 743.08 694.20 960.83 1639.19 1137.70 1920.64 1150.66 1720.19 1364.14 1695.59 1482.10 1914.47 1490.55
CROP_BBOX: 1046 0 2915 2055
