Video ID: 	K0q3MgX62Y0
H: 	1080
W: 	1920
FPS: 	25.0

FRAME INDEX X0 Y0 W H [Landmarks (5 Points)]

00033421 00000000 789.82 150.41 446.01 635.34 943.19 438.56 1116.47 399.46 1074.28 512.52 1000.22 632.89 1153.03 602.30
00033422 00000001 798.31 150.20 443.60 635.83 950.26 437.39 1126.24 398.19 1084.20 516.54 1006.85 633.76 1162.36 602.76
00033423 00000002 799.06 151.60 442.31 635.86 956.82 436.59 1133.95 397.75 1095.47 514.42 1011.26 634.38 1168.40 603.21
00033424 00000003 802.32 152.77 441.62 633.25 962.79 437.49 1136.91 399.58 1101.44 510.48 1017.14 631.67 1173.48 601.03
00033425 00000004 810.22 148.37 437.70 639.20 970.97 438.65 1142.36 403.58 1107.40 512.82 1025.82 635.14 1174.66 606.65
00033426 00000005 821.77 148.03 430.69 641.92 980.12 438.26 1150.21 405.94 1113.00 518.55 1031.68 639.36 1177.49 612.90
00033427 00000006 822.09 150.75 437.61 644.54 989.48 439.14 1161.30 409.48 1124.91 522.02 1042.40 648.31 1184.05 623.47
00033428 00000007 830.84 154.55 437.05 644.51 998.54 442.09 1174.19 413.84 1136.56 525.88 1049.87 654.39 1194.22 630.46
00033429 DELETE   834.93 156.60 436.09 642.38 1006.44 445.11 1180.52 415.53 1144.48 529.17 1056.58 657.46 1198.26 632.43
00033430 00000009 836.21 162.98 434.19 638.58 1014.25 447.24 1188.15 417.68 1155.22 534.69 1062.06 661.51 1201.85 636.62
00033431 00000010 838.61 155.36 432.80 644.84 1024.02 449.92 1192.40 419.66 1164.77 538.28 1067.86 662.17 1203.33 637.25
00033432 00000011 841.68 159.79 429.61 642.85 1026.87 452.70 1194.93 422.79 1168.48 540.14 1067.85 664.27 1204.84 639.76
00033433 00000012 841.35 162.76 428.52 639.14 1025.08 455.23 1195.13 423.99 1167.96 541.78 1065.55 664.83 1204.49 639.33
00033434 00000013 840.21 162.81 428.58 639.72 1025.97 455.92 1193.99 424.60 1168.61 542.56 1065.25 664.99 1203.32 639.50
00033435 00000014 840.52 163.70 427.30 636.89 1024.73 455.39 1192.20 422.61 1166.26 541.53 1064.77 664.04 1202.90 637.38
00033436 00000015 839.72 163.78 428.07 637.44 1021.59 451.39 1192.74 417.80 1165.13 540.94 1066.76 665.76 1204.44 637.91
00033437 00000016 844.64 168.00 426.91 632.07 1024.24 447.05 1191.29 409.47 1168.47 532.50 1072.61 662.88 1206.25 631.44
00033438 00000017 839.72 164.06 428.56 637.36 1024.90 452.26 1192.24 416.18 1171.20 538.74 1070.81 665.45 1208.03 635.72
00033439 00000018 843.53 164.36 427.58 637.91 1029.46 450.88 1197.73 417.90 1175.66 536.10 1073.76 663.71 1212.93 636.59
00033440 00000019 855.51 162.10 423.16 640.22 1022.62 449.99 1201.00 414.31 1170.44 535.69 1076.91 655.59 1228.43 626.90
00033441 00000020 858.37 160.34 422.22 637.14 1027.60 449.46 1204.54 410.08 1176.95 534.24 1082.35 653.92 1232.68 622.22
00033442 00000021 860.52 163.52 422.00 634.35 1032.68 448.31 1205.52 407.05 1182.48 534.30 1086.88 655.01 1233.91 622.27
00033443 00000022 859.50 163.94 424.14 632.61 1035.05 443.75 1203.90 404.84 1183.10 529.80 1091.50 652.12 1236.35 620.18
00033444 00000023 861.48 163.63 424.75 631.56 1039.93 441.14 1205.73 403.00 1186.82 529.54 1095.46 651.20 1237.88 619.95
00033445 00000024 862.67 165.18 422.44 629.02 1042.97 439.68 1208.70 402.13 1190.79 529.12 1097.84 650.40 1239.08 619.59
00033446 00000025 861.85 164.56 423.87 626.63 1043.34 438.56 1207.44 401.52 1191.03 526.03 1097.96 647.65 1238.42 617.28
00033447 00000026 862.09 161.90 423.00 627.50 1044.66 436.47 1208.59 400.66 1191.95 524.37 1099.33 646.36 1238.35 616.86
00033448 00000027 861.48 163.10 423.94 625.33 1045.61 435.62 1208.85 399.94 1193.13 523.85 1099.38 645.36 1238.17 616.09
00033449 00000028 859.97 164.46 425.28 624.24 1045.00 434.58 1209.00 399.64 1193.25 523.21 1098.73 645.35 1238.22 616.74
00033450 00000029 859.43 163.96 426.11 623.98 1044.18 434.36 1207.46 399.45 1192.28 522.27 1097.43 643.96 1236.86 615.43
00033451 00000030 860.48 162.65 425.03 625.40 1043.86 435.70 1206.44 400.02 1191.09 522.17 1096.18 644.22 1235.94 615.12
00033452 00000031 860.76 161.71 423.69 627.05 1042.87 436.39 1203.64 400.71 1189.07 520.83 1095.51 644.48 1233.91 615.36
00033453 00000032 859.27 161.05 425.42 627.87 1041.10 438.88 1201.08 401.22 1188.00 521.19 1093.82 645.67 1232.74 615.13
00033454 00000033 857.54 158.17 425.06 630.31 1039.16 441.66 1200.10 401.44 1184.96 520.97 1088.84 646.35 1228.37 614.11
00033455 00000034 856.58 153.65 423.24 637.17 1030.73 441.12 1200.58 400.18 1178.81 521.21 1081.10 646.10 1228.43 613.48
00033456 00000035 844.91 153.81 429.93 635.23 1033.24 442.81 1200.14 406.84 1179.94 522.11 1076.43 653.57 1214.00 624.73
00033457 00000036 840.66 158.71 431.08 634.90 1021.96 442.01 1192.92 403.73 1167.44 525.74 1070.28 655.90 1209.39 624.47
00033458 00000037 834.99 152.04 435.89 643.97 1012.07 442.65 1186.41 405.42 1157.94 525.87 1063.11 656.32 1205.20 625.54
00033459 00000038 828.34 155.87 439.55 639.94 997.51 441.15 1176.82 402.37 1142.61 527.29 1052.77 656.55 1200.06 624.33
00033460 00000039 825.17 158.99 440.99 639.34 992.24 445.45 1167.44 402.33 1134.66 531.43 1050.09 658.58 1196.00 623.14
00033461 00000040 816.57 163.72 443.12 639.32 980.33 444.53 1156.87 397.17 1124.94 532.45 1044.67 661.18 1191.22 622.44
00033462 00000041 810.08 161.39 439.26 641.25 967.61 442.41 1147.59 393.32 1116.69 533.48 1037.84 660.29 1186.82 619.90
00033463 00000042 804.22 161.15 441.24 639.45 958.11 441.99 1137.87 392.18 1106.54 532.31 1031.63 656.53 1182.78 615.82
00033464 00000043 799.40 156.99 442.26 642.28 952.75 443.64 1132.04 393.30 1099.55 528.14 1029.75 655.92 1178.94 614.94
00033465 00000044 795.72 160.71 441.18 635.35 950.24 450.17 1124.37 399.68 1093.39 529.26 1026.02 655.99 1169.41 615.87
00033466 00000045 798.34 163.55 435.28 629.30 950.37 452.10 1121.00 405.36 1088.00 532.36 1021.92 653.86 1164.59 616.79
00033467 00000046 796.55 163.23 435.57 630.11 946.14 451.34 1119.62 404.19 1085.57 533.53 1018.46 653.42 1164.40 615.70
00033468 00000047 793.27 163.74 437.40 631.28 941.70 456.89 1115.62 405.06 1082.77 535.67 1016.51 655.78 1163.61 614.47
00033469 00000048 790.19 164.95 441.17 632.42 937.67 454.34 1115.33 402.16 1081.97 534.05 1015.90 657.25 1165.85 615.24
00033470 00000049 790.29 164.70 441.99 634.23 936.10 452.72 1115.40 400.44 1081.43 533.65 1016.56 658.33 1166.30 616.01
00033471 00000050 788.88 166.94 444.98 634.27 935.21 452.68 1114.74 399.62 1081.54 534.65 1018.26 660.33 1167.08 617.19
00033472 00000051 788.33 169.02 444.72 633.91 935.77 451.97 1115.67 399.48 1082.52 535.27 1018.62 661.34 1166.73 618.47
00033473 00000052 788.97 170.32 444.10 633.19 936.41 452.08 1115.21 399.02 1083.03 537.15 1020.58 662.33 1167.35 619.00
00033474 00000053 790.91 173.62 442.52 632.71 936.65 452.60 1115.89 399.06 1083.01 538.03 1020.35 663.23 1168.82 619.33
00033475 00000054 792.85 170.94 440.78 633.91 938.96 452.36 1118.04 399.35 1084.27 538.04 1021.86 663.01 1168.68 619.65
00033476 00000055 793.29 173.58 440.68 633.24 939.10 453.44 1117.82 398.52 1085.31 537.69 1023.44 664.91 1169.87 620.02
00033477 00000056 795.02 171.26 439.24 634.20 941.93 454.65 1118.13 399.65 1087.24 538.97 1025.44 664.72 1169.68 620.05
00033478 00000057 795.06 169.87 438.56 634.52 943.98 457.84 1119.82 403.97 1088.73 540.11 1024.05 664.25 1168.95 620.78
00033479 00000058 796.56 166.57 435.40 636.89 947.08 465.66 1118.11 410.02 1089.21 541.14 1023.38 664.88 1165.58 620.27
00033480 00000059 799.12 166.35 433.48 638.50 949.72 467.96 1120.93 410.59 1093.20 542.99 1024.65 665.63 1168.82 619.50
00033481 00000060 799.23 174.33 433.28 632.58 945.91 470.97 1121.71 408.31 1094.65 543.06 1026.61 669.54 1174.66 618.50
00033482 00000061 795.68 182.15 440.52 629.30 950.83 463.12 1124.48 401.17 1098.93 536.24 1029.45 667.68 1179.92 615.41
00033483 00000062 795.52 186.32 440.68 627.59 950.05 464.58 1123.51 402.31 1100.14 538.94 1026.29 668.62 1179.75 616.54
00033484 00000063 796.38 189.06 440.86 625.36 950.06 463.27 1125.00 400.53 1101.23 540.27 1025.37 669.01 1180.86 616.53
00033485 00000064 796.16 191.00 441.03 622.90 949.85 461.68 1126.61 399.69 1101.57 540.80 1023.17 667.18 1181.63 615.33
00033486 00000065 796.22 187.04 443.03 624.90 952.21 459.49 1129.36 396.99 1103.08 540.06 1025.82 664.24 1183.36 611.50
00033487 00000066 797.90 184.72 443.30 625.30 954.31 455.38 1132.53 391.35 1106.60 537.01 1026.54 661.13 1185.82 606.71
00033488 00000067 799.12 184.12 440.93 624.82 955.85 453.01 1133.92 390.16 1108.72 534.19 1023.05 658.13 1183.47 605.55
00033489 00000068 797.35 182.14 443.63 624.89 957.00 452.41 1134.84 387.34 1111.90 534.03 1020.94 655.23 1184.39 600.69
00033490 00000069 798.22 179.55 443.99 625.32 958.61 450.84 1136.99 385.55 1115.04 532.37 1020.98 653.87 1184.95 599.14
00033491 00000070 799.44 182.66 445.42 625.76 960.92 450.67 1139.42 387.60 1116.83 534.32 1021.65 654.22 1186.55 601.19
00033492 00000071 802.13 180.35 445.37 631.02 964.96 450.55 1143.13 388.32 1119.63 539.47 1022.99 656.26 1187.08 603.80
00033493 00000072 805.28 180.02 444.39 633.56 967.07 451.89 1145.97 392.56 1119.37 544.36 1026.62 660.88 1186.83 610.55
00033494 00000073 805.66 185.45 444.83 628.89 967.59 450.36 1147.28 393.51 1118.38 544.37 1029.59 663.81 1185.58 615.58
00033495 00000074 806.49 184.30 444.02 630.86 966.56 446.08 1146.88 392.95 1115.73 541.04 1027.84 661.51 1184.25 615.97
00033496 00000075 805.34 185.07 447.20 624.23 964.10 444.28 1146.71 387.50 1114.76 535.99 1028.89 657.48 1188.45 608.45
00033497 00000076 805.15 168.91 440.01 625.93 957.72 446.15 1141.12 394.02 1104.56 537.90 1026.03 653.74 1182.95 610.61
00033498 00000077 804.70 164.13 437.72 628.32 960.08 446.23 1135.31 395.14 1103.24 529.93 1030.28 650.59 1179.47 608.87
00033499 00000078 802.38 162.28 437.51 628.08 959.40 446.22 1131.22 396.40 1100.26 526.20 1030.50 649.33 1175.63 609.08
00033500 00000079 805.01 162.55 433.93 627.57 960.25 443.89 1133.14 394.10 1103.09 525.11 1032.36 649.68 1178.21 609.60
00033501 00000080 809.12 156.90 431.94 633.56 970.39 441.78 1138.67 392.52 1113.97 527.14 1043.53 652.84 1182.57 612.16
00033502 00000081 813.57 163.99 433.66 626.41 973.99 449.27 1143.70 397.92 1118.31 531.44 1047.21 655.09 1186.92 612.55
00033503 00000082 821.48 185.49 430.50 613.17 989.23 451.05 1149.88 393.99 1130.71 532.08 1054.71 656.31 1188.36 607.52
00033504 00000083 818.37 201.24 439.42 608.41 998.08 460.76 1158.75 402.32 1140.90 547.58 1052.11 659.76 1193.32 610.54
00033505 00000084 818.85 208.12 442.88 600.18 1001.20 483.00 1164.05 410.03 1153.89 555.51 1053.34 665.62 1202.56 605.38
00033506 00000085 834.52 208.71 428.36 602.20 1016.33 491.94 1173.09 418.90 1165.39 569.29 1064.06 677.41 1204.96 618.12
00033507 00000086 847.08 214.53 421.23 599.78 1024.90 490.37 1186.56 421.28 1178.38 578.77 1067.56 683.13 1205.88 627.63
00033508 00000087 846.45 213.30 420.06 602.51 1021.92 497.09 1183.60 423.63 1177.06 580.31 1068.14 687.36 1207.16 628.36
00033509 00000088 840.15 210.70 426.59 608.30 1020.54 492.33 1183.37 421.94 1174.50 581.41 1066.17 688.35 1204.86 631.49
00033510 00000089 842.13 201.34 425.43 618.66 1017.37 492.07 1177.13 420.10 1167.10 577.27 1067.03 686.61 1205.29 627.78
00033511 00000090 838.74 198.94 427.86 614.20 1008.66 491.11 1169.63 417.16 1157.75 564.57 1067.75 682.48 1208.50 621.44
00033512 00000091 831.11 203.89 430.69 608.29 999.58 491.06 1159.30 413.59 1152.29 554.85 1060.35 679.05 1203.87 615.89
00033513 00000092 827.72 197.06 434.70 610.43 995.94 480.99 1155.63 406.55 1146.60 543.67 1067.05 672.75 1208.28 610.92
00033514 00000093 823.84 192.50 439.01 612.12 989.21 470.99 1152.12 396.89 1139.92 534.88 1065.84 667.03 1208.86 604.69
00033515 00000094 822.00 182.80 438.99 619.66 986.36 462.51 1148.71 386.28 1138.74 525.15 1067.63 664.00 1206.46 599.32
00033516 00000095 823.33 183.87 436.53 615.87 982.76 460.54 1146.02 382.78 1135.09 520.86 1068.49 664.16 1204.49 598.15
00033517 00000096 819.30 180.60 440.02 620.95 981.26 452.57 1147.44 377.30 1134.50 519.13 1069.52 664.50 1203.04 599.91
00033518 00000097 819.91 181.85 438.70 618.13 979.46 447.94 1145.31 374.21 1131.88 516.09 1068.98 663.93 1199.03 600.81
00033519 00000098 817.50 182.23 438.16 614.13 979.61 443.97 1146.25 371.49 1133.41 513.98 1063.90 659.82 1197.64 597.55
00033520 00000099 812.28 180.03 440.74 610.94 978.11 439.71 1143.13 369.86 1130.22 510.21 1059.27 650.90 1195.52 590.35
00033521 00000100 812.42 176.41 435.95 601.76 963.25 432.80 1137.93 371.56 1117.69 512.92 1051.28 643.07 1196.90 591.32
00033522 00000101 808.94 172.29 436.00 605.79 958.19 430.87 1133.87 371.04 1112.48 508.86 1044.09 637.39 1194.43 587.01
00033523 00000102 805.23 159.37 434.57 616.22 957.08 436.17 1127.70 378.10 1106.40 510.89 1039.89 635.91 1187.82 587.20
00033524 00000103 803.08 159.32 434.07 619.21 957.34 444.57 1128.04 388.15 1103.87 513.33 1034.59 639.29 1182.07 593.34
00033525 00000104 795.31 158.54 438.81 628.67 950.96 447.19 1123.63 392.89 1097.08 519.92 1028.50 646.58 1174.39 602.82
00033526 00000105 790.79 163.94 443.69 629.12 945.59 444.20 1120.59 394.77 1089.92 523.01 1026.69 651.46 1169.73 611.90
00033527 00000106 789.48 167.18 445.61 632.26 941.79 441.55 1117.17 392.05 1085.52 520.73 1027.95 655.92 1168.95 616.33
00033528 00000107 787.39 169.81 447.93 633.07 939.53 441.30 1115.56 392.24 1082.88 522.32 1023.69 656.89 1166.70 617.74
00033529 00000108 786.29 172.87 448.89 632.03 936.36 442.09 1115.14 392.21 1081.20 527.72 1019.65 657.77 1166.94 617.44
00033530 00000109 783.31 176.64 449.68 631.80 931.29 444.69 1112.39 394.06 1076.78 534.46 1012.52 660.07 1163.32 618.89
00033531 00000110 781.17 179.85 450.29 631.86 927.62 447.63 1112.28 396.37 1074.06 539.24 1008.29 662.71 1161.58 620.89
00033532 00000111 780.85 177.13 448.64 634.60 925.80 449.33 1109.76 399.90 1069.55 541.90 1004.22 661.15 1158.29 620.66
00033533 00000112 779.82 178.45 445.67 630.95 922.76 450.66 1106.93 402.42 1064.78 541.92 998.65 658.63 1154.39 619.12
00033534 00000113 780.78 175.86 442.90 631.54 922.88 453.56 1105.87 406.93 1061.44 544.16 994.05 655.82 1151.24 617.78
00033535 00000114 782.00 173.04 439.17 633.94 924.35 459.49 1103.01 411.72 1060.70 543.76 988.84 653.77 1149.19 614.84
00033536 00000115 780.75 168.29 436.85 626.31 924.75 461.99 1100.46 411.49 1060.91 537.84 987.39 646.44 1146.57 605.45
00033537 00000116 771.52 177.83 442.50 619.23 916.07 463.52 1097.74 403.24 1055.88 540.32 982.02 662.88 1136.15 613.13
00033538 00000117 777.52 166.27 441.62 635.01 918.38 451.86 1097.18 403.49 1052.85 531.19 986.93 650.87 1143.38 611.60
00033539 00000118 777.17 158.97 440.14 641.31 919.86 447.77 1092.83 401.72 1052.11 524.86 989.91 651.79 1139.35 614.89
00033540 00000119 776.44 159.45 441.08 636.67 918.44 443.46 1089.57 398.37 1049.48 519.01 989.02 648.20 1137.80 611.79
00033541 00000120 767.82 166.19 441.45 623.46 912.24 444.61 1090.94 391.13 1050.89 521.07 988.72 657.33 1133.82 612.65
00033542 00000121 766.29 161.18 442.09 621.29 911.59 444.36 1090.47 389.39 1051.47 517.90 989.03 652.69 1133.81 606.69
00033543 00000122 767.40 159.42 443.71 622.36 912.19 439.82 1093.89 385.41 1053.75 514.63 989.98 649.98 1137.91 604.33
00033544 00000123 768.32 157.48 446.35 624.94 916.09 432.59 1098.45 381.46 1059.77 507.62 993.20 647.03 1139.28 604.30
00033545 00000124 779.56 151.35 440.21 630.20 922.32 426.68 1096.96 378.37 1060.65 502.43 996.78 635.90 1145.75 596.13
00033546 00000125 782.61 150.49 440.92 624.51 925.01 421.10 1100.42 372.14 1064.37 497.73 1002.16 630.05 1152.31 589.09
00033547 00000126 785.15 152.60 440.75 621.45 926.45 417.01 1103.63 369.72 1064.84 495.83 1002.42 626.67 1153.96 587.23
00033548 00000127 785.22 156.56 444.39 614.74 927.45 413.17 1105.67 366.43 1067.58 489.45 1005.46 623.78 1156.47 584.66
00033549 00000128 786.58 152.60 443.45 614.55 929.23 410.86 1105.72 363.18 1070.43 481.65 1008.85 620.31 1158.48 580.30
00033550 00000129 785.70 151.20 443.29 613.90 930.32 404.08 1106.14 357.78 1071.07 474.24 1008.48 616.16 1157.27 576.99
00033551 00000130 784.37 144.36 444.43 618.76 931.28 400.92 1106.74 354.13 1072.81 468.73 1010.38 613.89 1159.33 574.26
00033552 00000131 785.32 146.03 443.70 616.71 931.44 397.21 1106.50 349.81 1073.31 466.47 1011.29 612.51 1159.61 572.40
00033553 00000132 784.80 143.12 443.78 619.53 931.84 395.23 1105.83 347.48 1073.33 464.29 1011.84 611.49 1158.87 571.19
00033554 00000133 784.94 142.05 443.69 619.25 931.85 392.61 1106.49 344.82 1073.87 462.25 1012.60 609.87 1159.48 569.42
00033555 00000134 785.34 142.83 444.45 618.34 932.52 390.88 1108.42 344.29 1075.31 461.28 1012.29 608.78 1161.31 569.34
00033556 00000135 786.64 140.30 444.09 619.45 934.75 391.15 1111.89 343.37 1079.14 460.10 1014.88 609.90 1163.52 569.70
00033557 00000136 790.51 144.86 443.65 614.17 937.00 390.32 1118.17 343.79 1081.50 463.90 1015.48 610.51 1167.17 571.48
00033558 00000137 794.55 141.15 440.77 619.21 941.05 393.87 1121.86 348.43 1086.70 466.85 1016.66 612.10 1169.11 574.56
00033559 00000138 798.18 138.74 437.64 625.46 946.31 400.85 1123.72 358.25 1091.32 468.50 1016.16 611.68 1169.85 577.66
00033560 00000139 800.60 134.91 435.69 631.39 951.87 407.52 1125.46 365.37 1095.13 472.09 1017.92 610.90 1170.56 577.69
00033561 00000140 803.68 135.99 435.18 632.64 954.74 407.48 1130.96 368.00 1099.49 477.05 1020.20 612.29 1173.75 581.08
00033562 00000141 805.72 136.68 438.22 634.22 956.30 407.97 1134.09 368.98 1102.61 478.26 1024.56 614.12 1179.31 583.02
00033563 00000142 809.29 140.51 434.97 626.39 957.35 408.11 1138.01 367.85 1105.85 482.33 1026.17 615.43 1181.12 583.19
00033564 00000143 810.03 144.55 435.69 623.78 957.73 405.32 1140.69 365.10 1107.03 483.73 1027.74 616.12 1183.87 583.27
00033565 00000144 810.18 147.93 436.73 624.83 958.44 403.82 1139.60 364.27 1104.60 485.88 1028.43 619.61 1180.56 587.11
00033566 00000145 810.41 151.82 436.84 623.58 959.69 403.81 1140.03 364.51 1105.50 488.97 1029.96 622.35 1180.07 590.07
00033567 00000146 810.92 150.28 437.13 623.52 959.97 404.09 1140.66 366.43 1105.08 490.25 1028.81 621.54 1179.70 590.66
00033568 00000147 809.25 151.33 439.53 623.10 960.19 403.55 1142.22 365.36 1106.18 489.01 1028.82 620.75 1181.84 589.31
00033569 00000148 809.63 151.99 439.68 622.17 961.09 403.07 1142.66 365.31 1107.05 489.67 1030.17 620.77 1182.60 589.54
00033570 00000149 810.52 152.27 439.51 621.12 961.61 404.07 1143.44 365.80 1107.36 489.75 1030.75 620.69 1183.17 588.97
00033571 00000150 811.84 152.98 437.93 619.70 962.98 405.07 1144.27 366.71 1108.36 490.45 1031.98 620.96 1183.18 589.23
00033572 00000151 811.80 153.56 437.90 618.45 963.07 405.28 1144.54 368.01 1108.21 492.07 1031.21 621.32 1181.95 590.57
00033573 00000152 812.56 151.42 437.11 620.60 963.87 406.12 1145.43 369.22 1109.09 494.29 1032.13 622.17 1182.59 591.54
00033574 00000153 811.70 150.28 437.70 622.83 963.79 407.50 1144.86 369.70 1109.83 497.24 1031.75 623.56 1181.98 592.42
00033575 00000154 810.54 151.10 438.26 623.55 963.15 409.36 1144.16 370.70 1109.79 498.20 1031.16 625.22 1181.91 593.40
00033576 00000155 810.96 150.77 438.22 627.81 962.57 410.51 1142.91 371.01 1108.64 498.85 1029.84 627.35 1181.13 594.87
00033577 00000156 809.84 152.11 439.74 635.07 962.52 410.73 1141.03 370.81 1108.83 499.24 1028.51 629.63 1181.82 596.49
00033578 00000157 811.08 149.33 438.72 639.38 965.28 411.94 1142.16 372.28 1110.63 496.93 1032.31 629.82 1182.93 597.14
00033579 00000158 812.78 148.85 436.35 637.03 965.53 411.24 1141.39 370.76 1109.70 494.50 1032.47 627.14 1183.10 593.86
00033580 00000159 814.77 149.81 434.95 626.92 965.05 409.92 1143.44 368.50 1110.90 494.23 1032.53 622.94 1184.68 589.20
00033581 00000160 811.72 150.76 436.69 622.97 963.54 410.67 1142.54 368.90 1109.90 492.50 1029.99 620.34 1184.45 586.78
00033582 00000161 812.36 149.81 434.49 621.56 963.65 414.43 1140.80 373.60 1108.28 492.08 1029.95 619.44 1183.66 586.80
00033583 00000162 811.95 144.95 431.83 625.28 966.11 421.12 1139.84 379.64 1107.22 494.66 1028.39 620.99 1181.43 588.10
00033584 00000163 810.04 145.58 434.07 624.42 964.73 421.27 1140.10 380.17 1107.46 494.60 1028.58 621.16 1182.57 588.14
00033585 00000164 810.80 146.36 434.22 626.32 962.73 418.38 1140.62 376.36 1108.11 494.84 1028.74 622.65 1183.50 588.67
