Video ID: 	06OfHD-o_PU
H: 	1080
W: 	1920
FPS: 	25.0

FRAME INDEX X0 Y0 W H [Landmarks (5 Points)]

00002960 00000000 730.58 186.41 419.08 530.49 861.04 345.65 1047.71 338.44 981.05 435.72 889.62 552.29 1052.59 544.01
00002961 DELETE   727.12 192.45 418.45 523.95 854.00 350.17 1040.78 343.82 968.27 435.62 880.53 551.45 1044.81 544.24
00002962 00000002 723.28 193.84 415.94 518.30 848.41 346.83 1034.29 342.85 957.29 433.61 872.34 549.09 1032.19 544.20
00002963 00000003 719.07 191.90 414.10 519.15 841.51 345.86 1024.61 341.87 944.52 430.78 865.00 548.45 1019.47 543.72
00002964 00000004 712.09 195.07 414.59 535.61 819.79 344.72 1005.35 340.35 913.04 432.76 844.01 560.48 994.08 556.35
00002965 00000005 710.42 201.31 411.03 530.84 811.60 342.03 996.16 340.92 901.04 435.08 832.72 559.59 984.60 558.30
00002966 DELETE   707.27 199.43 412.74 530.17 804.59 344.06 991.91 343.56 890.68 438.15 825.28 559.88 977.30 559.43
00002967 00000007 704.53 198.86 412.35 526.78 799.07 345.47 987.14 348.93 880.28 440.51 816.54 556.12 969.88 558.92
00002968 00000008 703.24 196.31 412.82 529.61 796.14 346.06 989.58 338.42 875.19 441.95 812.52 560.95 974.01 554.34
00002969 DELETE   698.04 199.42 412.49 524.97 785.04 349.98 978.21 337.87 857.65 441.16 802.73 564.56 963.45 554.48
00002970 00000010 695.94 193.77 404.48 530.48 777.51 351.06 970.44 350.97 852.34 438.54 795.48 560.17 952.35 559.94
00002971 00000011 694.26 196.86 403.41 527.12 774.64 352.48 965.72 352.64 845.85 439.12 788.94 558.35 949.55 558.27
00002972 00000012 692.39 197.85 401.55 522.71 770.70 353.64 963.23 352.45 839.87 437.21 783.56 559.22 947.78 557.93
00002973 00000013 691.11 192.97 399.71 526.25 767.44 351.91 960.12 351.30 835.10 436.09 777.58 559.24 941.74 558.51
00002974 00000014 685.50 182.17 401.46 539.91 761.45 348.74 954.25 349.86 828.42 434.34 770.46 559.18 933.73 560.23
00002975 00000015 680.73 176.13 410.52 544.90 759.86 349.67 952.64 344.74 823.86 433.59 771.79 563.99 928.00 559.23
00002976 00000016 678.34 175.93 411.56 543.86 759.13 348.52 951.93 344.33 823.91 433.48 770.11 561.27 926.54 557.11
00002977 00000017 676.67 169.69 413.16 550.11 756.62 348.01 950.91 345.38 820.82 433.87 764.74 560.58 923.79 557.81
00002978 00000018 676.50 166.27 413.41 550.81 756.07 347.30 949.50 342.67 820.06 431.57 766.84 560.84 921.73 556.32
00002979 00000019 676.79 163.02 411.72 550.95 755.78 346.35 948.43 338.26 819.73 426.20 767.59 560.44 920.49 553.25
00002980 00000020 677.83 161.78 411.55 553.43 757.07 346.62 949.24 338.00 820.64 425.48 768.66 561.22 920.61 553.66
00002981 00000021 678.69 161.10 411.11 552.58 757.92 344.24 950.68 335.61 821.64 423.97 770.38 560.55 921.68 552.88
00002982 00000022 679.39 158.18 411.61 553.37 758.69 343.34 952.64 334.90 822.00 422.47 770.54 559.34 923.34 551.74
00002983 00000023 680.39 161.27 411.24 548.56 760.30 343.03 953.29 335.84 823.40 422.53 771.88 558.23 924.02 551.71
00002984 00000024 685.86 164.03 402.56 549.17 765.27 340.89 952.82 340.30 831.65 422.94 774.63 550.37 927.84 550.65
00002985 00000025 687.69 171.06 401.99 541.21 765.71 339.26 954.63 338.22 831.75 422.64 775.90 550.88 930.16 550.45
00002986 00000026 687.49 170.94 403.58 544.31 766.61 337.80 956.21 336.89 832.73 421.37 776.21 550.14 931.29 550.00
00002987 00000027 688.73 170.96 403.03 546.79 767.61 337.06 955.95 335.71 833.71 419.75 777.77 550.12 932.29 549.73
00002988 00000028 689.78 168.69 403.04 548.88 769.59 335.69 957.57 334.34 835.10 417.63 779.50 549.41 934.01 549.04
00002989 00000029 691.32 173.16 406.20 544.64 771.84 333.64 959.51 332.51 836.16 416.00 783.06 546.65 935.86 546.07
00002990 00000030 693.15 171.47 405.28 545.09 773.36 331.92 960.23 331.08 836.07 413.83 784.01 545.48 935.63 545.16
00002991 00000031 693.99 165.30 406.40 550.41 775.50 329.82 963.37 328.60 837.80 410.04 785.40 543.86 935.73 543.49
00002992 00000032 695.07 165.02 407.20 548.66 776.67 327.47 964.66 326.27 838.14 406.64 785.54 541.36 937.10 540.98
00002993 00000033 695.74 161.79 406.11 553.09 778.14 325.83 965.44 324.92 839.66 403.50 786.55 539.91 937.55 539.69
00002994 00000034 695.40 159.61 406.36 558.57 778.95 325.98 965.60 325.03 839.22 402.25 787.76 539.70 939.05 539.32
00002995 00000035 695.93 159.05 405.85 560.41 778.66 324.34 966.00 322.94 838.50 399.04 785.68 538.43 939.24 537.67
00002996 00000036 695.80 155.48 406.36 565.59 779.52 324.04 965.42 322.22 837.29 394.45 784.52 536.94 938.51 535.96
00002997 00000037 696.34 152.05 405.50 569.26 780.97 323.01 965.71 322.36 837.28 392.57 784.91 535.30 938.53 535.30
00002998 00000038 695.90 154.75 406.69 567.97 781.87 322.84 965.33 321.21 836.67 389.93 784.26 534.55 938.22 533.72
00002999 00000039 696.08 151.63 406.43 571.07 783.19 320.79 965.48 318.99 837.46 386.00 783.23 532.52 937.78 531.86
00003000 00000040 696.41 154.53 406.04 568.54 783.25 320.91 964.39 319.25 837.59 387.14 783.66 532.48 937.43 531.94
00003001 00000041 696.32 155.22 406.04 569.41 782.48 321.44 964.17 320.22 837.32 388.84 783.56 533.58 937.56 533.34
00003002 00000042 695.77 155.84 407.02 571.13 781.06 322.13 964.31 321.12 836.56 390.71 783.19 535.44 938.26 535.16
00003003 00000043 694.47 156.63 408.74 572.98 778.47 322.40 964.10 321.44 834.40 392.79 782.76 540.03 937.27 539.51
00003004 00000044 694.98 165.18 406.30 564.99 776.82 324.73 961.96 324.51 834.03 400.62 782.59 543.25 936.81 543.13
00003005 00000045 694.34 165.19 406.56 564.88 775.58 327.24 961.87 326.55 834.21 404.05 782.27 545.68 937.27 545.36
00003006 00000046 694.56 168.07 405.82 559.71 775.49 328.47 961.45 327.55 834.85 407.18 784.03 545.90 937.31 545.44
00003007 00000047 694.63 166.83 405.17 555.27 776.40 328.72 962.97 329.32 837.18 408.29 783.13 542.43 937.93 543.40
00003008 00000048 695.46 167.65 405.11 546.43 777.46 329.68 964.10 331.29 837.69 409.98 780.60 538.54 938.14 540.63
00003009 00000049 695.41 175.58 405.01 535.19 776.38 332.18 968.45 335.05 838.91 413.26 775.80 538.49 948.39 541.41
00003010 00000050 694.35 173.83 406.87 537.00 776.93 331.33 969.48 335.48 839.22 413.36 774.79 535.23 951.09 539.19
00003011 00000051 694.00 173.67 407.51 536.58 776.35 331.78 969.03 335.47 839.14 413.65 774.28 534.55 951.88 538.01
00003012 00000052 694.01 173.78 406.83 537.88 776.80 332.04 969.17 336.71 839.75 415.60 774.70 534.64 951.88 538.88
00003013 00000053 693.66 172.59 405.98 543.15 775.66 335.16 969.07 337.88 840.08 416.28 775.78 540.55 950.61 543.21
00003014 00000054 692.96 171.06 406.88 553.60 774.17 335.47 963.56 337.08 839.85 418.20 782.45 547.17 941.01 549.22
00003015 00000055 692.37 171.17 406.81 551.69 774.17 337.04 964.08 338.81 839.61 419.03 781.91 547.39 943.53 549.35
00003016 00000056 692.43 170.45 406.25 548.30 774.39 337.73 965.29 338.25 839.64 418.69 781.55 545.41 945.05 546.10
00003017 00000057 691.86 171.90 406.06 545.55 773.26 336.78 966.04 338.64 839.54 418.14 778.28 544.27 948.31 545.95
00003018 00000058 692.74 172.89 404.39 540.62 773.71 337.89 965.24 339.18 839.82 419.74 780.06 543.96 947.36 545.14
00003019 00000059 690.70 169.89 406.54 540.58 772.93 338.57 958.62 340.46 840.26 420.30 781.18 541.18 935.11 543.37
00003020 00000060 689.97 169.34 405.51 542.13 771.47 340.48 957.40 342.40 839.31 420.55 777.56 542.46 935.03 544.75
00003021 00000061 688.73 171.30 405.41 541.15 770.10 341.96 955.73 342.64 838.39 420.46 777.88 542.75 933.63 544.18
00003022 00000062 688.41 170.72 405.70 542.22 769.24 341.51 954.52 342.74 837.31 420.58 775.91 542.04 932.42 543.93
00003023 00000063 687.85 172.24 405.72 541.32 767.57 341.63 952.10 342.51 835.03 420.59 774.49 542.46 930.46 544.00
00003024 00000064 687.20 170.90 403.34 546.02 766.64 343.27 950.54 343.74 832.81 420.76 773.76 543.40 928.09 544.73
00003025 00000065 686.38 169.75 403.93 556.30 764.44 343.87 949.91 342.46 830.86 420.19 773.06 549.66 926.12 549.58
00003026 00000066 684.53 166.80 404.83 567.28 762.81 344.66 951.28 342.49 829.17 422.17 774.50 557.50 930.15 556.34
00003027 00000067 683.90 158.71 408.60 584.62 766.16 350.09 952.58 338.08 828.00 426.56 777.11 570.30 933.40 560.24
00003028 00000068 683.83 164.86 403.64 574.47 762.99 345.93 952.10 342.83 827.17 422.31 775.30 561.97 934.70 559.66
00003029 00000069 684.64 165.21 403.44 570.32 764.02 345.19 956.77 343.03 829.56 423.19 772.55 559.56 939.38 558.16
00003030 00000070 682.83 164.32 407.99 564.07 764.00 346.03 957.87 339.48 827.91 423.56 773.01 561.23 936.65 555.42
00003031 00000071 684.68 166.50 403.03 565.04 765.26 342.33 957.27 340.91 830.99 423.32 773.68 555.53 940.84 554.71
00003032 00000072 684.13 169.66 404.57 562.21 765.01 340.72 956.38 338.35 831.17 421.98 775.51 554.81 940.46 553.03
00003033 00000073 684.53 169.26 405.19 565.84 764.67 341.95 955.56 339.53 829.58 421.57 775.24 556.21 939.69 554.27
00003034 00000074 686.02 169.69 403.71 565.82 763.76 339.84 951.84 336.05 831.08 417.72 777.00 558.14 930.12 555.45
00003035 00000075 686.49 171.03 404.72 560.48 765.47 339.39 952.71 335.51 833.97 416.34 779.32 554.57 929.07 552.03
00003036 00000076 686.88 172.73 405.15 552.35 766.07 342.34 953.30 337.66 835.28 417.61 780.87 554.56 929.84 551.39
00003037 00000077 687.83 171.26 405.58 549.94 767.84 343.20 955.97 338.21 837.77 418.08 782.17 554.01 932.38 550.73
00003038 00000078 688.66 171.65 404.37 547.35 768.93 342.46 956.13 337.64 838.10 417.62 783.14 551.74 933.82 548.49
00003039 00000079 690.51 170.72 401.97 546.61 771.43 346.82 957.29 341.50 839.78 417.89 786.23 549.90 935.85 546.27
00003040 00000080 690.64 170.84 400.42 548.10 771.56 347.64 956.51 342.10 841.60 418.31 787.24 549.96 935.64 546.14
00003041 00000081 689.76 170.25 403.78 548.35 771.50 346.35 956.05 341.60 841.32 416.74 786.83 550.08 934.75 547.02
00003042 00000082 690.29 170.66 404.53 549.64 771.65 345.17 958.35 340.80 841.80 416.78 787.55 551.18 935.88 548.45
00003043 00000083 691.07 168.14 404.92 553.79 772.56 344.30 959.35 340.42 842.48 416.64 788.59 551.71 936.81 549.40
00003044 00000084 691.24 169.55 405.02 552.40 772.76 342.36 961.08 338.32 843.32 417.42 788.92 552.98 937.49 550.49
00003045 00000085 694.22 172.12 403.69 546.56 776.07 347.11 966.41 344.27 848.22 421.68 790.56 550.63 947.02 549.07
00003046 00000086 695.25 167.09 402.20 553.08 777.69 345.08 967.33 343.66 848.85 420.44 790.37 548.68 946.34 548.29
00003047 00000087 695.37 174.39 402.87 548.76 777.27 341.75 966.84 340.81 847.07 421.36 791.35 550.29 948.02 549.87
00003048 00000088 694.59 169.68 403.28 555.38 778.57 343.89 967.50 343.01 846.85 421.41 791.34 551.54 950.93 551.03
00003049 00000089 693.90 172.14 402.82 549.43 777.86 348.26 969.74 345.58 849.38 424.95 792.23 556.16 954.16 554.06
00003050 00000090 693.27 175.29 404.45 537.17 778.92 347.86 969.99 346.48 852.49 427.17 793.01 550.48 955.76 549.22
00003051 00000091 692.57 172.92 404.10 541.25 779.04 349.65 969.96 347.57 853.66 427.06 794.23 551.02 956.93 549.16
00003052 00000092 692.98 171.74 402.98 546.88 779.27 348.98 970.44 346.73 854.80 426.11 795.61 552.30 958.55 550.39
00003053 00000093 691.67 173.57 404.02 545.48 780.30 349.67 970.05 346.96 857.55 426.26 799.73 553.05 960.49 550.51
00003054 00000094 691.95 182.87 400.77 536.17 782.36 352.22 972.79 347.52 863.02 428.96 804.86 554.21 965.08 549.61
00003055 00000095 695.27 184.98 403.38 529.02 790.34 356.33 984.38 349.90 876.33 430.60 815.90 553.53 978.07 547.80
00003056 DELETE   698.47 196.80 413.49 512.78 804.90 355.51 992.81 348.14 896.39 429.51 834.16 551.05 991.18 544.65
00003057 00000097 707.23 183.28 407.81 519.85 820.05 354.78 1005.22 343.07 919.38 426.70 851.59 550.75 1004.80 539.56
00003058 DELETE   708.61 164.41 411.66 537.71 831.61 349.81 1018.59 337.96 944.79 423.50 859.84 545.40 1023.09 533.45
00003059 DELETE   711.90 154.94 410.27 546.09 838.71 346.43 1026.41 334.43 956.55 419.98 867.65 544.19 1030.74 531.73
00003060 00000100 721.61 149.74 402.81 557.33 847.36 341.93 1033.13 329.58 963.52 410.59 877.55 548.71 1031.65 536.51
00003061 00000101 725.79 152.95 400.53 558.67 847.98 339.59 1030.71 328.87 957.56 409.57 872.52 546.23 1026.62 536.18
00003062 00000102 730.23 155.61 399.11 556.21 848.96 335.20 1030.78 329.62 951.73 406.71 866.51 541.64 1021.90 536.28
00003063 00000103 732.30 156.28 397.33 551.76 848.97 329.34 1032.25 328.03 945.74 401.96 860.18 537.13 1015.86 535.70
00003064 00000104 731.98 157.25 396.94 548.78 846.72 328.61 1029.75 329.69 937.08 399.16 853.28 534.41 1008.56 535.43
00003065 00000105 731.04 156.67 395.89 556.35 836.70 330.91 1023.08 336.38 915.48 403.14 836.75 536.29 998.28 541.48
00003066 00000106 731.96 162.70 396.88 552.03 835.12 327.61 1019.73 335.56 907.54 407.27 832.75 533.79 992.36 541.19
00003067 00000107 732.74 174.13 395.78 549.89 832.88 331.56 1017.12 337.49 905.70 413.22 831.57 542.83 990.26 549.13
00003068 00000108 735.68 184.65 396.00 547.09 838.01 336.09 1020.00 340.79 913.20 417.27 835.50 547.90 996.21 553.38
00003069 00000109 741.81 183.67 397.13 552.70 849.04 334.76 1033.07 341.12 929.55 418.22 845.45 550.29 1008.54 556.63
00003070 00000110 759.52 187.18 390.07 536.52 868.24 327.73 1053.08 342.37 962.54 428.05 874.34 536.31 1036.84 548.08
00003071 DELETE   764.95 190.08 399.58 524.23 885.05 326.51 1070.98 346.16 980.66 424.05 890.57 531.84 1046.86 546.92
00003072 00000112 768.52 186.27 404.65 521.10 896.98 328.40 1083.97 348.94 996.50 419.20 903.46 529.76 1059.00 545.21
00003073 00000113 769.75 186.91 406.82 516.69 900.56 330.21 1091.13 351.46 1003.74 420.87 907.36 531.77 1064.48 547.60
00003074 00000114 770.95 186.89 407.70 515.71 900.61 331.56 1092.96 354.65 1001.41 420.90 903.75 532.08 1063.66 549.69
00003075 00000115 771.68 195.55 405.94 507.56 892.65 332.03 1082.39 355.93 979.81 428.73 890.42 532.95 1046.82 551.71
00003076 00000116 770.29 193.60 406.20 512.89 889.62 336.70 1075.84 362.37 970.93 433.00 880.77 533.65 1039.53 554.31
00003077 00000117 767.96 196.11 407.04 510.18 885.30 336.76 1070.68 362.88 963.35 433.00 877.25 532.37 1035.10 553.26
00003078 00000118 768.45 196.29 405.49 510.56 882.98 336.92 1068.12 361.56 960.56 433.21 876.05 533.50 1033.10 553.21
00003079 00000119 770.58 194.39 404.79 517.10 884.46 340.90 1069.76 366.74 960.61 437.02 875.99 536.60 1032.73 557.88
00003080 00000120 770.03 197.99 407.75 530.14 893.51 340.00 1082.70 370.68 979.02 444.18 884.08 547.44 1039.36 572.86
00003081 00000121 770.40 202.98 411.57 535.12 903.91 343.11 1095.44 360.67 999.61 439.87 900.27 559.26 1055.41 573.10
00003082 00000122 771.23 207.38 412.24 533.29 912.61 346.76 1102.93 369.67 1012.15 450.07 906.34 561.92 1060.71 579.78
00003083 00000123 766.70 191.21 412.97 538.29 911.38 348.61 1101.11 373.97 1021.33 452.50 908.99 558.86 1068.59 579.53
00003084 DELETE   766.32 188.33 413.26 532.34 907.90 344.30 1099.51 366.51 1019.10 447.68 908.90 551.22 1071.73 568.82
00003085 00000125 758.91 187.58 413.90 530.90 887.53 339.92 1082.98 358.73 994.51 442.13 891.97 549.58 1058.03 563.75
00003086 DELETE   752.69 183.13 414.30 537.95 874.09 335.13 1071.38 351.10 976.66 438.01 879.05 546.60 1048.73 558.52
00003087 DELETE   746.76 180.66 415.76 541.78 860.62 327.30 1058.47 341.15 957.92 433.51 864.21 542.34 1037.25 552.42
00003088 00000128 736.19 176.24 422.68 548.53 854.32 334.06 1053.31 345.23 948.13 429.57 854.57 545.73 1031.50 554.30
00003089 DELETE   727.35 177.02 427.68 548.55 843.48 336.86 1041.70 350.71 930.78 435.72 843.02 548.35 1016.13 558.78
00003090 00000130 721.00 182.63 428.76 546.20 825.55 329.18 1023.88 345.58 899.59 433.43 823.41 552.02 980.92 564.99
00003091 00000131 717.08 181.42 424.94 551.58 821.59 332.01 1019.93 349.69 896.56 438.52 819.51 556.22 974.35 570.23
00003092 00000132 716.51 183.27 423.29 555.33 821.57 333.44 1022.37 351.53 898.69 444.21 819.41 561.16 977.61 575.25
00003093 00000133 716.86 197.96 424.66 546.11 828.17 335.77 1028.81 345.13 910.42 440.71 827.83 561.74 992.81 569.51
00003094 00000134 717.88 199.66 427.44 543.66 834.49 342.49 1032.60 351.97 920.60 445.71 834.08 563.53 997.83 570.81
CROP_BBOX: 431 0 1449 928
