Video ID: 	smtTCwj_BLc
H: 	1080
W: 	1920
FPS: 	25.0

FRAME INDEX X0 Y0 W H [Landmarks (5 Points)]

00001880 00000000 673.96 269.81 349.95 530.92 706.86 444.46 834.02 462.32 707.23 562.30 696.91 657.17 806.20 672.44
00001881 00000001 674.43 271.13 347.94 527.66 706.75 447.07 832.86 462.74 707.15 561.15 696.10 657.80 805.84 671.31
00001882 00000002 673.36 270.58 350.51 527.10 706.45 446.18 832.85 463.68 705.57 560.79 695.38 655.19 804.36 670.15
00001883 00000003 671.81 271.77 352.61 521.45 705.17 445.99 832.23 463.81 703.99 561.09 693.46 653.47 802.53 668.78
00001884 00000004 671.43 269.87 352.54 523.79 703.89 446.39 831.30 463.98 701.41 561.06 692.57 653.34 802.57 668.40
00001885 00000005 670.30 276.35 353.22 517.79 702.21 449.07 830.52 466.98 699.28 562.88 691.76 654.90 800.25 670.20
00001886 00000006 670.02 276.65 353.12 518.28 700.98 448.81 829.20 467.99 696.52 567.28 691.42 655.82 801.32 672.06
00001887 00000007 668.73 282.60 352.28 512.85 699.84 450.75 828.22 470.33 694.08 568.12 690.06 656.70 798.76 673.27
00001888 00000008 667.27 281.74 351.98 514.22 698.93 451.71 827.30 471.92 694.52 570.22 689.90 657.12 799.70 674.11
00001889 00000009 668.49 280.26 350.26 515.88 699.12 451.67 827.47 471.63 694.98 570.56 690.47 657.19 800.46 674.03
00001890 00000010 668.42 278.38 353.51 517.02 698.77 451.02 828.25 471.30 695.62 571.69 690.54 657.62 801.54 674.62
00001891 00000011 668.68 277.52 354.04 518.30 700.42 449.91 829.60 470.18 698.42 570.70 690.99 656.85 802.80 673.81
00001892 00000012 669.29 276.31 355.31 522.65 701.90 448.01 832.52 468.74 700.04 571.33 692.65 658.96 806.29 676.35
00001893 00000013 671.56 284.84 353.00 527.33 707.83 447.59 836.41 468.56 704.33 569.36 698.18 663.51 809.62 680.67
00001894 00000014 672.95 282.16 354.57 537.04 714.07 449.83 842.84 469.57 713.18 568.58 704.03 666.67 815.63 682.63
00001895 00000015 674.18 280.33 352.21 538.60 718.65 453.29 850.75 470.14 722.14 567.47 709.66 669.17 824.68 682.83
00001896 00000016 677.13 284.18 351.08 536.94 724.31 452.70 856.25 471.38 726.82 567.98 716.00 668.77 830.72 683.73
00001897 00000017 678.46 282.74 351.41 537.82 726.13 456.71 861.38 471.20 731.66 567.53 718.37 671.68 832.35 683.43
00001898 00000018 679.53 289.30 355.28 533.96 713.06 459.02 861.23 473.42 725.72 572.72 719.56 679.47 839.42 691.37
00001899 00000019 681.75 281.63 360.78 543.16 720.60 460.98 874.46 475.46 739.56 571.60 722.81 680.30 850.88 692.57
00001900 DELETE   686.54 279.04 365.64 546.27 731.58 459.24 891.55 479.63 756.24 574.93 726.34 675.63 866.03 692.75
00001901 DELETE   695.76 289.54 363.94 531.66 746.72 458.66 904.20 477.73 774.97 571.72 746.19 677.63 876.83 693.17
00001902 DELETE   701.00 278.83 366.36 539.13 755.78 458.91 916.11 474.45 791.55 570.99 761.53 680.17 887.75 692.72
00001903 00000023 704.68 284.61 365.32 528.61 763.52 460.35 925.91 472.39 808.83 572.48 773.43 681.98 900.82 691.84
00001904 00000024 704.04 281.79 369.55 531.29 769.38 460.52 932.51 471.85 821.25 574.13 784.24 681.37 910.49 690.17
00001905 DELETE   705.15 268.84 371.19 541.47 774.35 463.02 940.24 468.14 832.71 572.15 792.47 683.40 922.74 687.50
00001906 00000026 707.92 279.28 374.49 530.06 778.07 464.25 948.68 468.74 841.71 572.62 797.39 685.03 931.93 688.28
00001907 00000027 706.84 276.98 379.96 534.51 780.31 464.51 954.39 466.78 850.77 572.56 802.35 685.53 940.02 686.99
00001908 00000028 695.34 267.21 388.78 548.70 781.67 469.88 955.90 466.52 852.72 571.98 801.85 682.73 942.27 680.40
00001909 00000029 706.20 271.71 380.46 535.31 784.61 466.44 959.56 467.19 858.46 573.29 805.91 684.68 945.78 685.40
00001910 00000030 705.90 266.82 381.40 537.83 784.26 466.73 960.57 466.49 858.11 573.17 805.23 683.77 946.83 683.95
00001911 00000031 706.17 270.87 381.56 529.59 784.50 465.58 961.69 465.52 860.27 572.13 805.01 682.89 948.39 683.19
00001912 00000032 706.45 267.98 381.87 531.67 784.70 464.85 963.56 464.45 860.98 572.00 805.20 682.38 950.31 682.48
00001913 00000033 708.37 270.24 379.65 527.83 786.07 464.28 964.48 464.97 862.12 571.80 804.80 681.65 951.16 682.59
00001914 00000034 707.48 270.04 380.65 529.71 785.63 464.10 964.30 464.61 861.19 572.07 805.70 682.61 950.38 683.29
00001915 00000035 695.38 270.89 388.58 545.56 784.17 468.26 961.39 465.70 857.24 570.15 803.27 680.10 946.66 678.73
00001916 00000036 700.70 280.91 386.55 539.22 785.31 466.84 959.59 469.11 853.12 573.43 802.95 681.13 942.39 682.51
00001917 00000037 701.92 276.98 386.83 546.95 786.08 466.51 959.26 469.64 853.14 574.63 803.64 679.89 942.75 682.06
00001918 00000038 696.86 267.35 389.20 560.79 786.24 467.68 960.10 466.96 857.21 573.94 802.90 683.39 943.87 683.82
00001919 00000039 703.18 278.55 383.51 551.35 787.58 465.66 959.53 469.19 855.43 574.65 805.11 679.12 942.14 681.92
00001920 00000040 703.73 283.80 383.44 547.95 787.62 465.96 958.04 468.94 855.08 574.08 805.01 679.03 942.52 681.48
00001921 00000041 701.62 279.99 384.26 549.94 787.04 466.28 957.44 469.75 854.38 574.83 804.18 678.59 941.77 681.23
00001922 00000042 696.30 268.01 387.81 554.38 784.51 470.01 957.80 466.97 855.71 573.32 804.36 682.72 945.66 680.85
00001923 00000043 695.78 269.20 385.73 545.67 783.00 470.53 956.55 467.75 853.48 572.13 802.42 680.68 944.02 678.87
00001924 00000044 704.77 274.45 382.63 526.75 786.49 467.73 962.54 467.91 863.22 574.46 807.00 683.08 951.75 683.10
00001925 00000045 702.95 269.21 382.08 525.73 784.67 467.75 963.94 468.42 863.12 574.17 804.63 680.79 952.85 681.61
00001926 00000046 701.94 268.80 382.59 526.68 784.59 467.84 964.51 467.34 865.42 574.37 805.80 680.57 953.82 680.41
00001927 00000047 700.47 268.21 383.58 530.64 783.91 468.25 963.94 467.57 866.42 575.73 806.98 682.00 952.91 681.59
00001928 00000048 701.48 273.55 382.17 526.10 784.33 468.97 963.25 467.57 867.13 575.83 808.28 682.35 953.71 681.22
00001929 00000049 700.08 276.00 384.97 529.45 784.80 468.95 963.73 466.83 868.21 576.66 811.01 683.62 956.02 681.50
00001930 00000050 693.04 273.72 387.57 535.41 786.19 473.90 962.56 467.72 864.52 573.68 809.97 678.24 953.45 673.46
00001931 00000051 692.76 264.82 387.94 542.43 787.41 477.90 963.58 470.74 867.99 575.28 812.23 677.86 958.30 672.09
00001932 00000052 694.86 253.63 388.25 556.03 788.69 478.89 963.92 471.89 868.89 576.23 812.73 679.11 958.42 673.37
00001933 00000053 694.39 246.71 388.57 571.85 787.76 477.07 961.77 472.18 866.93 574.95 811.68 681.14 955.46 677.24
00001934 00000054 697.01 241.77 386.47 586.87 786.70 473.98 959.02 470.90 861.97 573.08 808.21 683.48 952.18 681.10
00001935 00000055 696.68 244.16 383.38 580.30 785.82 474.58 956.55 469.16 860.78 572.06 809.21 685.28 946.86 681.59
00001936 00000056 695.78 241.25 384.26 575.58 783.24 474.99 955.89 468.86 860.37 571.55 808.10 684.65 945.89 679.91
00001937 00000057 694.61 242.13 383.93 569.14 780.90 476.25 953.52 469.99 857.54 573.63 803.95 686.50 944.31 681.51
00001938 00000058 699.07 245.96 381.62 555.39 778.73 472.42 956.73 467.68 858.34 576.15 806.31 689.11 945.96 685.79
00001939 00000059 697.75 252.62 383.14 547.29 777.14 476.57 952.04 471.57 855.09 576.37 803.41 686.20 943.60 682.41
00001940 00000060 695.47 254.65 378.65 545.01 770.62 479.78 941.57 474.76 845.65 578.80 797.25 685.35 937.46 681.35
00001941 00000061 696.31 277.37 374.71 522.83 764.35 479.97 938.32 475.91 835.62 579.33 788.08 686.97 929.02 683.72
00001942 00000062 692.71 289.54 376.26 520.00 760.08 479.44 930.56 474.23 827.14 576.16 788.06 688.94 924.33 683.90
00001943 00000063 690.77 288.16 367.23 527.47 754.40 481.80 918.01 472.02 811.64 577.83 779.33 692.31 913.72 683.46
00001944 DELETE   687.35 294.15 376.88 519.29 751.13 493.62 917.29 479.02 812.96 576.46 778.98 687.56 917.79 674.34
00001945 00000065 677.39 289.03 380.18 527.90 735.42 485.33 902.38 475.10 793.79 584.76 765.09 696.98 902.39 689.93
00001946 00000066 674.97 294.03 382.13 527.95 726.81 483.87 898.01 475.09 789.18 589.69 755.30 700.19 894.96 694.55
00001947 00000067 672.83 304.45 381.28 516.17 720.32 485.39 890.77 478.52 778.72 595.06 751.03 704.54 887.63 700.40
00001948 DELETE   674.29 296.66 374.83 531.49 728.74 501.67 889.85 486.23 781.22 589.61 754.38 701.82 886.58 689.87
00001949 00000069 669.56 306.17 372.38 530.39 727.76 502.83 880.07 489.38 776.20 587.14 752.70 697.71 879.14 688.19
00001950 00000070 665.84 303.25 372.41 526.47 722.16 505.47 871.67 494.38 770.24 589.87 747.72 693.73 874.27 685.81
00001951 00000071 663.10 305.92 369.07 523.56 714.86 502.06 862.86 493.75 757.65 590.16 738.53 692.09 865.26 687.39
00001952 00000072 661.26 303.25 366.55 529.58 711.38 501.86 855.87 493.86 750.79 591.08 735.08 691.72 864.58 687.09
00001953 00000073 654.29 298.27 371.50 534.08 703.92 498.08 852.19 488.69 747.38 591.39 732.50 694.44 860.76 688.43
00001954 00000074 650.51 295.25 374.79 526.21 696.46 497.44 851.37 488.30 742.83 595.81 727.04 694.96 858.67 688.71
00001955 00000075 648.62 291.21 376.94 527.32 687.44 492.10 850.67 479.47 736.30 605.03 722.47 704.30 857.88 693.01
00001956 00000076 651.25 294.74 376.30 519.64 696.30 491.78 855.75 480.96 747.37 599.92 731.76 705.44 860.78 694.19
00001957 00000077 648.89 298.23 374.38 524.04 685.04 493.26 851.08 479.23 737.39 607.59 721.89 710.27 855.24 697.78
00001958 00000078 647.75 299.92 373.99 525.21 693.56 498.70 847.84 487.93 740.84 599.77 723.68 699.61 854.07 692.09
00001959 00000079 647.99 293.39 378.07 529.29 685.90 496.61 849.19 480.85 736.07 608.80 726.05 711.45 856.53 697.77
00001960 00000080 650.27 295.20 376.03 527.19 686.56 496.41 850.23 480.49 735.94 609.26 727.09 712.80 858.45 698.77
00001961 00000081 648.89 304.08 373.31 524.19 693.79 499.06 848.86 489.20 740.03 602.79 723.71 703.55 856.14 696.72
00001962 00000082 648.82 310.03 375.40 520.69 696.86 500.28 849.38 489.84 744.40 600.97 728.44 702.21 854.11 695.25
00001963 00000083 649.62 310.38 375.45 525.01 697.57 500.29 850.10 489.86 744.69 600.70 728.05 706.24 851.98 699.45
00001964 00000084 652.20 307.76 373.96 527.46 698.22 501.85 851.26 491.51 744.25 602.43 727.98 708.26 852.29 701.73
00001965 00000085 654.89 304.28 371.13 528.51 698.23 500.68 852.86 490.30 744.96 602.05 726.60 709.80 850.36 703.26
00001966 00000086 655.13 302.61 371.57 530.28 699.08 501.03 853.16 490.29 746.41 601.90 727.50 711.01 850.32 704.27
00001967 00000087 655.72 303.43 371.83 532.02 700.59 502.57 853.49 491.38 747.41 602.34 728.21 712.09 849.17 705.06
00001968 00000088 655.63 303.24 371.29 532.55 700.55 502.99 854.00 489.70 748.91 601.47 730.01 714.54 849.92 705.95
00001969 00000089 654.52 305.44 374.67 533.92 703.55 505.62 855.20 491.44 751.44 600.86 734.43 713.46 852.50 703.84
00001970 00000090 655.67 318.76 374.31 530.90 710.05 510.67 857.99 492.09 760.37 599.77 745.16 717.00 858.43 703.60
00001971 00000091 654.54 316.31 382.32 541.00 714.83 512.14 865.47 490.13 772.67 602.33 754.56 720.28 871.45 703.36
00001972 DELETE   658.66 318.38 386.59 539.13 725.48 516.65 875.20 487.86 789.74 600.03 770.93 718.06 891.62 694.89
00001973 DELETE   658.40 309.40 396.24 547.44 734.61 522.64 889.52 487.94 808.51 601.30 789.74 724.52 913.00 695.33
00001974 DELETE   659.47 307.08 397.31 545.61 739.36 526.82 899.34 492.74 822.23 604.23 797.06 726.90 923.08 697.47
00001975 00000095 660.20 309.24 396.28 541.24 738.26 528.33 901.38 492.59 823.30 606.36 797.92 730.45 925.20 699.71
00001976 00000096 657.40 310.26 396.45 536.20 737.40 527.26 899.72 493.67 822.94 605.99 796.99 730.15 920.84 701.55
00001977 00000097 656.52 310.98 393.58 535.64 736.24 525.14 900.94 492.69 822.40 603.94 795.02 729.74 919.94 702.03
00001978 00000098 654.48 317.95 393.71 529.52 737.43 523.70 899.18 494.17 820.95 607.11 793.89 725.94 915.49 701.01
00001979 00000099 650.80 311.21 398.96 540.84 735.11 527.94 897.31 496.03 821.33 612.23 792.53 726.66 921.71 699.24
00001980 00000100 651.55 309.09 396.67 542.90 733.15 533.00 897.60 497.31 821.59 616.71 791.96 729.51 926.96 698.77
00001981 00000101 651.50 308.57 395.93 541.32 733.16 534.88 898.64 500.49 823.39 621.84 792.46 730.35 927.47 700.82
00001982 00000102 650.59 301.58 396.65 547.65 730.49 537.58 896.91 502.62 821.85 626.19 789.29 730.95 928.32 700.95
00001983 00000103 651.21 301.57 397.49 549.67 729.95 539.88 896.02 503.53 821.68 630.34 789.78 732.84 930.30 701.63
00001984 00000104 652.14 309.11 396.45 546.05 731.47 540.87 897.05 502.91 823.34 631.27 794.07 736.11 932.73 703.46
00001985 00000105 650.63 311.35 398.65 555.76 731.11 539.65 895.83 502.40 820.77 629.28 793.65 738.44 931.59 706.40
00001986 00000106 650.42 315.48 398.88 554.00 732.62 539.80 896.18 502.56 822.68 629.69 795.94 739.60 931.60 707.76
00001987 00000107 648.82 320.60 401.39 542.31 732.93 540.62 896.71 504.08 825.30 630.76 798.22 739.65 930.77 708.24
00001988 00000108 649.26 318.59 400.88 544.80 733.24 543.34 897.76 505.86 827.70 634.08 798.12 741.98 931.24 709.63
00001989 00000109 649.00 317.41 401.58 541.39 733.36 547.45 898.36 508.43 828.68 635.84 799.37 743.97 930.63 710.25
CROP_BBOX: 428 27 1308 995
