Video ID: 	x_UjNZC_rg8
H: 	2160
W: 	3840
FPS: 	23.976023976023978

FRAME INDEX X0 Y0 W H [Landmarks (5 Points)]

00084622 00000000 805.61 282.82 613.61 919.63 1180.15 630.42 1337.58 616.60 1416.07 748.73 1231.27 947.02 1352.50 939.61
00084623 00000001 805.13 285.05 612.75 889.01 1169.28 625.81 1340.43 606.99 1400.12 741.55 1249.38 937.06 1374.43 925.08
00084624 00000002 800.66 268.09 632.13 877.59 1175.32 614.43 1347.63 590.07 1406.34 734.55 1285.70 930.31 1404.15 913.65
00084625 00000003 819.81 275.24 619.38 854.62 1174.26 616.79 1357.52 585.33 1413.76 725.81 1305.03 926.11 1424.37 902.38
00084626 DELETE   824.47 275.33 624.25 869.81 1186.05 610.48 1355.03 582.88 1428.17 718.43 1309.81 927.93 1422.02 906.96
00084627 DELETE   823.70 271.47 639.93 905.67 1214.74 594.54 1338.22 576.34 1444.97 719.61 1300.23 938.80 1391.52 925.81
00084628 00000006 842.44 267.39 630.57 915.90 1230.16 595.11 1336.19 572.50 1457.31 716.26 1307.59 940.13 1390.85 924.10
00084629 00000007 838.79 272.53 634.30 881.16 1231.48 604.35 1360.95 574.39 1465.32 723.93 1315.50 934.41 1403.00 913.27
00084630 00000008 835.94 280.93 644.05 849.31 1234.23 607.37 1363.95 576.77 1466.83 730.09 1323.39 930.43 1413.93 909.14
00084631 00000009 832.66 288.17 645.79 835.87 1233.57 608.46 1366.27 576.46 1464.67 734.81 1321.64 931.55 1414.83 909.12
00084632 00000010 831.60 288.87 642.73 838.61 1228.26 612.49 1363.06 577.82 1461.13 733.64 1312.98 932.33 1409.03 908.50
00084633 00000011 828.90 284.35 639.55 839.79 1217.45 615.17 1365.76 579.05 1458.40 734.41 1297.65 931.39 1407.17 907.50
00084634 00000012 830.03 283.88 629.12 833.10 1207.27 610.97 1367.93 577.88 1446.27 736.13 1293.04 928.56 1409.34 905.95
00084635 00000013 830.22 276.58 623.50 844.04 1199.71 612.59 1374.89 581.41 1439.90 740.05 1281.64 929.77 1408.76 908.39
00084636 00000014 828.85 276.90 622.86 851.70 1201.21 614.18 1378.13 589.97 1439.88 748.45 1272.21 927.90 1404.69 912.03
00084637 00000015 832.64 295.29 622.83 833.67 1209.47 613.80 1381.61 593.21 1441.60 753.73 1274.49 928.97 1404.13 915.09
00084638 00000016 833.46 295.05 627.81 836.57 1220.66 618.82 1384.31 594.65 1451.88 755.83 1281.99 931.79 1405.01 916.03
00084639 00000017 836.67 293.14 637.84 845.32 1233.31 616.62 1387.56 585.66 1470.51 753.44 1295.24 938.89 1408.94 918.58
00084640 00000018 847.54 289.14 634.03 872.51 1247.92 614.67 1385.52 587.85 1483.77 755.01 1302.63 943.97 1404.29 927.51
00084641 00000019 852.43 305.76 638.48 868.46 1261.95 612.75 1386.87 590.18 1489.19 757.67 1318.74 949.65 1407.39 935.30
00084642 00000020 853.98 296.09 636.05 881.47 1261.40 617.44 1388.51 593.09 1489.62 756.59 1317.19 949.62 1407.38 934.67
00084643 00000021 846.41 316.11 637.66 863.18 1254.56 621.14 1392.00 599.50 1486.33 764.58 1303.45 953.14 1404.77 940.43
00084644 00000022 833.90 306.98 641.87 875.23 1243.59 627.97 1392.26 611.13 1474.91 768.94 1296.84 957.21 1405.03 947.05
00084645 00000023 839.33 319.63 631.07 854.60 1241.10 620.22 1382.02 614.95 1456.44 764.01 1305.02 952.81 1408.45 951.30
00084646 00000024 842.56 330.45 628.70 839.55 1240.09 620.96 1385.17 617.84 1455.43 765.12 1313.64 952.14 1416.03 952.09
00084647 00000025 844.34 323.09 626.74 839.90 1243.98 620.89 1390.14 618.44 1459.10 766.59 1321.67 951.71 1421.09 952.11
00084648 00000026 847.43 321.90 628.32 836.96 1241.82 616.43 1400.35 620.89 1464.57 774.28 1343.63 959.24 1439.44 960.47
00084649 00000027 843.51 307.36 641.94 861.27 1248.15 614.90 1398.56 618.58 1475.84 768.67 1361.65 959.84 1449.87 960.91
00084650 00000028 849.42 308.03 639.93 871.66 1256.68 613.88 1394.53 615.57 1481.34 770.71 1365.38 967.41 1445.73 966.64
00084651 00000029 850.81 305.50 638.38 875.47 1263.80 611.17 1393.44 609.35 1485.53 770.49 1349.44 969.05 1432.09 965.10
00084652 00000030 856.96 310.23 631.83 871.36 1265.84 613.43 1392.39 608.13 1484.22 769.24 1344.26 967.49 1427.38 960.69
00084653 00000031 849.81 308.98 637.21 872.89 1263.05 615.11 1395.28 611.78 1482.91 770.32 1342.24 967.24 1428.18 962.21
00084654 00000032 843.45 318.09 636.88 861.42 1252.42 617.60 1401.97 621.60 1473.86 777.28 1330.80 964.96 1427.31 965.27
00084655 00000033 845.02 331.09 623.34 839.37 1246.44 616.97 1400.82 622.08 1458.05 776.26 1309.22 955.87 1414.43 961.17
00084656 00000034 841.42 311.14 620.67 856.97 1238.94 619.37 1402.90 630.39 1448.05 782.40 1302.93 955.36 1409.88 965.10
00084657 00000035 833.06 311.03 628.94 852.81 1228.60 619.52 1403.82 636.62 1434.81 788.68 1286.25 954.49 1402.55 968.09
00084658 00000036 832.36 313.57 626.23 846.11 1221.67 618.91 1404.31 640.59 1426.77 790.77 1273.46 951.86 1394.29 969.14
00084659 00000037 832.21 306.98 622.70 866.30 1221.95 619.84 1404.12 644.98 1423.61 793.55 1262.76 953.22 1385.60 973.48
00084660 00000038 836.21 316.76 619.91 853.39 1228.76 620.81 1408.61 646.77 1428.31 795.12 1268.84 952.70 1390.08 973.56
00084661 00000039 845.86 318.74 624.91 841.73 1238.89 628.16 1429.22 649.90 1450.55 800.04 1300.54 953.84 1426.66 969.95
00084662 DELETE   858.66 314.02 630.45 861.72 1253.88 640.51 1438.64 655.96 1471.85 799.94 1327.17 962.99 1448.47 975.30
00084663 00000041 880.10 334.85 621.68 863.64 1274.25 640.99 1441.51 658.20 1490.76 803.59 1342.15 980.83 1447.13 992.08
00084664 00000042 889.32 339.24 621.93 861.76 1289.77 640.75 1444.25 648.68 1503.51 799.74 1349.92 982.15 1450.27 986.63
00084665 00000043 895.92 339.45 624.68 856.91 1296.38 643.17 1448.59 639.05 1515.02 791.46 1351.99 975.46 1459.32 972.63
00084666 00000044 898.70 342.65 624.57 848.02 1302.66 638.04 1451.73 636.53 1518.84 786.41 1359.59 971.17 1465.16 969.65
00084667 00000045 900.70 336.24 622.13 840.48 1299.00 631.96 1446.57 626.94 1512.28 779.64 1362.88 966.01 1463.81 961.25
00084668 DELETE   888.13 323.99 623.27 850.91 1284.20 626.46 1441.85 632.51 1493.96 777.52 1348.12 958.89 1452.68 961.40
00084669 DELETE   841.78 288.84 646.52 869.27 1230.79 621.53 1439.75 633.25 1459.11 774.14 1307.95 942.55 1449.81 951.39
00084670 00000048 825.64 279.43 637.38 874.34 1193.85 616.51 1419.65 631.25 1419.12 777.14 1250.34 939.44 1409.71 950.09
00084671 00000049 819.15 281.50 634.03 891.89 1181.86 609.71 1409.60 631.74 1392.69 774.37 1205.68 937.37 1372.90 952.89
00084672 00000050 821.55 295.74 638.93 888.93 1181.90 607.71 1412.83 636.22 1397.31 774.16 1184.45 933.88 1372.45 956.03
00084673 00000051 817.05 284.17 648.96 890.55 1185.74 611.06 1417.63 643.21 1393.09 781.97 1186.49 934.65 1380.00 960.13
00084674 00000052 824.14 288.15 639.59 881.08 1192.15 612.84 1421.77 645.73 1399.64 783.27 1203.10 936.05 1372.07 960.21
00084675 00000053 826.75 281.74 636.20 886.46 1189.60 616.69 1420.49 645.48 1394.32 789.49 1214.59 943.21 1375.53 963.94
00084676 00000054 823.37 283.74 637.57 889.53 1189.61 617.97 1414.51 650.78 1391.65 791.63 1216.43 945.09 1370.25 968.75
00084677 00000055 816.25 283.01 643.12 889.15 1184.53 616.93 1412.38 653.82 1386.93 794.23 1210.31 944.90 1363.60 971.75
00084678 00000056 815.55 288.71 642.20 885.35 1184.72 617.67 1411.23 655.38 1386.42 795.27 1209.06 944.22 1362.22 971.56
00084679 00000057 817.04 283.38 642.72 889.56 1194.65 617.90 1414.40 657.16 1396.89 793.52 1218.00 940.22 1369.10 969.28
00084680 00000058 821.54 271.25 640.92 898.31 1209.94 614.21 1418.77 652.45 1412.68 787.61 1241.48 941.44 1384.13 969.99
00084681 DELETE   838.50 275.89 624.40 899.95 1234.15 606.81 1426.17 646.79 1441.21 783.89 1249.35 935.11 1394.62 965.82
00084682 00000060 849.14 279.18 628.74 891.54 1257.27 616.25 1420.79 641.96 1458.34 776.75 1266.93 937.16 1399.15 958.58
00084683 00000061 853.99 286.08 631.05 869.65 1266.67 601.10 1424.87 621.97 1476.27 766.07 1286.45 925.54 1407.44 941.70
00084684 00000062 865.51 310.59 622.79 831.89 1267.61 595.34 1418.89 597.82 1477.12 753.75 1310.86 925.13 1419.71 926.70
00084685 00000063 868.20 300.47 622.63 853.12 1268.32 588.33 1407.61 580.16 1487.56 745.92 1327.38 931.65 1420.85 925.30
00084686 00000064 854.09 290.09 632.40 880.52 1257.12 587.03 1393.01 575.36 1482.39 740.71 1324.99 937.52 1416.27 928.00
00084687 00000065 849.69 311.16 627.30 852.56 1254.65 584.04 1381.81 572.01 1472.36 730.15 1318.13 933.07 1413.25 923.67
00084688 00000066 839.42 297.82 630.51 855.85 1242.51 583.65 1381.16 570.18 1463.29 724.71 1313.87 926.72 1414.86 916.64
00084689 00000067 841.76 297.29 624.53 838.64 1238.22 582.48 1379.33 567.38 1461.26 721.56 1322.86 920.40 1422.46 909.51
00084690 00000068 848.42 275.08 623.41 852.63 1232.13 574.78 1383.41 562.05 1461.93 721.47 1338.07 917.43 1433.65 905.88
00084691 00000069 856.20 261.45 620.46 870.30 1235.43 573.35 1388.97 560.83 1465.07 718.00 1340.55 916.22 1438.40 904.70
00084692 00000070 862.01 245.24 619.48 900.56 1244.65 572.08 1393.43 562.06 1470.93 718.14 1329.59 920.14 1426.98 910.52
00084693 00000071 863.66 261.95 626.94 883.82 1253.24 578.86 1397.92 565.70 1481.31 730.78 1319.02 926.04 1419.52 915.58
00084694 00000072 871.42 276.59 627.26 876.19 1263.49 586.88 1410.76 572.72 1492.43 741.97 1320.71 931.37 1423.69 921.73
00084695 00000073 887.06 302.20 620.65 863.24 1275.89 594.08 1421.51 580.04 1503.79 751.08 1325.14 940.55 1426.04 932.39
00084696 00000074 895.71 324.36 622.87 859.04 1291.25 596.59 1420.59 585.56 1510.45 747.57 1333.11 948.73 1429.78 940.37
00084697 00000075 902.82 314.76 621.95 865.30 1300.91 610.90 1433.16 603.50 1515.94 760.12 1348.68 953.43 1445.58 947.54
00084698 DELETE   911.19 316.36 607.37 856.66 1297.90 626.24 1442.50 606.73 1521.17 767.60 1361.32 955.39 1460.28 941.31
00084699 00000077 910.42 341.20 614.02 831.64 1297.92 642.63 1441.87 621.38 1520.38 778.87 1372.89 967.49 1468.36 951.72
00084700 DELETE   908.17 371.02 614.91 805.92 1295.16 667.41 1446.25 632.53 1518.47 798.63 1370.14 985.83 1468.45 960.85
00084701 00000079 903.77 360.43 621.01 839.81 1299.31 671.21 1435.73 645.82 1504.85 808.84 1363.39 1008.28 1455.84 988.11
00084702 DELETE   896.90 352.39 627.83 851.29 1293.08 669.66 1426.71 642.78 1504.47 804.76 1359.90 1007.87 1452.33 986.88
00084703 00000081 898.81 328.66 631.02 852.27 1285.69 657.89 1422.15 621.32 1502.79 776.57 1371.35 979.57 1464.73 953.30
00084704 00000082 896.56 335.79 617.31 846.55 1271.01 657.70 1404.95 613.53 1507.97 764.73 1366.74 973.64 1453.91 943.11
00084705 00000083 890.80 337.32 623.04 845.82 1263.69 653.42 1396.76 607.77 1509.23 754.54 1374.48 966.63 1462.76 935.34
00084706 00000084 881.84 333.23 630.12 843.96 1258.06 656.72 1389.06 608.71 1505.14 757.34 1372.25 967.35 1458.53 935.08
00084707 00000085 880.89 330.24 638.55 847.83 1262.47 663.17 1394.45 616.10 1490.66 761.90 1377.38 973.79 1466.10 941.56
00084708 00000086 870.97 354.58 631.91 831.77 1253.57 671.05 1384.51 628.78 1485.77 773.84 1358.39 987.22 1444.10 957.56
00084709 DELETE   861.56 371.88 630.17 828.01 1244.00 664.28 1369.91 625.58 1478.52 771.79 1341.52 989.90 1426.91 961.91
00084710 DELETE   840.23 324.44 635.81 876.75 1233.69 653.31 1367.33 615.28 1473.98 770.29 1325.90 984.33 1417.33 957.40
00084711 DELETE   843.95 345.06 638.12 834.81 1240.60 635.91 1356.76 600.94 1466.01 746.31 1335.62 962.85 1421.93 937.89
00084712 00000090 844.47 322.01 632.04 847.96 1238.31 626.54 1360.89 588.77 1469.73 743.51 1347.55 954.95 1433.40 927.65
00084713 00000091 856.02 321.32 641.49 851.59 1253.38 630.31 1366.40 595.93 1484.81 751.05 1367.33 960.21 1447.59 934.79
00084714 00000092 886.68 364.95 617.47 826.38 1275.37 640.17 1378.09 614.70 1493.48 764.51 1370.69 976.94 1440.77 957.11
00084715 00000093 882.25 375.47 623.30 822.56 1273.51 641.97 1380.30 618.81 1486.88 763.91 1362.48 983.58 1434.91 964.70
00084716 00000094 863.16 366.32 631.73 818.83 1258.58 658.99 1378.54 625.46 1484.51 780.12 1348.93 984.74 1430.31 960.33
00084717 DELETE   841.18 368.62 641.39 810.18 1242.08 654.97 1368.78 615.62 1477.59 774.27 1339.18 979.69 1426.89 951.72
00084718 00000096 829.10 374.37 642.84 801.06 1229.48 645.09 1353.01 606.72 1457.34 759.61 1318.97 969.43 1409.30 942.70
00084719 00000097 799.39 350.96 628.57 823.56 1188.35 636.24 1337.60 612.60 1417.84 771.65 1270.89 968.08 1374.82 949.88
00084720 00000098 749.42 333.61 637.77 859.18 1133.95 643.56 1326.31 620.39 1375.38 792.46 1206.69 988.26 1334.61 969.99
00084721 DELETE   690.23 303.17 653.48 925.10 1081.93 635.55 1301.39 633.28 1316.52 810.89 1130.71 995.86 1285.56 995.93
00084722 00000100 680.15 311.57 646.53 921.04 1059.08 633.17 1278.71 649.53 1271.81 818.66 1073.74 985.01 1244.49 998.55
00084723 00000101 675.62 319.36 654.23 889.09 1052.79 637.03 1281.34 658.01 1265.10 824.38 1071.52 977.90 1244.18 994.92
00084724 DELETE   681.34 319.35 654.78 881.29 1064.75 630.13 1293.18 657.12 1284.98 825.30 1101.10 976.39 1267.80 997.28
00084725 DELETE   709.52 334.63 640.43 868.50 1101.25 634.25 1308.75 659.55 1314.01 818.34 1134.82 975.23 1287.21 995.05
00084726 00000104 745.43 345.00 632.61 854.77 1147.74 635.77 1325.25 656.75 1362.35 808.08 1186.97 982.75 1307.00 996.77
00084727 00000105 784.30 337.58 626.22 844.98 1180.79 633.19 1342.86 642.22 1397.68 794.63 1252.72 972.14 1357.22 979.03
00084728 00000106 816.76 344.04 623.39 836.01 1219.62 629.44 1345.72 628.99 1433.48 782.63 1297.97 970.56 1378.98 969.23
00084729 00000107 835.25 349.58 623.92 823.15 1242.02 626.26 1343.66 619.22 1446.59 772.81 1320.99 964.40 1389.69 958.23
00084730 00000108 833.30 331.81 625.85 841.91 1238.27 621.54 1335.84 609.55 1445.52 763.68 1328.08 962.80 1392.76 953.55
00084731 00000109 821.09 328.46 629.58 845.32 1224.77 618.70 1332.33 612.82 1439.12 762.07 1311.51 956.13 1384.60 951.70
00084732 00000110 809.21 327.78 626.61 850.91 1210.61 607.49 1328.75 606.66 1427.81 757.96 1287.41 954.48 1365.89 952.66
00084733 DELETE   802.51 322.92 620.69 831.18 1199.06 602.16 1331.81 599.31 1420.76 753.58 1250.30 932.45 1351.69 929.83
00084734 DELETE   805.22 286.97 614.21 830.18 1192.70 572.40 1346.52 579.13 1418.53 739.93 1242.18 907.73 1353.85 912.10
00084735 00000113 814.35 248.83 619.18 851.45 1208.97 557.29 1359.54 563.74 1424.51 709.48 1247.01 877.34 1365.40 884.02
00084736 00000114 830.66 245.22 624.67 840.29 1243.02 541.33 1378.35 554.37 1454.55 690.73 1273.46 861.33 1386.15 873.87
00084737 00000115 855.80 225.80 618.09 860.43 1259.07 536.48 1394.63 540.97 1477.46 687.67 1312.55 865.48 1417.91 868.36
00084738 00000116 881.92 234.76 605.36 847.76 1274.57 523.49 1396.23 529.35 1484.76 677.73 1340.85 861.19 1430.17 863.72
00084739 00000117 890.59 219.00 608.00 850.15 1281.68 517.52 1399.89 514.20 1496.91 664.00 1363.40 851.60 1447.59 848.66
00084740 00000118 896.38 218.94 616.18 848.17 1290.06 520.50 1418.99 514.73 1503.41 665.91 1385.02 853.38 1472.17 847.90
00084741 00000119 907.18 218.21 604.84 850.04 1286.51 523.12 1437.03 514.05 1510.11 669.69 1382.91 856.77 1483.33 849.70
00084742 00000120 916.38 216.27 603.69 895.52 1311.21 535.60 1443.56 532.69 1527.93 684.07 1362.49 871.22 1462.69 870.28
00084743 00000121 922.84 197.62 598.01 956.58 1316.84 553.72 1441.46 544.98 1547.83 700.28 1335.16 889.37 1438.49 889.16
00084744 00000122 936.67 219.54 593.69 956.92 1325.41 557.10 1430.90 544.24 1553.57 700.50 1342.95 900.24 1433.33 896.51
00084745 DELETE   943.68 233.08 601.45 958.49 1323.47 562.32 1437.83 553.48 1554.31 698.20 1354.18 904.04 1445.79 899.97
00084746 00000124 945.58 269.49 603.97 919.05 1327.50 575.67 1441.17 561.61 1554.73 713.29 1353.02 915.90 1440.76 908.32
00084747 00000125 942.40 276.05 603.47 884.17 1328.54 599.04 1446.40 577.07 1550.02 730.40 1357.95 916.81 1445.73 904.25
00084748 00000126 938.87 290.83 602.78 861.32 1324.97 608.89 1443.19 585.83 1546.60 737.54 1355.40 920.72 1444.76 907.87
00084749 00000127 922.90 283.28 604.74 868.18 1308.55 619.15 1428.86 581.58 1537.13 737.58 1339.89 924.92 1429.88 902.88
00084750 00000128 898.96 304.43 611.39 844.35 1289.19 623.74 1419.03 587.43 1521.35 742.61 1321.70 927.76 1422.56 906.69
00084751 DELETE   879.87 318.59 630.99 819.07 1276.69 614.58 1407.33 574.54 1511.27 736.03 1317.91 923.24 1426.92 899.83
00084752 DELETE   863.20 317.22 629.22 827.29 1254.84 616.70 1394.41 572.14 1493.70 737.54 1304.16 925.38 1417.91 898.82
00084753 00000131 846.70 297.80 632.42 862.57 1234.19 617.12 1386.94 571.50 1484.37 736.58 1278.18 931.31 1404.36 903.80
00084754 00000132 838.30 282.92 624.69 900.56 1224.74 611.74 1371.39 581.22 1466.95 736.49 1261.39 937.39 1378.22 919.62
00084755 00000133 835.19 287.86 621.11 906.69 1220.12 597.76 1356.67 586.44 1452.69 732.75 1251.97 936.83 1368.40 930.56
00084756 00000134 830.96 291.13 618.46 884.58 1207.94 592.41 1358.43 583.01 1439.62 730.02 1267.81 935.80 1382.37 929.08
00084757 00000135 831.26 280.23 609.11 859.38 1184.69 594.46 1357.47 568.79 1424.80 719.44 1292.66 922.31 1408.45 902.63
00084758 00000136 832.22 274.21 609.69 859.05 1181.92 589.57 1351.65 563.98 1421.88 715.60 1301.15 919.46 1413.78 899.22
00084759 00000137 830.15 271.72 614.82 853.44 1183.42 591.55 1357.33 565.94 1424.80 717.93 1303.04 919.59 1418.61 899.54
00084760 00000138 832.67 286.47 615.04 839.41 1192.01 595.05 1361.89 570.31 1430.74 726.33 1303.53 925.53 1416.02 906.28
00084761 00000139 836.70 297.17 615.39 836.39 1197.32 599.36 1368.17 573.97 1434.16 730.14 1305.51 929.99 1419.19 910.33
00084762 00000140 841.45 290.81 615.36 855.05 1201.34 604.03 1381.10 582.36 1441.46 735.05 1301.28 935.68 1420.34 918.88
00084763 00000141 843.01 291.64 620.51 861.21 1207.52 606.51 1387.91 587.03 1450.43 740.30 1301.84 937.96 1424.27 923.52
00084764 00000142 843.82 281.50 625.27 877.26 1212.76 609.77 1397.63 592.37 1455.39 742.54 1301.98 938.63 1430.25 925.95
00084765 00000143 851.24 289.34 626.31 874.65 1217.96 614.48 1405.51 597.40 1460.90 745.50 1308.85 944.66 1439.78 932.04
00084766 00000144 857.44 287.61 630.31 884.99 1226.81 617.54 1413.56 600.25 1469.96 748.74 1318.69 950.79 1448.28 938.19
00084767 00000145 869.73 274.66 627.15 901.53 1241.50 618.66 1428.20 605.75 1482.54 756.25 1325.90 953.87 1454.95 945.16
00084768 00000146 875.41 278.05 629.20 900.96 1249.62 620.60 1428.66 606.28 1488.07 760.03 1332.07 956.90 1455.91 947.73
00084769 00000147 876.25 268.26 629.26 918.40 1257.34 620.36 1424.50 605.03 1496.19 758.86 1329.62 959.10 1445.69 950.15
00084770 00000148 878.72 280.61 629.41 908.41 1263.39 617.04 1416.47 604.10 1495.84 756.94 1332.05 957.72 1443.92 948.32
00084771 00000149 884.44 261.63 624.39 923.88 1260.58 617.80 1428.49 601.65 1497.88 754.18 1337.95 955.74 1452.26 946.19
00084772 00000150 891.44 250.58 616.43 942.18 1262.99 614.81 1427.35 598.47 1498.59 751.48 1338.43 956.29 1449.10 946.59
00084773 00000151 896.98 251.68 611.45 939.57 1262.96 613.42 1427.23 598.06 1495.69 750.03 1346.66 955.20 1455.13 945.87
00084774 00000152 889.26 260.34 630.89 921.35 1264.60 611.09 1426.79 590.79 1493.36 745.81 1364.68 951.36 1477.48 936.91
00084775 00000153 891.08 245.61 620.14 906.56 1253.23 612.72 1434.74 585.87 1495.24 744.45 1380.71 950.88 1492.06 930.67
00084776 00000154 877.02 247.96 645.92 902.79 1260.76 609.40 1422.86 581.22 1495.37 744.75 1392.22 948.64 1494.65 928.85
00084777 00000155 875.60 264.94 643.96 883.38 1258.63 606.09 1415.11 583.78 1491.71 745.27 1392.60 947.30 1490.17 930.95
00084778 00000156 873.20 246.26 638.69 902.11 1255.02 617.29 1426.91 593.22 1492.75 745.56 1386.25 944.39 1490.72 928.16
00084779 00000157 868.81 272.63 645.26 888.62 1264.56 621.50 1419.30 604.38 1494.68 752.71 1388.08 946.42 1487.05 935.00
00084780 00000158 869.54 275.45 637.46 885.30 1265.45 621.53 1414.67 606.82 1488.54 752.06 1383.16 949.17 1475.42 939.03
00084781 00000159 869.10 283.48 633.32 880.85 1261.88 618.36 1410.76 605.82 1482.38 748.18 1367.91 946.91 1463.59 937.28
00084782 00000160 875.48 296.39 627.96 862.87 1264.27 618.94 1409.28 605.92 1482.52 747.88 1368.90 943.30 1463.44 932.84
00084783 00000161 877.48 299.96 629.01 856.03 1267.96 618.37 1410.44 604.72 1485.91 747.65 1371.11 941.55 1465.36 930.63
00084784 00000162 880.14 297.82 631.05 857.62 1269.51 619.20 1408.46 600.73 1487.52 745.73 1376.89 943.21 1467.73 928.77
00084785 00000163 884.38 311.23 630.45 845.75 1274.29 618.43 1410.93 601.93 1491.46 746.11 1387.62 946.81 1474.25 933.63
