Video ID: 	4WXe3I7j03Q
H: 	1080
W: 	1920
FPS: 	59.94005994005994

FRAME INDEX X0 Y0 W H [Landmarks (5 Points)]

00019140 00000000 829.96 210.52 418.16 610.83 1116.42 441.04 1174.38 450.46 1245.93 563.92 1105.50 654.22 1156.77 668.19
00019141 00000001 825.78 210.26 420.83 608.38 1114.40 434.58 1170.82 443.73 1244.10 559.67 1102.53 650.67 1152.25 664.82
00019142 DELETE   823.66 210.63 420.76 604.92 1111.69 433.07 1168.24 439.51 1241.53 557.48 1099.56 649.48 1149.63 661.73
00019143 00000003 819.69 209.41 413.79 601.15 1108.07 427.26 1171.41 441.41 1234.91 548.03 1095.88 652.82 1145.45 667.44
00019144 DELETE   818.22 210.60 414.67 599.00 1107.76 424.40 1171.64 438.28 1235.78 547.33 1092.69 651.40 1142.65 666.18
00019145 DELETE   816.82 209.19 416.56 598.61 1106.08 419.97 1172.46 433.47 1236.79 544.37 1091.51 650.52 1142.74 665.11
00019146 DELETE   816.29 204.77 415.90 599.82 1104.62 417.88 1172.35 431.90 1235.64 541.25 1091.38 648.17 1143.62 663.24
00019147 00000007 815.47 201.16 414.66 599.13 1102.79 416.63 1172.57 432.53 1232.65 538.07 1095.68 644.55 1148.64 660.40
00019148 00000008 813.98 201.15 415.51 596.56 1102.30 415.80 1171.97 431.11 1232.36 536.33 1096.83 644.16 1148.21 659.33
00019149 00000009 812.16 197.95 415.18 595.66 1100.61 413.13 1168.49 429.87 1229.79 531.65 1099.26 639.72 1150.08 655.79
00019150 00000010 811.02 202.38 419.49 591.96 1097.00 411.66 1158.86 422.82 1232.04 531.71 1101.01 631.83 1151.85 646.56
00019151 00000011 809.32 198.36 420.30 591.28 1096.13 409.60 1157.80 421.95 1229.80 525.98 1101.57 625.70 1153.17 641.21
00019152 00000012 807.16 200.84 423.33 583.63 1093.58 405.94 1159.06 417.48 1230.32 521.65 1104.45 622.63 1157.58 637.20
00019153 00000013 804.44 200.40 424.85 578.32 1091.12 404.11 1159.33 415.10 1228.85 518.09 1107.89 620.67 1161.45 634.28
00019154 00000014 802.65 199.02 422.71 573.08 1087.70 403.74 1153.75 408.97 1227.14 515.62 1109.22 619.73 1160.06 628.43
00019155 00000015 801.64 195.37 421.83 572.33 1083.66 400.74 1150.23 404.02 1226.93 513.02 1109.46 619.00 1159.37 625.27
00019156 00000016 798.06 193.67 422.23 565.18 1079.34 400.62 1147.32 401.39 1224.84 508.41 1110.93 616.49 1159.17 619.59
00019157 00000017 794.00 194.13 427.60 561.44 1073.99 395.67 1146.16 399.13 1222.96 499.76 1108.51 609.57 1160.75 614.09
00019158 00000018 794.45 191.93 427.22 560.89 1071.99 393.33 1146.37 396.71 1222.88 495.49 1108.92 607.29 1162.74 611.52
00019159 00000019 793.72 188.59 426.05 556.46 1067.82 390.44 1144.58 393.28 1220.05 490.86 1107.61 604.26 1160.76 607.33
00019160 00000020 788.16 191.34 425.64 546.58 1063.07 389.99 1132.23 389.83 1218.62 481.59 1099.47 591.06 1158.22 595.14
00019161 00000021 789.65 191.10 423.95 542.38 1059.79 389.76 1131.57 386.19 1216.67 478.53 1099.52 590.88 1159.39 592.11
00019162 00000022 789.03 189.41 424.85 540.11 1059.16 387.72 1130.89 383.28 1216.57 474.99 1098.96 588.17 1159.05 588.63
00019163 00000023 788.19 187.82 425.10 537.81 1059.45 386.76 1131.23 380.25 1215.78 473.41 1100.27 586.63 1160.00 585.17
00019164 00000024 799.37 190.24 423.46 535.43 1047.08 377.74 1139.85 375.92 1206.97 473.83 1103.57 589.04 1172.77 590.84
00019165 00000025 799.06 190.31 425.33 535.12 1048.23 377.89 1139.56 373.12 1208.68 473.09 1104.65 589.68 1172.31 589.23
00019166 00000026 790.49 185.79 423.89 532.88 1057.71 382.90 1132.83 374.03 1214.61 469.13 1101.22 583.29 1163.74 579.80
00019167 00000027 791.19 186.14 424.05 530.88 1058.19 382.94 1131.43 372.60 1214.91 469.00 1103.15 583.27 1163.97 578.68
00019168 00000028 793.16 185.28 421.58 534.35 1057.39 380.71 1129.57 372.10 1214.46 468.56 1103.55 583.71 1163.72 580.69
00019169 00000029 793.27 184.79 422.27 538.26 1059.16 381.83 1130.39 372.89 1215.72 469.01 1103.93 583.68 1163.27 580.51
00019170 00000030 793.42 186.09 423.86 539.24 1059.18 382.36 1129.89 372.68 1216.72 469.53 1104.76 584.50 1163.69 580.94
00019171 00000031 794.28 186.88 425.23 542.31 1060.44 381.98 1129.56 372.41 1218.21 470.54 1105.55 585.71 1164.14 582.68
00019172 00000032 793.44 188.97 426.89 542.89 1060.86 382.05 1127.72 372.29 1219.96 471.47 1106.47 587.17 1163.90 584.33
00019173 00000033 793.16 189.94 429.12 546.51 1062.27 382.40 1124.79 372.53 1221.25 472.62 1108.48 588.17 1164.07 585.75
00019174 00000034 792.80 189.67 429.77 550.27 1060.71 382.02 1123.74 374.30 1219.33 472.33 1107.08 588.72 1164.06 588.07
00019175 00000035 793.35 188.11 428.54 554.30 1061.31 382.51 1124.28 374.99 1220.49 473.14 1106.20 589.95 1163.07 589.70
00019176 00000036 793.00 188.49 428.06 555.24 1060.44 382.79 1125.48 375.61 1220.03 473.61 1103.68 590.35 1162.27 590.15
00019177 00000037 792.75 189.31 428.97 555.63 1059.21 383.76 1128.01 378.64 1219.19 474.68 1101.19 590.98 1162.72 592.17
00019178 00000038 792.58 190.77 428.27 557.47 1057.54 383.55 1124.99 378.42 1217.58 477.01 1099.38 593.10 1159.79 594.53
00019179 00000039 791.74 193.85 428.36 555.90 1056.16 383.67 1126.91 380.22 1215.10 477.86 1097.24 593.52 1160.56 595.86
00019180 00000040 790.41 193.33 428.64 557.69 1054.13 384.94 1124.68 380.50 1212.25 478.88 1094.65 594.04 1158.13 595.68
00019181 00000041 788.04 193.94 429.03 557.88 1054.08 386.25 1125.70 381.15 1210.86 480.78 1092.91 595.34 1156.81 596.02
00019182 00000042 787.64 193.99 427.47 557.82 1053.06 387.35 1124.02 382.56 1208.04 481.94 1092.07 596.07 1155.94 596.79
00019183 00000043 787.05 193.06 426.23 558.79 1052.16 388.16 1122.80 383.33 1205.19 482.66 1088.77 596.45 1152.54 597.09
00019184 00000044 782.85 193.60 429.73 559.69 1047.62 387.30 1119.95 384.17 1200.51 481.51 1086.89 596.19 1151.82 597.78
00019185 00000045 781.43 193.91 430.13 558.50 1046.20 387.12 1117.47 385.26 1198.66 481.66 1085.19 596.40 1149.08 598.87
00019186 00000046 777.57 196.08 431.64 555.27 1044.49 385.94 1115.18 385.74 1196.76 481.15 1082.82 594.23 1146.40 597.89
00019187 00000047 775.65 195.83 430.82 555.79 1041.89 387.31 1114.68 389.27 1192.44 480.93 1079.18 593.68 1144.43 598.73
00019188 00000048 772.29 197.20 431.98 555.28 1039.91 388.27 1111.30 392.33 1189.21 481.25 1077.32 594.64 1141.41 601.45
00019189 00000049 769.40 198.24 430.73 555.63 1036.11 388.75 1107.41 398.34 1182.22 481.64 1072.97 595.45 1136.95 606.51
00019190 00000050 767.75 198.16 430.81 557.02 1032.30 390.46 1104.71 399.18 1179.62 480.35 1070.36 595.73 1134.99 606.18
00019191 00000051 767.09 197.11 430.52 556.63 1027.88 391.07 1102.94 398.86 1176.78 478.45 1066.99 595.30 1133.03 604.86
00019192 00000052 766.32 199.60 428.36 555.03 1025.48 389.79 1101.06 397.67 1174.18 478.27 1062.76 595.18 1128.81 604.84
00019193 00000053 765.08 200.44 427.57 554.09 1022.34 389.56 1100.47 396.99 1172.79 478.16 1061.01 595.56 1128.70 604.73
00019194 00000054 764.59 199.61 425.26 554.62 1022.43 388.10 1101.59 396.85 1172.29 477.74 1060.74 594.88 1128.14 604.76
00019195 00000055 762.16 198.88 426.19 554.71 1019.71 387.68 1100.13 396.42 1169.83 476.98 1059.99 594.69 1128.80 604.47
00019196 00000056 759.86 197.73 427.68 554.89 1018.85 386.81 1098.83 392.75 1168.34 475.36 1057.95 592.77 1126.75 600.23
00019197 00000057 757.58 194.17 429.06 557.17 1017.45 386.86 1098.86 392.36 1167.55 474.49 1057.32 593.58 1126.73 600.46
00019198 00000058 754.12 193.04 432.08 558.98 1018.00 384.80 1097.30 390.22 1165.91 472.93 1057.12 592.42 1124.86 599.15
00019199 00000059 752.56 192.46 431.60 556.51 1016.38 383.37 1095.27 388.02 1164.45 469.64 1056.05 590.42 1123.04 596.46
00019200 00000060 751.34 192.21 431.85 555.94 1015.40 383.59 1093.95 387.93 1162.54 468.33 1056.54 589.52 1122.91 595.11
00019201 00000061 752.16 192.22 430.80 554.28 1014.01 383.14 1094.19 388.24 1162.26 467.63 1056.25 589.24 1123.78 595.31
00019202 00000062 751.86 192.44 429.85 553.59 1013.31 382.61 1093.23 388.21 1160.26 467.62 1055.19 588.52 1122.16 594.98
00019203 00000063 752.13 194.92 430.00 552.93 1011.54 381.59 1092.95 388.11 1160.77 467.63 1054.97 589.25 1122.90 596.48
00019204 00000064 752.74 192.88 428.29 556.11 1014.05 381.58 1091.05 386.09 1164.04 468.42 1054.63 589.81 1119.48 595.75
00019205 00000065 755.79 197.15 425.30 554.00 1014.08 379.99 1091.22 387.30 1164.06 468.72 1055.08 590.14 1119.87 598.20
00019206 00000066 758.50 196.07 421.85 556.80 1014.68 381.56 1089.59 388.25 1163.56 471.08 1051.12 591.35 1115.24 599.35
00019207 00000067 760.72 198.11 418.81 553.67 1016.99 383.61 1088.69 390.20 1163.23 472.55 1049.60 590.65 1112.46 598.82
00019208 00000068 764.28 199.47 413.69 553.29 1018.39 384.49 1087.46 389.75 1163.02 473.47 1046.73 590.19 1109.02 597.54
00019209 00000069 764.45 200.16 414.23 550.09 1021.96 386.36 1086.65 391.68 1164.02 473.88 1050.85 589.58 1109.47 596.86
00019210 00000070 763.65 199.67 414.62 550.94 1021.54 387.92 1087.39 395.42 1162.16 476.42 1050.55 590.95 1110.79 599.85
00019211 00000071 763.23 198.95 417.53 552.61 1021.84 391.19 1087.32 397.05 1162.57 475.89 1051.66 591.36 1111.95 598.94
00019212 00000072 762.72 200.43 417.09 550.13 1023.16 390.07 1088.40 395.62 1164.16 475.16 1053.01 589.80 1113.20 597.13
00019213 00000073 762.31 201.01 417.29 548.67 1023.27 390.66 1088.97 394.62 1164.33 473.85 1054.21 588.89 1114.75 594.90
00019214 00000074 758.88 201.69 419.92 545.78 1023.24 390.41 1092.58 396.21 1162.82 474.05 1054.57 588.30 1117.21 595.37
00019215 00000075 758.30 201.57 419.75 543.46 1021.01 390.43 1093.62 397.09 1161.75 473.10 1054.89 588.03 1118.88 595.61
00019216 00000076 755.60 202.52 420.53 545.92 1017.68 390.55 1092.84 399.49 1160.38 474.76 1050.81 590.09 1117.02 599.71
00019217 00000077 753.63 204.21 421.37 543.94 1015.09 391.19 1093.11 401.09 1159.38 475.43 1047.19 589.76 1115.89 600.36
00019218 00000078 754.04 204.94 421.40 542.73 1009.81 392.02 1094.22 403.66 1156.00 474.21 1043.69 588.70 1118.77 600.62
00019219 00000079 752.42 204.76 420.75 542.31 1006.69 391.58 1096.14 403.65 1157.35 474.19 1042.05 589.36 1120.53 601.72
00019220 00000080 751.42 204.65 418.86 543.40 1006.77 391.98 1095.83 404.72 1158.55 475.18 1041.19 589.95 1119.30 602.96
00019221 00000081 750.41 205.62 418.21 542.45 1003.64 391.41 1097.03 403.03 1158.72 476.56 1037.27 590.89 1119.25 603.00
00019222 00000082 750.72 206.53 417.95 543.40 1003.52 390.25 1096.32 402.36 1159.91 476.10 1037.40 591.01 1119.14 603.53
00019223 00000083 751.00 207.32 418.45 543.95 1005.12 389.32 1096.24 401.70 1160.37 476.52 1037.56 591.17 1117.98 604.11
00019224 00000084 751.41 206.40 419.25 543.84 1005.68 389.98 1095.25 401.99 1158.76 477.10 1036.21 591.03 1115.93 603.80
00019225 00000085 751.07 207.74 421.05 545.37 1007.86 388.21 1094.02 403.78 1157.13 478.56 1035.79 591.47 1113.26 607.14
00019226 00000086 752.40 208.37 419.69 544.84 1009.30 387.75 1091.80 404.23 1154.75 480.40 1031.60 591.25 1106.50 608.01
00019227 00000087 752.43 209.28 419.42 545.73 1009.81 387.12 1090.08 403.20 1155.43 480.88 1030.00 591.66 1103.63 608.36
00019228 00000088 751.63 209.14 420.11 545.75 1009.83 387.02 1089.22 403.28 1156.95 480.78 1031.23 592.09 1103.40 608.92
00019229 00000089 751.64 208.53 420.42 546.41 1009.87 388.64 1090.62 403.56 1157.62 481.37 1032.65 592.98 1105.18 608.58
00019230 00000090 750.62 205.76 419.73 544.85 1009.70 389.10 1090.21 403.77 1157.75 479.42 1034.45 592.03 1106.35 606.97
00019231 00000091 751.04 206.73 418.82 541.21 1008.96 387.79 1092.14 403.50 1157.91 477.22 1035.08 589.47 1109.27 605.07
00019232 00000092 751.55 203.33 417.70 542.06 1007.07 388.29 1092.53 400.64 1154.69 475.05 1033.74 586.53 1111.19 599.39
00019233 00000093 739.65 198.33 420.15 543.41 998.82 392.06 1091.19 401.13 1155.03 474.10 1030.60 579.60 1116.78 589.02
00019234 00000094 738.36 197.99 420.78 542.81 997.10 392.06 1089.01 399.71 1155.25 474.33 1032.24 580.58 1117.95 589.01
00019235 00000095 746.91 202.91 419.70 539.47 1001.40 388.53 1088.92 399.84 1153.24 473.65 1035.96 588.30 1111.47 599.85
00019236 00000096 746.74 204.33 418.79 541.32 1000.11 388.43 1088.62 398.87 1154.22 476.70 1036.20 592.07 1111.46 602.92
00019237 00000097 743.83 201.25 418.75 548.25 999.06 390.44 1086.02 396.72 1156.82 479.70 1034.75 596.01 1107.79 603.20
00019238 00000098 741.15 200.00 420.43 555.67 1001.54 391.24 1080.00 392.39 1158.17 482.27 1033.69 599.06 1099.48 602.77
00019239 00000099 741.25 202.24 420.80 555.79 997.35 393.69 1079.49 394.02 1155.59 483.18 1031.79 600.81 1101.14 603.95
00019240 00000100 741.85 202.67 419.40 556.53 995.05 391.76 1080.66 393.93 1154.49 483.72 1029.07 600.85 1101.37 605.39
00019241 00000101 739.38 201.79 420.13 556.74 993.55 391.61 1080.06 393.03 1154.06 484.16 1026.81 600.49 1099.43 604.36
00019242 00000102 738.47 200.84 419.39 559.34 994.29 389.91 1076.33 390.94 1153.39 483.68 1025.00 600.27 1094.18 604.14
00019243 00000103 736.67 199.28 419.22 559.16 990.83 389.36 1075.60 388.53 1150.94 483.13 1018.15 598.81 1090.69 601.14
00019244 00000104 733.56 197.25 421.11 560.86 988.03 390.02 1074.87 388.07 1148.34 484.72 1013.45 598.71 1087.84 599.97
00019245 00000105 720.46 197.55 424.64 554.79 984.24 392.93 1071.24 391.57 1146.46 481.03 1007.35 588.89 1084.90 591.85
00019246 00000106 717.49 196.51 424.86 552.61 981.53 392.74 1069.10 391.04 1141.15 480.76 1006.97 587.29 1084.55 589.70
00019247 00000107 715.32 197.50 424.12 549.68 979.04 392.92 1067.60 393.83 1137.69 480.61 1006.14 587.23 1084.65 591.31
00019248 00000108 715.11 199.12 421.77 548.07 977.75 392.66 1064.08 394.77 1135.33 480.98 1004.88 586.78 1082.11 591.87
00019249 00000109 714.30 200.04 420.66 548.33 975.24 393.51 1062.11 395.71 1133.53 480.74 1003.66 588.33 1081.39 593.23
00019250 00000110 713.03 199.47 422.10 550.49 974.30 395.69 1062.49 397.50 1132.53 483.05 1002.32 591.19 1081.26 595.83
00019251 00000111 724.92 196.00 415.77 554.86 974.47 395.13 1072.96 402.84 1129.90 491.39 1006.15 599.47 1085.85 605.77
00019252 00000112 725.55 194.32 417.60 556.38 980.38 398.32 1073.56 406.32 1131.03 494.25 1007.97 599.41 1083.91 606.52
00019253 00000113 728.46 195.23 415.37 555.78 984.22 398.94 1073.91 406.44 1133.69 495.10 1011.56 600.27 1083.72 607.12
00019254 00000114 731.87 195.27 415.73 559.82 987.02 402.40 1072.44 406.36 1137.64 496.57 1017.72 605.27 1086.02 609.52
CROP_BBOX: 492 0 1473 1025
