Video ID: 	bBmD7djGcJk
H: 	2160
W: 	3840
FPS: 	25.0

FRAME INDEX X0 Y0 W H [Landmarks (5 Points)]

00005397 00000000 1427.93 448.24 686.44 918.02 1578.54 787.54 1874.45 757.17 1716.22 967.48 1654.67 1121.01 1881.70 1095.60
00005398 00000001 1434.36 457.95 684.31 906.42 1584.88 788.34 1880.46 757.32 1723.40 968.08 1663.08 1123.44 1889.07 1097.26
00005399 00000002 1437.88 448.93 683.28 914.73 1588.99 787.09 1883.44 756.71 1727.20 968.87 1666.46 1123.43 1890.33 1097.91
00005400 00000003 1439.64 448.76 682.82 911.64 1589.93 785.84 1885.11 754.91 1729.66 964.39 1666.11 1122.46 1892.30 1096.38
00005401 00000004 1436.68 446.68 684.75 911.37 1588.57 784.57 1885.05 753.55 1731.87 960.66 1665.92 1121.32 1893.04 1094.84
00005402 00000005 1432.51 454.12 688.73 905.85 1585.28 782.75 1880.92 750.07 1726.36 958.51 1662.73 1114.50 1893.84 1086.67
00005403 00000006 1419.37 450.14 695.86 899.93 1589.03 787.58 1876.17 760.84 1723.82 956.46 1648.92 1106.88 1892.93 1085.09
00005404 00000007 1418.33 449.05 694.94 899.51 1589.03 789.72 1874.32 763.46 1722.99 956.62 1645.07 1102.66 1891.99 1081.15
00005405 DELETE   1427.93 458.79 687.56 897.74 1583.17 786.65 1875.40 754.39 1720.42 960.97 1649.94 1104.49 1892.79 1076.47
00005406 00000009 1425.03 462.55 688.39 891.60 1581.69 784.41 1874.56 753.30 1719.14 958.38 1645.87 1102.92 1891.28 1075.84
00005407 00000010 1409.70 446.80 698.75 898.99 1581.39 787.20 1869.15 761.92 1714.90 953.40 1634.81 1097.93 1886.65 1076.81
00005408 00000011 1406.29 440.74 699.17 908.12 1576.30 781.94 1865.96 756.51 1709.32 950.31 1631.46 1099.86 1882.84 1078.40
00005409 00000012 1405.74 445.94 697.38 910.13 1572.29 779.04 1864.56 750.96 1706.01 944.33 1630.66 1104.61 1882.61 1080.79
00005410 00000013 1405.21 442.88 697.92 917.07 1571.45 779.29 1861.57 750.05 1702.98 944.08 1631.17 1106.06 1881.62 1081.41
00005411 00000014 1405.73 446.46 696.68 913.27 1571.38 779.57 1860.25 750.41 1702.63 946.67 1630.99 1105.75 1881.88 1080.72
00005412 00000015 1405.69 443.25 696.73 908.15 1571.26 776.89 1860.06 747.83 1702.75 943.47 1630.10 1101.34 1879.99 1076.69
00005413 00000016 1405.44 441.02 697.50 906.61 1571.78 775.56 1860.33 747.15 1703.31 941.69 1628.51 1098.52 1879.12 1074.54
00005414 00000017 1407.10 441.45 697.30 902.77 1574.62 779.38 1863.06 751.59 1706.29 942.77 1628.20 1094.51 1881.40 1071.13
00005415 00000018 1409.15 443.73 696.16 895.65 1576.41 780.18 1863.87 750.79 1709.21 939.50 1629.01 1091.06 1883.40 1066.47
00005416 00000019 1410.10 442.55 696.98 895.13 1577.28 780.01 1864.04 749.44 1710.41 939.29 1629.99 1088.11 1885.90 1062.31
00005417 00000020 1410.75 444.17 696.17 892.78 1577.95 782.11 1865.23 753.26 1710.63 942.77 1628.75 1088.47 1885.68 1064.06
00005418 00000021 1412.72 441.98 695.71 898.34 1580.42 782.69 1866.07 754.20 1711.71 943.53 1631.36 1089.81 1886.06 1065.83
00005419 00000022 1424.49 469.31 688.56 885.12 1581.30 780.21 1870.04 747.21 1714.75 949.14 1645.59 1094.79 1889.91 1065.30
00005420 00000023 1423.65 470.41 688.74 889.21 1579.42 783.98 1868.45 749.86 1713.16 954.28 1644.35 1099.02 1890.20 1069.05
00005421 00000024 1422.96 461.51 689.82 889.72 1578.32 782.55 1868.97 748.38 1713.24 951.80 1642.13 1095.91 1889.60 1065.46
00005422 00000025 1411.87 451.92 697.18 891.49 1578.10 781.08 1864.27 752.61 1710.09 944.47 1630.88 1091.65 1886.37 1066.89
00005423 00000026 1406.40 446.98 697.69 898.30 1572.05 777.21 1861.62 746.53 1705.77 941.93 1628.74 1095.17 1883.99 1068.71
00005424 00000027 1404.38 440.46 699.18 904.75 1569.36 775.84 1858.46 743.75 1703.19 941.00 1627.09 1095.12 1882.76 1067.69
00005425 00000028 1415.08 440.99 694.39 906.18 1566.18 770.96 1859.50 737.70 1701.80 946.52 1633.33 1094.95 1883.13 1066.51
00005426 00000029 1404.79 446.09 699.11 898.79 1568.13 778.02 1860.19 747.69 1702.12 945.77 1625.41 1097.68 1882.34 1071.79
00005427 00000030 1405.25 443.27 700.81 903.84 1570.78 780.35 1862.84 752.45 1703.56 950.48 1628.01 1100.46 1882.45 1076.82
00005428 00000031 1407.68 448.35 697.90 896.72 1573.06 782.06 1864.62 756.26 1704.47 952.85 1629.65 1100.76 1881.47 1079.06
00005429 00000032 1407.25 447.95 699.38 897.90 1573.48 782.62 1864.62 757.12 1704.08 952.86 1629.99 1101.11 1881.63 1079.73
00005430 00000033 1406.80 443.88 698.85 901.53 1574.09 782.62 1864.59 757.29 1704.92 952.32 1629.78 1100.47 1881.03 1079.44
00005431 00000034 1405.49 442.32 698.33 904.15 1572.20 781.01 1864.74 755.14 1704.67 950.83 1626.59 1099.54 1881.62 1077.86
00005432 00000035 1403.00 445.09 699.37 900.92 1568.63 779.90 1861.67 751.56 1702.72 949.02 1623.92 1097.89 1881.91 1073.85
00005433 00000036 1410.79 444.73 694.93 903.59 1564.51 772.91 1859.89 742.04 1701.73 950.25 1629.46 1096.22 1881.19 1069.61
00005434 00000037 1406.84 449.86 697.79 898.80 1560.06 772.44 1855.51 740.33 1697.85 948.73 1627.29 1097.18 1879.01 1069.46
00005435 00000038 1406.13 448.80 695.82 898.82 1559.35 777.37 1851.79 745.97 1695.38 948.05 1625.43 1096.07 1875.63 1068.81
00005436 00000039 1410.33 467.88 686.41 884.97 1561.25 780.11 1849.02 748.46 1694.28 947.03 1620.39 1096.82 1869.00 1068.07
00005437 00000040 1409.68 468.86 688.64 887.83 1561.57 780.32 1849.41 748.79 1694.57 948.36 1620.63 1097.47 1869.95 1069.08
00005438 00000041 1413.35 466.14 686.78 889.81 1562.17 778.78 1852.58 747.23 1695.43 945.99 1621.19 1096.36 1872.52 1067.61
00005439 00000042 1409.47 454.02 696.51 897.92 1560.84 775.15 1855.94 741.62 1697.84 943.97 1626.51 1096.45 1880.69 1067.51
00005440 00000043 1410.11 450.92 696.41 895.82 1561.73 769.46 1857.35 737.78 1699.34 948.26 1627.62 1096.98 1880.10 1069.96
00005441 00000044 1409.73 453.77 693.26 891.18 1560.87 768.67 1862.21 733.01 1703.58 943.13 1629.13 1099.97 1879.25 1068.41
00005442 00000045 1409.78 460.26 693.46 889.34 1563.01 765.59 1862.48 730.40 1707.04 939.31 1634.76 1102.38 1879.34 1071.36
00005443 00000046 1408.05 458.74 694.33 895.64 1563.85 765.93 1860.33 729.61 1707.07 938.16 1636.76 1101.57 1881.68 1069.25
00005444 00000047 1408.49 460.52 694.18 892.78 1564.25 766.25 1857.69 727.62 1704.51 936.83 1637.97 1097.82 1880.43 1063.30
00005445 00000048 1411.35 451.14 694.43 894.80 1562.04 766.55 1856.91 729.13 1700.16 933.88 1633.48 1092.27 1881.45 1060.33
00005446 00000049 1410.94 446.66 695.62 898.27 1563.24 766.66 1859.38 728.26 1704.03 933.67 1635.98 1091.39 1884.98 1058.50
00005447 00000050 1410.12 445.55 698.09 898.58 1565.26 765.24 1864.17 727.21 1708.48 929.66 1639.29 1088.54 1888.91 1055.64
00005448 00000051 1421.78 466.63 688.75 875.72 1577.30 769.41 1867.68 731.99 1713.59 923.03 1643.19 1084.30 1892.65 1051.36
00005449 00000052 1419.32 485.10 689.82 859.53 1580.09 764.31 1866.41 724.82 1718.97 923.44 1650.23 1085.51 1895.16 1048.84
00005450 00000053 1426.78 466.28 686.86 878.16 1583.04 766.21 1872.91 729.65 1719.20 921.62 1645.57 1082.57 1896.93 1050.41
00005451 00000054 1419.51 461.82 695.18 883.08 1578.65 759.05 1875.50 725.35 1722.17 924.39 1646.60 1083.71 1897.52 1055.57
00005452 00000055 1418.64 465.62 699.56 886.22 1577.94 761.95 1872.00 722.80 1720.03 928.86 1650.77 1091.91 1895.95 1056.51
00005453 00000056 1422.97 467.76 695.52 883.74 1578.90 762.58 1872.69 723.87 1720.34 928.56 1651.68 1093.45 1895.57 1058.43
00005454 00000057 1424.50 463.14 696.67 888.70 1579.78 762.39 1874.08 724.48 1721.13 927.07 1651.94 1093.65 1896.61 1059.36
00005455 00000058 1424.78 463.81 696.79 886.68 1581.00 762.52 1878.09 726.26 1724.98 926.17 1652.37 1093.92 1899.22 1061.08
00005456 00000059 1425.21 463.35 694.93 885.42 1582.18 764.22 1879.10 728.13 1728.04 931.34 1654.68 1095.93 1899.35 1063.59
00005457 00000060 1425.03 464.41 694.81 880.89 1581.85 766.75 1881.71 731.31 1730.14 934.17 1654.09 1097.80 1899.73 1066.02
00005458 00000061 1427.14 466.86 690.43 875.12 1583.73 767.81 1879.88 737.04 1729.25 929.91 1651.44 1096.19 1898.37 1069.81
00005459 00000062 1427.75 482.96 684.41 862.37 1584.84 775.22 1875.49 740.67 1727.51 940.73 1653.96 1098.49 1896.93 1067.50
00005460 00000063 1425.24 481.18 686.60 872.59 1584.33 777.48 1874.13 746.33 1725.18 946.06 1653.80 1100.43 1892.77 1073.04
00005461 00000064 1425.25 486.17 683.97 873.01 1583.77 778.06 1872.59 748.16 1724.68 943.64 1655.84 1106.01 1887.10 1079.78
00005462 00000065 1424.90 486.09 682.98 879.71 1582.56 779.68 1870.42 747.58 1723.63 943.95 1660.53 1111.93 1884.26 1083.99
00005463 00000066 1424.07 496.44 684.95 874.40 1584.28 776.15 1870.89 743.90 1725.18 946.26 1662.59 1109.89 1885.40 1082.25
00005464 00000067 1422.37 488.22 687.96 882.83 1585.09 775.44 1870.91 741.82 1726.18 948.60 1662.08 1105.68 1888.69 1077.32
00005465 00000068 1422.42 479.82 688.73 887.70 1583.80 775.74 1873.25 742.93 1725.33 946.16 1658.29 1106.00 1890.33 1078.03
00005466 00000069 1421.90 469.44 692.03 885.33 1581.85 775.49 1872.97 745.23 1720.38 936.26 1653.71 1102.42 1888.07 1077.16
00005467 00000070 1420.53 469.42 691.85 882.34 1579.32 770.10 1874.28 740.62 1720.29 930.37 1650.05 1099.14 1887.84 1074.46
00005468 00000071 1418.34 456.02 692.01 892.59 1575.96 765.67 1873.64 734.53 1719.38 925.84 1648.72 1099.08 1887.32 1073.07
00005469 00000072 1415.25 459.11 694.27 890.33 1572.46 767.51 1870.77 730.64 1718.02 928.80 1649.68 1098.41 1887.57 1065.36
00005470 00000073 1413.29 455.93 692.49 892.56 1569.72 766.81 1867.12 729.01 1715.23 926.79 1648.90 1098.44 1884.69 1064.33
00005471 00000074 1410.66 460.72 692.64 888.16 1567.14 767.28 1865.26 729.46 1711.59 926.30 1645.55 1098.29 1883.41 1063.85
00005472 00000075 1407.87 458.18 692.73 888.85 1565.17 768.22 1863.01 729.27 1709.65 926.22 1643.76 1096.95 1881.38 1061.51
00005473 00000076 1412.52 445.74 691.55 900.85 1563.40 770.49 1861.38 733.93 1704.67 926.36 1639.56 1096.91 1878.79 1066.05
00005474 00000077 1411.69 442.71 692.64 905.65 1562.98 770.83 1860.49 734.69 1702.95 928.37 1638.33 1099.10 1877.13 1068.68
00005475 00000078 1411.40 451.54 691.61 893.76 1562.45 775.89 1858.78 739.38 1703.89 931.40 1636.18 1099.89 1879.26 1068.83
00005476 00000079 1412.29 481.87 685.28 868.36 1570.51 774.63 1859.92 740.40 1708.67 937.47 1637.00 1098.35 1878.08 1067.48
00005477 00000080 1412.39 479.62 683.64 873.29 1571.36 774.76 1858.71 740.58 1709.61 937.03 1636.20 1098.82 1877.04 1068.23
00005478 00000081 1412.09 479.43 686.18 871.90 1571.38 773.29 1861.55 739.32 1710.79 935.70 1636.98 1099.03 1879.07 1068.67
00005479 00000082 1409.91 471.15 690.10 880.46 1567.56 775.53 1864.62 739.50 1711.20 934.65 1635.53 1100.74 1883.69 1068.51
00005480 00000083 1410.31 451.10 693.62 897.28 1563.44 771.65 1860.95 737.34 1706.62 935.40 1635.30 1100.50 1879.97 1071.92
00005481 00000084 1409.31 447.75 695.86 900.75 1562.93 769.36 1861.36 734.56 1707.26 940.09 1636.67 1102.44 1880.60 1073.32
00005482 00000085 1399.98 448.44 700.12 900.50 1565.27 775.12 1861.51 740.29 1707.05 940.19 1631.21 1106.42 1883.70 1076.64
00005483 00000086 1400.99 451.28 699.53 904.74 1566.73 776.23 1862.28 740.68 1708.20 940.32 1634.74 1111.04 1887.93 1080.40
00005484 00000087 1410.74 454.17 692.60 911.23 1566.07 771.06 1858.25 736.80 1709.26 941.03 1643.13 1105.27 1878.87 1075.56
00005485 00000088 1411.47 452.06 693.95 911.55 1565.63 770.06 1858.92 735.41 1708.38 936.26 1641.85 1102.93 1880.59 1072.36
00005486 00000089 1411.75 446.59 696.47 907.09 1566.10 767.01 1863.68 729.70 1708.89 935.69 1641.95 1100.82 1887.23 1069.36
00005487 00000090 1412.92 448.59 694.51 899.35 1566.54 766.68 1864.53 729.77 1709.78 934.45 1641.52 1097.60 1887.03 1066.36
00005488 00000091 1411.45 446.87 695.53 900.57 1565.76 767.90 1863.13 730.40 1708.46 934.89 1638.59 1094.78 1888.20 1062.75
00005489 00000092 1411.27 447.65 695.50 900.14 1565.54 768.28 1862.69 730.49 1707.80 935.43 1637.09 1093.58 1888.40 1061.19
00005490 00000093 1410.94 447.05 696.40 900.69 1565.61 767.93 1861.61 730.91 1705.82 935.67 1636.47 1091.31 1886.38 1059.49
00005491 00000094 1410.36 449.38 696.69 898.66 1565.27 768.55 1861.81 731.19 1706.56 935.30 1637.06 1092.72 1885.76 1060.68
00005492 00000095 1410.67 449.59 696.89 900.96 1565.12 769.68 1861.17 731.16 1705.85 935.16 1637.43 1095.57 1886.34 1062.39
00005493 00000096 1408.52 466.75 695.63 884.87 1568.80 768.91 1863.69 728.60 1712.37 938.00 1642.59 1096.60 1887.16 1060.57
00005494 00000097 1414.20 445.45 695.85 905.25 1569.31 769.43 1866.83 732.55 1711.32 935.88 1637.51 1093.98 1890.47 1062.08
00005495 00000098 1415.47 444.17 696.62 905.30 1570.25 769.69 1868.84 733.61 1712.88 937.08 1636.87 1094.29 1891.82 1062.95
00005496 00000099 1418.00 447.33 693.81 899.15 1572.27 771.81 1870.24 737.93 1713.59 937.21 1635.94 1095.16 1891.14 1065.69
00005497 00000100 1418.54 475.68 688.56 865.92 1577.34 776.48 1871.43 741.70 1719.70 943.94 1640.90 1095.95 1891.21 1064.30
00005498 00000101 1418.75 476.25 686.43 870.31 1576.14 780.35 1869.47 744.80 1717.97 946.68 1639.22 1098.75 1890.24 1066.89
00005499 00000102 1418.12 468.99 687.90 877.96 1575.17 779.20 1869.71 744.87 1715.90 946.97 1637.69 1099.34 1888.39 1068.69
00005500 00000103 1405.97 447.78 695.57 900.75 1572.63 784.53 1862.53 754.86 1708.05 944.53 1625.50 1098.94 1883.77 1074.05
00005501 00000104 1400.24 447.89 698.74 905.78 1567.98 781.81 1859.41 751.95 1703.46 949.18 1624.95 1102.28 1881.83 1076.56
00005502 00000105 1405.12 442.99 698.75 912.22 1562.50 777.15 1857.73 746.83 1700.86 956.23 1630.71 1106.35 1878.06 1080.29
00005503 00000106 1400.72 442.60 699.11 911.40 1559.09 777.65 1853.13 747.00 1697.01 956.26 1629.04 1106.42 1873.79 1080.02
00005504 00000107 1396.83 442.16 696.60 916.44 1550.55 782.05 1846.84 748.86 1693.15 958.07 1621.42 1109.04 1867.60 1079.83
00005505 00000108 1392.23 443.97 696.37 915.75 1544.63 786.64 1841.79 751.24 1688.98 961.12 1617.84 1111.84 1863.87 1080.77
00005506 00000109 1387.97 449.81 697.72 911.84 1539.85 788.46 1835.47 751.04 1683.30 961.30 1616.63 1115.04 1860.11 1082.38
00005507 00000110 1384.78 454.39 699.23 911.56 1537.15 789.50 1830.46 750.67 1680.20 962.85 1615.70 1117.06 1857.18 1083.56
00005508 00000111 1383.08 446.42 699.41 921.97 1535.15 788.92 1826.48 750.15 1676.39 964.02 1614.11 1117.53 1853.72 1084.30
00005509 00000112 1381.82 447.86 698.57 922.55 1531.59 789.37 1823.96 749.85 1672.22 965.53 1613.02 1119.25 1851.73 1085.78
00005510 00000113 1380.48 439.60 696.94 928.86 1528.25 792.52 1821.87 751.54 1669.68 965.19 1611.49 1123.62 1849.25 1088.62
00005511 00000114 1379.28 444.24 694.99 923.45 1527.65 792.64 1818.51 753.71 1667.79 968.29 1608.89 1123.02 1841.83 1090.15
00005512 00000115 1378.77 444.59 693.88 921.47 1524.03 793.56 1817.55 754.40 1663.85 967.44 1605.77 1124.70 1840.76 1091.55
00005513 00000116 1376.76 437.84 692.75 928.15 1521.77 795.38 1815.49 755.70 1662.02 968.75 1604.21 1126.05 1837.71 1092.75
CROP_BBOX: 1036 0 2572 1661
