Video ID: 	4KuR8x1eJmE
H: 	1920
W: 	1080
FPS: 	29.97002997002997

FRAME INDEX X0 Y0 W H [Landmarks (5 Points)]

00001423 00000000 264.08 454.67 386.14 556.80 297.84 658.48 491.35 643.68 345.92 737.60 309.67 879.24 467.52 868.29
00001424 DELETE   273.66 448.76 391.80 578.95 316.14 653.89 507.95 638.62 357.67 724.24 326.18 878.81 483.62 867.00
00001425 00000002 286.76 444.09 393.90 577.50 330.32 651.14 520.54 635.25 376.37 722.28 338.32 870.60 504.25 858.72
00001426 00000003 296.33 420.38 391.81 596.32 334.41 643.85 531.86 630.73 384.53 713.09 339.71 864.58 519.30 855.08
00001427 00000004 305.50 415.13 393.65 612.18 349.18 632.46 549.51 627.87 395.81 711.81 348.84 858.50 534.78 855.04
00001428 00000005 313.77 411.14 401.69 612.65 360.97 630.05 563.66 626.19 408.68 710.42 360.28 855.18 549.07 852.20
00001429 00000006 325.28 408.36 402.34 617.52 373.15 624.14 575.43 622.30 418.81 716.57 371.13 852.02 557.18 849.97
00001430 00000007 339.47 407.40 400.54 608.64 385.22 628.07 582.37 625.59 434.21 705.53 383.42 846.88 568.14 845.84
00001431 00000008 345.76 422.23 399.59 593.02 391.30 626.13 587.17 621.85 443.47 697.74 395.21 844.77 582.67 842.29
00001432 00000009 352.01 416.78 402.94 602.96 394.77 627.12 589.66 619.53 443.39 698.43 402.01 845.84 586.20 840.82
00001433 00000010 355.78 414.30 406.52 633.15 397.23 640.33 591.05 625.99 442.82 708.40 410.18 861.19 594.63 850.05
00001434 00000011 354.90 446.27 404.29 617.20 398.89 661.94 592.61 646.28 445.15 735.09 419.01 882.79 606.98 869.38
00001435 00000012 352.34 448.78 416.34 626.18 391.97 681.24 590.26 660.04 444.79 766.46 426.29 903.17 619.36 884.97
00001436 00000013 348.73 474.72 419.21 614.16 395.97 702.45 587.99 680.86 446.09 794.62 431.26 921.26 615.15 902.56
00001437 00000014 341.74 478.64 424.28 620.54 387.57 721.08 582.40 693.73 441.44 812.15 424.80 935.98 614.94 912.31
00001438 00000015 335.31 488.05 437.14 620.64 384.70 742.27 579.30 708.37 441.62 835.77 428.90 957.45 612.95 926.69
00001439 00000016 327.49 486.99 447.10 629.88 380.49 747.61 575.13 718.72 438.95 853.58 424.99 963.47 610.89 936.85
00001440 00000017 325.61 493.59 450.77 630.05 379.87 750.88 577.29 722.68 439.15 859.03 423.80 969.73 610.20 943.79
00001441 00000018 324.07 493.97 452.94 634.54 377.43 753.12 576.60 722.84 437.87 861.98 424.61 977.47 608.09 949.94
00001442 00000019 321.53 501.20 453.47 629.55 375.34 755.79 573.09 728.60 434.93 866.56 422.38 977.94 605.33 952.94
00001443 00000020 319.73 502.54 453.78 635.04 375.15 755.67 573.55 730.43 434.97 866.81 419.88 980.31 604.08 957.02
00001444 00000021 310.73 508.13 455.99 628.13 368.96 758.63 570.03 730.07 433.81 869.33 417.19 985.80 599.68 959.80
00001445 00000022 308.08 511.26 462.81 635.53 363.93 766.11 568.58 735.09 429.18 873.24 411.28 992.67 599.90 964.77
00001446 00000023 305.88 509.87 461.34 640.31 363.24 767.67 566.08 734.58 428.23 873.53 412.42 996.93 597.88 967.48
00001447 00000024 304.49 502.48 457.71 646.93 361.60 766.89 562.04 732.39 427.31 873.34 412.66 996.51 597.00 965.45
00001448 00000025 303.94 512.77 457.03 632.50 361.03 769.91 562.44 735.35 427.86 874.00 411.51 998.86 593.03 968.25
00001449 00000026 310.31 513.83 448.02 615.06 363.42 763.69 558.54 736.60 419.23 876.00 402.72 985.78 582.72 963.31
00001450 00000027 296.14 510.16 458.32 614.74 354.15 763.84 556.38 735.08 421.41 872.99 403.15 989.26 582.12 964.01
00001451 00000028 293.94 509.23 462.78 607.13 352.42 761.89 557.16 732.80 419.71 869.50 399.51 985.39 578.02 960.02
00001452 00000029 297.58 491.10 460.22 622.31 349.83 750.38 556.04 726.55 413.16 865.27 397.28 975.05 573.51 952.90
00001453 00000030 296.36 491.97 457.06 619.61 354.99 750.91 556.44 723.18 419.95 860.51 402.36 976.11 577.80 951.86
00001454 00000031 291.28 486.74 460.91 628.14 347.65 739.31 555.35 715.24 412.24 854.92 394.56 968.77 574.54 946.47
00001455 00000032 285.59 484.94 454.17 625.00 340.37 733.44 549.69 708.95 406.23 846.87 384.87 963.59 567.70 941.18
00001456 00000033 281.55 476.34 452.62 623.97 333.88 725.73 541.11 707.75 394.90 844.92 374.59 958.48 554.54 942.33
00001457 00000034 274.39 466.13 459.08 635.22 327.77 726.23 530.31 704.05 385.11 839.52 371.09 960.96 541.70 941.71
00001458 00000035 273.68 476.34 455.94 631.24 327.24 722.89 525.68 705.50 378.39 837.08 368.56 968.17 525.80 953.63
00001459 00000036 276.25 478.11 446.95 624.90 322.15 719.59 520.90 700.19 371.99 833.00 362.45 967.25 517.60 951.55
00001460 00000037 275.78 475.87 445.11 633.88 321.72 717.08 516.09 697.25 365.83 828.18 360.22 964.00 514.90 947.69
00001461 00000038 276.99 481.14 434.33 633.02 324.17 717.21 516.91 696.54 367.75 822.80 357.92 957.24 521.63 939.89
00001462 00000039 274.78 475.75 440.00 646.96 326.04 714.19 516.37 692.88 364.04 815.48 356.45 953.52 524.62 935.03
00001463 00000040 283.51 484.45 432.68 638.27 330.85 706.71 521.87 691.67 366.38 811.42 358.86 950.44 527.49 938.01
00001464 00000041 282.52 483.03 434.03 638.30 331.28 706.53 522.73 691.85 367.69 810.95 359.93 951.61 526.74 939.66
00001465 00000042 282.72 476.40 427.20 653.60 331.33 704.60 519.92 691.90 364.15 809.93 357.18 951.74 520.33 941.20
00001466 00000043 280.14 475.34 438.00 645.56 328.99 702.92 515.75 691.67 360.58 805.80 351.63 943.87 515.79 934.43
00001467 00000044 276.96 478.61 427.78 627.28 321.96 708.05 504.91 691.36 357.88 803.45 344.20 940.91 505.97 928.01
00001468 00000045 274.98 482.00 427.93 613.47 319.12 703.53 502.56 686.69 352.21 795.97 339.20 936.39 501.42 924.03
00001469 00000046 265.13 468.02 435.32 623.62 313.06 699.14 500.10 679.05 349.56 794.57 336.73 934.51 496.01 918.61
00001470 00000047 260.54 467.57 438.31 614.13 310.20 693.16 495.29 673.22 347.41 791.02 334.26 925.72 489.21 910.23
00001471 00000048 261.07 470.86 438.03 613.03 310.44 696.21 496.39 673.82 347.95 791.97 335.61 929.64 491.10 912.07
00001472 00000049 259.30 476.30 432.33 611.51 308.45 701.29 495.41 679.93 346.09 794.60 331.80 932.99 489.17 916.21
00001473 00000050 255.12 463.46 439.51 622.49 305.19 694.25 498.98 672.46 350.77 790.49 334.54 934.74 492.46 916.79
00001474 00000051 260.09 474.89 438.85 613.65 310.25 704.45 502.87 679.14 359.18 801.44 346.43 943.37 503.49 922.73
00001475 00000052 263.84 469.65 436.83 617.25 313.83 714.78 507.86 688.03 364.16 803.97 347.24 947.19 505.31 925.57
00001476 00000053 271.13 482.66 430.64 598.96 320.44 720.43 513.54 690.68 374.04 805.71 357.38 945.96 517.32 921.55
00001477 00000054 272.67 468.27 430.82 616.31 321.98 723.16 514.36 695.88 375.75 812.69 358.97 948.24 521.73 925.60
00001478 00000055 275.58 481.68 425.67 598.33 321.27 730.73 513.46 698.61 376.75 818.56 360.80 950.01 523.23 923.78
00001479 00000056 269.13 484.81 434.77 612.71 323.71 736.62 514.20 704.74 380.44 823.65 366.80 959.43 520.51 933.12
00001480 00000057 271.43 506.91 427.84 608.40 323.01 753.42 512.81 720.75 379.89 840.84 362.86 976.13 525.39 950.40
00001481 00000058 264.10 502.72 438.76 619.89 321.67 756.74 513.69 729.60 380.04 850.07 365.91 982.21 524.46 959.44
00001482 00000059 263.57 517.13 436.93 608.10 321.20 763.88 512.42 732.77 381.58 856.74 367.59 987.76 527.94 961.74
00001483 00000060 263.41 536.81 438.81 587.28 322.29 773.59 509.42 739.24 380.43 865.39 366.35 992.46 526.09 964.45
00001484 00000061 263.08 538.60 434.79 585.30 321.56 773.43 506.79 740.76 377.85 864.32 363.08 991.89 522.71 965.29
00001485 00000062 257.22 540.56 437.88 583.56 316.80 770.66 508.35 737.71 378.90 861.48 363.17 992.12 524.46 964.48
00001486 00000063 253.05 535.04 437.65 588.54 313.20 766.80 505.98 735.19 375.52 857.66 358.33 989.99 521.31 963.32
00001487 00000064 249.72 529.30 438.78 592.09 310.49 763.92 502.38 731.28 372.23 851.23 355.57 987.99 516.05 960.37
00001488 00000065 248.07 520.85 439.90 601.53 308.75 761.69 500.33 727.71 370.05 850.51 356.09 988.37 515.61 959.53
00001489 00000066 252.94 524.13 436.06 605.15 304.93 760.92 497.20 728.34 362.03 854.01 353.95 987.46 514.03 958.81
00001490 00000067 253.00 538.77 433.06 590.55 303.65 764.71 495.86 731.49 361.54 857.83 353.90 989.87 514.93 960.56
00001491 00000068 248.69 541.45 431.46 586.20 304.60 767.23 496.13 731.17 367.83 855.50 354.14 996.49 516.45 965.42
00001492 00000069 256.94 552.24 427.81 570.83 311.69 771.23 497.94 734.07 369.65 854.62 354.51 993.40 516.43 963.16
00001493 00000070 254.15 559.22 428.32 563.39 309.14 774.23 495.38 734.38 366.71 855.24 354.36 995.62 515.96 963.07
00001494 00000071 251.39 538.45 429.56 589.57 303.28 766.52 495.32 730.87 361.96 855.66 354.42 992.93 510.45 962.03
00001495 00000072 252.94 530.51 429.33 596.60 303.22 760.48 494.50 726.97 360.09 854.16 353.31 989.41 508.66 960.39
00001496 00000073 249.32 516.12 432.66 610.03 301.51 753.83 492.39 724.67 358.59 855.30 351.69 984.78 505.14 959.67
00001497 00000074 246.88 513.71 439.69 605.70 302.88 752.05 492.97 727.97 356.21 851.73 346.19 976.10 496.87 955.67
00001498 00000075 250.50 510.83 434.66 593.73 302.81 748.92 497.66 720.83 363.89 845.17 347.28 971.13 503.46 948.05
00001499 00000076 255.08 507.76 432.44 595.54 306.22 739.74 495.93 716.56 357.13 839.91 344.64 964.20 498.67 944.64
00001500 00000077 255.51 500.81 428.44 604.32 303.23 734.73 487.87 712.88 351.17 835.96 340.60 964.98 492.84 946.89
00001501 00000078 258.32 506.14 426.13 606.51 302.81 734.01 485.63 717.31 344.70 837.69 339.25 964.26 489.31 950.02
00001502 00000079 264.43 508.50 425.19 602.79 302.87 736.92 478.60 720.22 332.32 837.73 332.94 967.01 483.01 952.30
00001503 00000080 268.17 498.75 418.27 602.80 303.94 734.00 473.77 718.46 326.44 833.60 329.82 961.96 474.56 948.60
00001504 00000081 274.33 499.78 416.18 597.31 307.46 730.72 474.78 716.05 324.49 828.06 332.77 957.41 476.36 944.62
00001505 00000082 277.60 496.75 411.69 597.33 312.29 728.23 473.40 714.61 325.00 826.78 335.79 954.59 472.42 942.79
00001506 00000083 284.56 495.78 410.96 591.14 316.89 722.31 478.93 710.92 328.39 823.67 340.42 949.44 478.64 939.61
00001507 00000084 292.17 486.00 405.88 596.81 318.25 724.08 480.86 709.66 329.64 819.54 341.77 949.53 479.68 937.65
00001508 00000085 298.32 481.50 401.73 596.13 319.44 720.81 483.26 707.78 330.45 816.04 341.29 945.15 477.99 935.07
00001509 00000086 299.39 471.34 406.05 604.78 325.09 710.29 485.51 702.17 329.20 809.84 337.70 940.95 461.33 935.67
00001510 00000087 300.04 479.50 411.08 598.89 336.79 709.87 488.23 702.33 330.22 806.60 337.64 938.45 447.43 934.36
00001511 00000088 306.90 485.92 403.09 590.45 343.92 704.77 488.77 699.83 328.85 803.14 339.70 933.78 442.91 931.70
00001512 00000089 309.58 468.51 400.92 610.41 344.24 701.22 482.71 692.41 320.61 796.79 344.26 930.78 449.11 924.88
00001513 DELETE   307.09 467.71 397.48 611.56 346.73 692.95 476.54 685.65 315.78 794.58 349.52 924.30 455.11 918.81
00001514 DELETE   304.23 473.07 406.13 601.27 351.44 683.42 471.43 679.03 311.24 789.09 352.68 916.88 454.24 913.25
00001515 00000092 305.18 469.02 401.50 603.20 351.27 676.49 463.34 674.43 313.61 782.94 355.01 912.86 447.27 908.54
00001516 00000093 313.78 481.75 395.60 586.28 359.81 680.25 463.07 675.05 316.29 785.02 367.49 914.46 448.57 907.00
00001517 00000094 317.87 472.79 407.24 602.00 371.90 686.56 471.33 677.33 318.11 788.97 377.40 917.88 461.91 909.69
00001518 00000095 331.00 475.78 392.09 596.62 375.74 688.67 471.90 679.79 326.01 788.81 384.10 922.13 459.38 912.35
00001519 00000096 339.13 478.80 400.37 600.89 388.95 689.68 475.23 680.25 324.98 790.23 394.89 926.82 462.34 916.51
00001520 00000097 342.14 478.08 398.39 604.70 395.59 686.77 479.93 680.86 331.25 788.56 396.79 923.30 463.55 915.86
00001521 00000098 343.19 472.00 406.05 607.75 400.12 685.53 490.19 680.10 336.65 783.21 392.48 923.00 456.48 916.94
00001522 00000099 347.39 466.57 412.43 599.08 411.73 678.73 501.54 677.40 338.70 777.57 387.09 908.85 450.89 907.47
00001523 00000100 358.44 465.21 408.47 596.05 421.04 674.88 510.36 675.45 351.64 771.56 393.78 904.63 457.55 904.30
00001524 00000101 370.54 457.76 413.74 611.99 431.75 675.37 522.59 673.09 360.59 772.68 408.71 908.33 472.93 905.97
00001525 00000102 379.63 462.13 411.69 617.55 443.32 678.66 531.08 672.55 372.16 771.19 422.59 913.09 485.61 907.11
00001526 00000103 383.65 465.04 411.80 608.86 448.30 678.28 537.59 675.23 380.21 772.05 430.94 911.60 492.76 907.62
00001527 00000104 386.48 458.48 415.12 613.92 450.17 679.16 542.51 677.74 382.87 772.89 431.67 911.57 494.00 909.63
00001528 00000105 388.24 451.07 414.76 619.05 451.98 675.44 543.89 678.91 384.38 771.80 432.66 906.96 494.79 909.28
00001529 00000106 387.61 444.92 409.89 628.89 453.24 675.38 542.03 681.74 385.84 772.42 432.36 907.01 492.52 911.89
00001530 00000107 385.20 439.91 415.05 628.44 458.48 672.51 547.53 683.09 394.64 772.77 427.94 903.79 486.99 912.62
00001531 00000108 387.33 426.47 424.31 634.98 463.56 670.98 547.79 680.25 393.50 767.89 431.64 900.42 482.93 908.12
00001532 00000109 388.65 432.72 423.88 627.48 463.05 671.98 548.65 677.93 393.76 767.53 429.49 903.97 480.59 908.98
00001533 00000110 391.98 429.66 419.65 634.17 462.43 671.42 553.34 680.96 396.76 768.93 431.69 902.22 487.75 910.36
00001534 00000111 397.19 444.43 413.68 618.90 468.53 669.07 563.10 677.43 407.46 768.76 440.64 899.13 503.38 905.96
00001535 00000112 400.03 451.29 419.86 613.10 471.64 665.96 568.54 675.42 408.88 765.56 444.49 897.08 509.69 904.34
00001536 00000113 405.21 445.24 422.83 618.97 472.31 662.96 571.09 673.02 411.90 766.56 452.68 897.55 518.11 905.01
00001537 00000114 406.40 443.67 419.90 619.09 474.06 663.46 575.02 673.23 416.00 766.19 450.39 895.81 518.02 903.57
00001538 00000115 405.83 442.20 427.29 616.84 477.60 663.12 576.40 671.47 412.47 758.05 445.33 893.45 511.65 900.39
00001539 00000116 398.33 440.78 430.57 612.91 470.26 660.20 574.99 669.94 407.34 754.24 432.32 888.96 501.75 897.31
00001540 00000117 391.81 446.95 434.35 611.07 468.55 662.09 574.00 669.66 401.77 752.18 425.48 890.70 495.77 897.05
00001541 00000118 383.07 456.26 442.47 599.93 469.15 657.80 569.76 668.24 393.88 743.25 417.50 885.94 481.03 893.94
00001542 00000119 379.30 465.62 443.05 591.00 478.40 657.63 563.93 662.75 383.57 739.28 405.97 888.60 465.70 892.24
00001543 00000120 381.23 454.51 435.61 615.13 469.28 649.95 563.90 656.34 389.78 736.92 420.78 889.19 480.46 894.63
00001544 00000121 386.06 430.28 419.07 654.75 455.98 644.84 562.16 644.62 397.32 732.31 430.24 894.29 509.85 892.83
00001545 00000122 388.23 428.16 419.53 656.74 452.19 646.56 564.25 645.96 396.52 733.73 431.55 894.28 517.33 892.70
00001546 00000123 388.71 433.91 423.77 634.01 451.68 644.05 564.81 647.13 390.46 734.36 427.71 887.90 514.60 890.11
00001547 00000124 385.50 436.31 425.90 625.40 449.49 641.56 562.31 647.99 385.24 737.02 424.33 882.18 512.27 887.31
00001548 00000125 376.49 434.74 426.34 607.04 443.66 642.95 557.78 652.64 383.92 734.13 412.54 871.86 495.15 880.77
00001549 00000126 370.47 431.07 431.37 605.66 441.22 639.69 559.33 649.36 383.11 726.68 408.55 865.13 490.67 874.21
00001550 00000127 369.18 431.15 421.20 596.41 439.19 638.74 556.73 648.93 384.64 724.31 404.02 859.31 485.03 868.98
00001551 00000128 365.34 426.95 433.15 607.08 435.63 639.50 555.87 649.38 379.82 729.10 403.16 865.57 486.59 875.03
00001552 00000129 365.54 431.84 421.25 608.45 429.10 644.02 553.51 648.69 378.44 735.21 403.34 875.17 493.77 880.10
00001553 00000130 361.75 427.76 420.51 618.82 415.30 649.35 548.68 648.56 372.79 739.93 396.93 883.64 496.78 883.75
00001554 00000131 358.24 437.60 413.50 613.51 407.74 653.00 542.67 650.98 368.78 743.77 388.67 887.61 494.30 886.06
00001555 00000132 348.99 429.13 426.40 626.31 398.78 653.80 539.78 651.84 364.32 744.70 382.55 891.31 493.80 890.07
00001556 00000133 343.24 432.80 421.60 625.50 395.29 652.53 534.41 650.00 362.33 746.42 379.93 891.30 492.79 889.04
00001557 00000134 342.39 434.12 421.40 624.66 388.19 656.33 527.52 648.89 355.74 749.63 379.65 896.19 494.84 889.06
00001558 00000135 333.80 433.07 430.63 627.40 385.76 652.44 522.75 647.11 351.21 747.08 375.86 892.66 489.25 887.18
00001559 00000136 330.58 427.50 421.45 639.19 376.44 650.88 523.15 645.11 352.43 746.38 371.06 893.55 496.28 887.32
00001560 00000137 324.76 427.97 426.51 640.33 365.97 652.98 522.50 639.46 348.49 736.25 364.37 892.75 497.72 881.31
00001561 00000138 316.87 429.17 420.58 643.91 355.21 654.43 517.54 641.51 344.11 737.66 354.40 892.00 496.00 881.23
00001562 00000139 311.07 424.34 411.85 645.26 345.63 654.51 509.80 638.34 336.46 736.29 349.11 894.17 489.83 880.75
00001563 00000140 293.81 422.69 420.44 635.43 328.75 654.14 504.72 636.32 331.76 732.59 333.15 889.40 482.01 875.17
00001564 00000141 284.51 418.33 429.83 631.96 323.81 650.45 504.64 632.53 329.38 721.34 325.25 883.21 475.62 869.11
00001565 00000142 279.80 418.97 428.07 624.24 319.87 651.80 501.83 629.23 327.39 710.65 318.44 879.32 469.68 861.82
00001566 00000143 275.50 420.01 424.21 617.09 318.45 649.10 499.41 630.94 328.00 712.27 314.70 872.62 464.35 858.88
00001567 00000144 271.15 420.37 422.27 609.45 311.71 649.07 494.85 630.46 326.30 710.01 307.66 871.89 460.51 858.28
00001568 00000145 264.64 428.58 414.28 591.73 307.46 655.17 481.99 636.37 319.02 712.91 301.36 870.10 447.73 855.89
00001569 00000146 255.12 435.16 409.50 582.03 289.58 655.84 473.85 632.57 310.30 717.97 292.19 869.50 442.91 852.99
00001570 00000147 246.59 434.01 412.40 584.78 283.96 658.29 466.46 636.07 305.00 722.85 288.84 869.78 435.65 854.25
00001571 00000148 238.28 437.96 414.98 592.22 278.79 665.34 460.14 639.21 300.85 730.78 287.23 883.11 429.70 864.07
00001572 00000149 232.69 444.89 417.73 589.64 272.21 672.17 454.10 644.21 295.00 737.51 283.01 889.58 426.15 868.44
00001573 00000150 222.09 458.63 423.28 583.42 266.73 683.47 451.21 655.39 292.61 742.19 277.31 896.42 425.51 874.17
00001574 00000151 214.88 463.51 420.74 581.14 259.61 687.31 443.32 659.15 290.18 744.14 273.06 898.91 425.15 875.99
00001575 00000152 207.52 461.45 419.60 590.39 252.69 685.94 441.41 658.28 291.72 745.32 269.04 903.80 427.62 881.06
00001576 00000153 205.19 453.60 418.13 603.31 248.84 682.74 439.38 657.55 288.10 750.14 271.24 905.94 430.74 884.97
00001577 00000154 197.15 452.15 416.17 596.47 238.37 687.66 434.04 655.20 286.89 750.31 268.97 909.69 429.93 882.75
00001578 00000155 191.39 454.18 416.58 591.60 233.23 683.66 429.00 655.13 282.58 754.41 261.42 907.61 422.02 884.16
00001579 00000156 185.73 453.18 414.80 599.73 229.00 684.93 426.53 659.37 279.94 756.75 254.25 908.58 419.98 887.50
00001580 00000157 182.42 459.10 415.12 601.62 227.97 690.26 425.73 665.93 278.80 766.85 252.80 912.91 422.00 892.63
00001581 00000158 176.69 460.63 419.05 606.38 228.55 693.57 425.44 670.15 280.90 773.39 254.77 917.63 418.69 898.42
00001582 00000159 174.34 465.44 416.75 599.90 226.30 693.63 423.53 668.48 281.05 771.86 252.60 917.62 420.22 896.54
00001583 00000160 177.09 466.79 412.24 594.91 225.60 692.18 423.13 666.60 281.48 767.47 251.89 916.02 420.38 894.54
00001584 00000161 172.80 471.69 410.00 589.25 222.96 691.94 420.99 665.20 281.79 764.47 250.02 914.66 418.08 892.10
00001585 00000162 168.10 467.12 409.00 598.25 219.15 699.97 415.56 665.93 281.09 762.13 248.04 916.42 418.55 889.32
00001586 00000163 168.13 472.47 408.85 585.35 215.20 703.12 411.16 668.81 277.08 759.91 244.51 919.13 417.84 892.06
00001587 00000164 162.96 470.94 411.59 579.92 211.96 705.71 406.13 672.34 273.62 763.43 241.58 919.02 411.65 892.91
00001588 00000165 165.01 468.71 406.22 583.72 211.43 705.75 406.21 669.94 274.45 762.64 242.70 918.25 413.10 890.02
00001589 00000166 158.99 467.81 411.48 600.63 215.03 706.52 407.66 672.33 278.18 770.23 246.70 920.17 414.22 892.84
00001590 00000167 156.61 476.32 417.07 597.32 215.02 708.69 407.12 676.46 278.15 777.89 247.94 925.76 408.41 900.29
00001591 00000168 158.48 479.10 413.34 601.60 216.50 711.29 408.34 678.51 278.34 781.99 250.38 929.62 412.36 903.22
00001592 00000169 165.70 480.03 407.84 595.67 217.93 711.24 411.06 677.94 282.11 779.29 251.38 930.43 416.42 903.52
00001593 00000170 166.87 483.54 408.47 593.99 221.71 708.96 413.60 677.80 284.82 779.72 255.14 929.41 419.54 904.25
