Video ID: 	URkX27z9Kvg
H: 	1080
W: 	1920
FPS: 	25.0

FRAME INDEX X0 Y0 W H [Landmarks (5 Points)]

00005095 00000000 843.58 220.43 502.83 657.86 956.60 490.23 1160.18 452.76 1065.81 609.33 1033.79 722.46 1197.66 692.13
00005096 00000001 844.22 216.64 502.25 665.75 958.04 488.32 1161.30 447.91 1070.57 604.32 1036.47 722.18 1203.96 689.37
00005097 00000002 844.39 215.02 506.42 667.16 958.75 485.49 1163.09 444.21 1072.45 599.91 1037.90 717.50 1208.64 683.76
00005098 00000003 846.96 218.90 507.10 661.57 959.84 481.42 1165.92 439.11 1074.52 594.09 1039.77 712.86 1213.51 678.07
00005099 00000004 847.44 212.68 504.49 662.36 960.88 477.75 1165.32 435.74 1075.00 587.80 1037.47 707.23 1212.03 672.69
00005100 DELETE   847.19 211.30 500.91 652.28 958.79 478.61 1163.04 434.11 1070.41 581.32 1033.91 705.63 1203.82 668.76
00005101 00000006 846.72 207.65 500.83 659.14 959.04 472.97 1161.29 430.57 1068.34 577.04 1034.34 705.22 1199.45 669.66
00005102 00000007 842.45 205.04 506.27 662.16 953.29 467.42 1155.29 425.57 1061.62 577.19 1031.17 702.50 1199.19 667.12
00005103 00000008 836.46 204.57 510.80 650.93 946.43 462.87 1152.14 420.47 1052.13 569.69 1019.15 696.35 1190.62 658.78
00005104 00000009 833.11 204.68 511.32 651.78 943.52 459.59 1147.35 418.71 1045.85 568.06 1013.40 693.59 1183.48 657.00
00005105 00000010 833.72 201.97 511.11 662.50 942.86 458.92 1142.54 418.68 1044.79 573.09 1017.42 693.84 1185.06 659.62
00005106 00000011 830.04 192.23 511.22 668.11 940.76 458.89 1140.57 418.79 1042.00 572.26 1014.66 694.96 1177.64 661.17
00005107 00000012 829.15 190.35 511.83 670.36 939.32 457.63 1138.10 417.24 1040.22 571.04 1015.09 694.44 1176.09 660.35
00005108 00000013 827.96 190.33 512.77 674.36 938.26 458.16 1138.87 417.35 1040.37 571.14 1012.98 695.80 1176.40 661.32
00005109 00000014 827.11 191.41 513.95 672.12 938.34 460.19 1137.98 418.91 1039.22 571.31 1012.70 695.90 1175.55 660.99
00005110 00000015 826.52 197.38 515.96 667.46 938.09 460.45 1137.87 418.21 1038.98 570.31 1013.61 696.61 1176.35 660.85
00005111 00000016 826.19 201.29 517.38 666.05 936.06 461.82 1136.15 418.22 1036.54 572.23 1012.86 698.59 1177.32 661.60
00005112 00000017 824.28 199.20 520.94 672.16 934.25 463.50 1135.36 418.89 1035.05 573.47 1011.50 701.51 1177.77 663.62
00005113 00000018 823.67 198.66 520.85 674.49 931.78 463.67 1134.53 419.38 1033.13 575.75 1008.46 702.93 1178.39 665.19
00005114 00000019 821.93 198.79 522.36 675.75 931.22 464.13 1134.80 420.20 1033.12 577.83 1007.77 702.88 1178.71 665.27
00005115 00000020 822.43 198.09 521.41 678.46 930.94 465.57 1133.37 421.40 1031.81 579.11 1007.22 704.03 1178.10 666.20
00005116 00000021 823.03 202.39 522.17 674.67 930.96 465.77 1133.55 421.73 1031.76 580.17 1008.40 705.09 1179.00 667.38
00005117 00000022 817.67 202.43 523.29 662.80 925.14 460.80 1125.09 414.74 1025.53 575.04 1006.75 701.11 1171.65 660.40
00005118 00000023 818.19 203.16 523.20 663.52 925.86 461.21 1124.78 414.93 1025.83 576.04 1008.16 702.60 1172.18 661.72
00005119 00000024 818.59 204.20 523.58 662.71 927.12 461.29 1125.92 414.98 1027.79 576.19 1009.06 702.69 1173.96 661.70
00005120 00000025 819.17 207.67 523.63 661.50 927.13 463.60 1125.46 415.88 1026.87 575.94 1009.39 703.99 1174.78 661.87
00005121 00000026 819.32 208.61 523.84 661.69 926.68 463.23 1124.74 415.51 1025.92 576.32 1009.52 704.58 1174.66 662.45
00005122 00000027 820.40 208.00 522.89 663.54 925.58 462.96 1123.69 415.55 1024.06 576.56 1007.62 704.58 1173.96 662.70
00005123 00000028 819.89 208.48 522.54 662.80 924.23 462.48 1122.36 415.23 1022.62 578.26 1006.86 704.09 1173.51 662.40
00005124 00000029 820.16 207.65 522.02 662.02 924.05 462.92 1121.69 415.99 1021.80 578.74 1006.84 703.87 1172.49 662.47
00005125 00000030 820.06 210.22 522.72 657.55 924.05 463.54 1122.28 416.46 1022.22 578.76 1007.53 704.04 1172.28 662.56
00005126 00000031 820.50 210.16 523.20 657.87 924.93 464.34 1123.63 416.86 1023.47 578.47 1008.41 704.60 1173.78 662.70
00005127 00000032 820.60 207.86 522.96 659.44 925.31 464.61 1124.65 417.64 1024.22 579.55 1007.76 703.81 1174.69 662.33
00005128 00000033 821.39 209.91 522.85 657.03 925.15 464.34 1124.89 418.18 1023.55 580.48 1007.78 703.80 1174.48 663.07
00005129 00000034 821.54 210.68 521.67 652.54 924.74 465.57 1124.42 419.80 1022.91 582.35 1007.27 702.26 1173.66 661.94
00005130 00000035 821.56 211.83 522.16 650.08 925.14 466.20 1124.61 420.95 1022.72 582.55 1007.59 701.55 1172.61 661.76
00005131 00000036 822.74 212.66 519.70 643.31 925.93 466.69 1125.15 422.95 1023.25 583.70 1009.17 699.77 1171.79 661.31
00005132 00000037 829.39 213.04 518.09 649.23 932.36 468.93 1136.31 426.93 1031.33 586.79 1012.85 702.73 1177.92 666.97
00005133 00000038 829.02 208.39 514.82 651.29 936.01 467.60 1140.14 427.83 1038.20 586.98 1013.93 699.79 1180.11 665.93
00005134 00000039 830.80 210.62 512.28 648.28 937.38 467.74 1141.75 426.97 1041.21 585.78 1015.07 698.67 1183.39 663.98
00005135 00000040 829.75 210.68 513.53 650.59 936.87 468.42 1140.75 426.55 1040.78 585.71 1015.19 699.79 1183.71 664.09
00005136 00000041 826.15 211.11 515.54 649.60 934.07 468.89 1138.41 426.09 1037.97 584.57 1012.58 700.59 1179.92 664.10
00005137 00000042 825.33 210.17 516.63 648.87 933.14 468.30 1135.86 425.10 1034.99 582.85 1011.39 698.47 1178.12 661.70
00005138 00000043 823.34 206.56 519.67 655.24 931.81 467.70 1134.57 423.99 1033.33 582.27 1009.91 698.60 1178.41 661.20
00005139 00000044 824.02 203.26 517.57 660.08 931.55 465.68 1132.56 422.68 1031.93 581.04 1008.10 696.60 1177.77 659.72
00005140 00000045 822.70 202.80 519.57 667.32 929.40 463.48 1132.37 420.90 1029.36 579.74 1005.05 700.60 1175.52 664.19
00005141 00000046 824.07 196.17 514.34 673.01 928.75 461.73 1128.54 417.82 1026.06 576.40 1008.33 704.77 1168.76 667.48
00005142 00000047 823.25 189.88 513.91 669.54 928.21 457.53 1125.52 416.69 1022.08 574.14 1010.12 702.68 1158.42 668.39
00005143 00000048 823.66 185.48 513.30 671.61 926.98 455.07 1123.76 415.94 1018.84 572.83 1007.96 701.86 1154.70 668.87
00005144 00000049 825.19 190.04 513.91 669.32 925.86 454.95 1124.22 415.43 1016.90 571.72 1005.57 701.87 1155.29 668.52
00005145 00000050 827.82 193.39 512.09 665.79 926.06 454.71 1124.31 416.54 1015.34 574.06 1004.99 701.84 1154.68 669.70
00005146 00000051 829.53 191.00 510.55 667.99 926.44 454.15 1123.59 417.89 1014.06 575.85 1004.27 701.05 1153.10 670.53
00005147 00000052 830.92 191.12 509.91 670.39 927.73 453.64 1125.95 416.95 1015.28 573.54 1003.17 699.79 1157.31 668.72
00005148 00000053 832.16 189.53 510.03 672.41 929.13 452.25 1129.92 416.59 1016.65 571.49 1001.18 697.23 1160.80 667.03
00005149 00000054 829.47 190.42 515.38 675.12 932.48 450.61 1136.84 416.80 1025.29 570.84 1002.73 693.35 1169.18 664.62
00005150 00000055 832.47 192.18 514.46 675.99 938.37 452.52 1143.70 417.55 1036.55 572.95 1010.78 695.92 1177.28 666.48
00005151 00000056 834.80 197.02 513.17 674.66 942.59 454.38 1147.00 417.92 1044.29 574.09 1018.62 700.08 1182.23 669.42
00005152 00000057 832.03 198.90 514.21 665.91 941.48 454.56 1145.02 418.43 1043.10 571.78 1015.17 699.14 1179.57 666.63
00005153 00000058 830.06 195.27 514.98 669.73 939.33 456.61 1141.28 419.94 1039.47 574.07 1015.13 702.16 1176.35 669.12
00005154 00000059 828.29 192.68 517.99 678.42 938.08 459.53 1141.16 420.66 1039.68 579.22 1017.99 708.11 1175.16 675.42
00005155 00000060 825.12 190.25 518.09 678.60 934.73 462.03 1135.70 421.24 1033.74 579.29 1014.02 706.58 1171.10 672.17
00005156 00000061 824.20 193.33 518.63 676.11 931.85 460.54 1132.38 420.18 1029.06 579.30 1010.36 703.51 1171.03 669.14
00005157 00000062 825.29 193.55 515.24 672.61 929.10 459.94 1129.04 419.70 1023.75 578.67 1005.87 701.13 1167.36 666.90
00005158 00000063 824.09 193.27 513.05 670.29 928.17 459.79 1126.48 420.06 1020.35 575.56 1000.65 695.95 1163.14 662.16
00005159 00000064 821.08 188.16 513.17 669.90 926.17 458.11 1124.13 417.67 1019.18 572.21 999.08 693.97 1159.82 659.53
00005160 00000065 819.50 189.27 512.03 664.17 924.53 457.68 1121.36 417.71 1016.71 570.06 997.69 692.24 1153.60 658.27
00005161 00000066 819.17 187.34 511.34 662.66 924.42 455.76 1119.89 416.15 1016.27 567.34 998.06 689.57 1153.46 655.70
00005162 00000067 818.76 179.71 511.50 668.94 924.18 453.76 1120.35 414.13 1016.36 565.30 998.15 688.03 1154.22 654.13
00005163 00000068 819.44 180.36 511.76 668.55 924.97 452.70 1121.05 413.00 1016.94 563.30 998.21 686.64 1155.42 652.67
00005164 00000069 820.10 174.71 511.52 670.76 925.85 450.79 1124.90 411.44 1018.90 561.31 997.76 684.33 1156.90 650.85
00005165 00000070 820.95 171.79 512.91 672.88 926.06 448.51 1126.91 409.37 1019.37 559.37 996.71 682.56 1159.71 649.23
00005166 00000071 823.43 174.34 512.90 673.47 927.46 448.64 1128.57 408.87 1019.79 557.51 996.75 681.83 1162.68 648.04
00005167 00000072 826.27 175.78 510.46 671.08 930.28 451.91 1129.05 413.27 1021.19 557.55 998.73 682.13 1162.98 649.16
00005168 00000073 827.66 174.93 510.09 672.72 932.24 454.34 1130.62 415.16 1022.51 555.81 999.73 683.18 1163.58 649.90
00005169 00000074 827.98 175.33 510.67 673.98 932.67 451.56 1132.94 413.35 1024.00 556.85 1001.12 683.49 1165.85 651.07
00005170 00000075 827.97 174.75 511.34 676.99 933.66 451.40 1134.56 413.35 1026.88 557.39 1002.46 684.26 1168.29 651.99
00005171 00000076 830.34 177.74 510.55 675.69 935.69 451.24 1137.06 412.74 1029.95 557.71 1005.19 684.83 1172.24 652.39
00005172 00000077 833.18 179.10 508.33 675.92 938.45 451.30 1139.63 412.02 1034.74 558.21 1009.13 686.23 1175.79 653.40
00005173 00000078 835.45 179.55 507.25 677.27 940.97 451.21 1143.49 412.48 1038.96 559.03 1011.18 687.58 1179.18 655.36
00005174 00000079 836.76 181.39 507.55 676.92 942.32 450.61 1146.78 413.37 1041.51 562.14 1013.77 690.66 1181.09 659.76
00005175 00000080 840.06 187.31 504.94 671.53 944.10 450.36 1149.29 414.27 1044.34 564.79 1016.27 692.93 1181.84 663.22
00005176 00000081 840.98 188.60 504.04 671.21 944.90 451.43 1150.39 415.57 1045.61 565.77 1016.13 693.64 1182.45 664.09
00005177 00000082 841.21 191.53 504.25 668.86 945.58 452.13 1150.62 416.37 1046.43 566.32 1017.39 693.94 1182.55 664.46
00005178 00000083 842.14 194.44 503.71 666.29 946.27 451.69 1151.48 416.37 1047.23 566.80 1018.85 694.85 1183.27 665.73
00005179 00000084 843.41 197.54 503.15 663.35 946.33 451.43 1152.09 415.69 1047.90 567.82 1020.00 695.48 1185.00 666.00
00005180 00000085 845.70 198.91 500.73 663.98 947.86 454.39 1152.91 418.14 1049.13 567.85 1021.16 697.09 1186.73 667.10
00005181 00000086 844.85 200.82 501.44 652.19 948.12 455.56 1153.86 419.24 1047.44 563.74 1018.17 694.60 1182.54 662.65
00005182 00000087 845.77 202.12 502.25 651.73 948.47 455.76 1154.00 419.85 1047.87 565.46 1019.93 695.64 1184.07 663.95
00005183 00000088 845.38 201.28 502.17 653.44 948.44 455.66 1154.47 420.18 1047.92 565.90 1019.38 696.25 1183.58 664.96
00005184 00000089 845.03 202.73 502.49 651.84 948.47 456.13 1153.89 420.99 1047.59 566.12 1019.16 695.91 1182.47 664.92
00005185 00000090 845.13 201.81 502.74 652.91 948.75 456.28 1153.90 421.61 1046.83 565.56 1018.00 695.22 1181.00 664.76
00005186 00000091 845.15 202.02 502.67 651.59 947.94 456.41 1153.33 421.58 1045.52 566.17 1017.47 695.51 1180.29 664.96
00005187 00000092 844.72 201.16 503.06 652.77 947.85 456.42 1152.67 421.79 1045.07 566.29 1016.79 695.35 1178.75 665.17
00005188 00000093 847.54 203.62 500.47 659.09 948.84 457.45 1153.35 422.37 1047.45 570.54 1020.33 698.58 1184.84 669.47
00005189 00000094 845.05 204.55 502.36 649.27 946.45 457.58 1151.73 422.03 1043.56 567.30 1015.58 696.96 1179.18 665.86
00005190 00000095 845.28 204.09 502.05 648.42 946.05 458.87 1150.87 422.99 1042.54 568.06 1014.95 697.27 1178.57 665.85
00005191 00000096 843.11 203.33 502.68 650.17 945.40 459.47 1149.88 423.51 1042.57 568.98 1015.13 698.44 1177.93 666.84
00005192 00000097 845.56 203.58 501.51 662.34 947.40 461.01 1151.54 425.40 1046.39 574.40 1019.81 702.82 1184.61 673.09
00005193 00000098 845.29 202.63 501.85 665.13 947.22 462.33 1151.15 426.88 1046.02 575.11 1018.85 703.66 1184.14 674.05
00005194 00000099 845.17 203.24 502.46 664.37 946.91 463.36 1150.82 427.28 1045.69 576.14 1019.50 704.65 1184.66 674.49
00005195 00000100 845.70 203.21 502.12 664.46 947.05 463.31 1151.08 427.50 1045.75 576.96 1019.63 705.31 1184.90 675.38
00005196 00000101 846.34 203.41 501.74 665.04 947.58 463.42 1151.54 427.70 1046.27 577.35 1019.92 705.99 1185.48 676.12
00005197 00000102 846.86 204.23 500.85 663.84 948.05 463.60 1151.74 427.96 1046.79 577.73 1020.16 706.34 1185.05 676.58
00005198 00000103 847.35 204.14 500.89 664.88 948.42 464.30 1152.10 428.47 1047.02 578.52 1020.33 706.95 1186.18 677.01
00005199 00000104 847.33 201.79 501.32 667.35 949.01 463.98 1152.65 428.58 1047.38 578.62 1020.54 706.69 1186.60 677.10
00005200 00000105 848.10 201.54 501.20 667.17 949.39 463.78 1152.94 428.46 1047.10 578.99 1021.13 706.70 1187.47 677.16
00005201 00000106 848.48 203.35 500.85 665.34 949.35 464.01 1153.47 428.43 1047.91 578.87 1021.22 706.99 1188.27 677.16
00005202 00000107 848.54 203.58 500.60 665.16 949.95 464.01 1153.63 428.71 1048.48 578.77 1021.59 706.76 1188.13 677.16
00005203 00000108 844.84 199.93 501.23 659.02 947.07 462.41 1149.05 428.37 1043.34 576.42 1017.43 702.58 1180.19 672.80
00005204 00000109 848.79 201.63 500.02 668.34 949.77 464.25 1153.35 428.96 1048.78 581.12 1021.50 707.04 1188.93 677.45
00005205 00000110 844.55 200.19 501.11 659.40 946.83 462.70 1149.34 429.01 1043.57 577.68 1017.06 702.59 1180.77 673.11
00005206 00000111 844.15 201.89 501.31 658.29 947.00 463.29 1148.94 429.78 1043.99 578.37 1017.04 702.03 1181.36 672.67
00005207 00000112 843.21 201.77 501.16 659.00 946.95 463.46 1148.54 430.32 1044.44 579.45 1016.75 702.65 1180.87 673.57
00005208 00000113 843.05 201.43 501.27 660.28 946.37 463.59 1148.36 430.24 1044.16 580.07 1016.93 703.32 1181.23 674.07
00005209 00000114 844.04 203.75 501.05 658.59 946.50 463.51 1149.89 430.29 1044.61 580.71 1016.32 703.34 1182.90 674.13
00005210 00000115 843.76 203.26 501.48 660.69 946.79 463.70 1150.53 430.61 1045.57 581.66 1016.74 703.87 1183.86 674.82
00005211 00000116 843.63 201.17 501.54 663.23 946.66 464.49 1150.80 431.50 1045.74 582.68 1016.73 704.53 1184.12 675.60
00005212 00000117 844.30 203.90 501.54 660.87 947.10 465.11 1150.49 431.81 1045.63 582.61 1016.90 704.38 1184.47 675.15
00005213 00000118 844.03 203.68 501.34 662.88 947.18 465.73 1150.95 432.18 1046.22 582.39 1016.00 704.21 1185.17 674.83
00005214 00000119 843.86 203.89 501.63 663.59 946.93 466.01 1150.51 432.21 1046.12 582.89 1016.43 704.90 1185.69 675.26
00005215 00000120 844.86 205.67 500.49 661.74 947.31 467.37 1151.43 432.44 1046.87 582.83 1016.97 705.74 1186.66 675.27
00005216 00000121 844.94 203.50 500.23 664.10 947.60 467.80 1151.93 432.64 1047.59 582.78 1017.25 705.80 1187.70 675.16
00005217 00000122 845.17 204.62 499.87 663.40 947.88 467.89 1152.43 432.65 1048.17 583.35 1017.56 705.46 1189.02 674.70
00005218 00000123 844.87 204.94 501.89 663.62 948.01 467.29 1153.26 432.70 1048.03 583.89 1017.88 705.33 1189.67 675.08
00005219 00000124 844.79 206.29 501.63 663.53 948.29 467.72 1152.56 432.27 1048.74 584.41 1018.36 705.87 1190.33 674.92
00005220 00000125 844.88 207.45 502.13 661.61 948.51 467.56 1152.58 431.73 1049.04 584.62 1018.10 705.10 1190.88 673.72
00005221 00000126 845.63 209.06 502.14 659.71 949.09 467.06 1152.85 430.94 1049.14 584.46 1018.93 704.73 1191.56 672.97
00005222 00000127 846.29 208.41 501.75 660.41 949.83 466.87 1153.15 430.62 1049.47 584.77 1019.64 704.76 1191.94 672.94
00005223 00000128 847.18 209.50 501.28 659.30 950.22 467.48 1152.66 431.18 1049.03 584.55 1019.79 704.61 1191.88 672.78
00005224 00000129 846.88 210.16 501.90 658.51 950.26 467.92 1153.24 431.19 1049.93 584.70 1019.97 704.61 1192.62 672.45
00005225 00000130 847.09 210.34 501.82 658.23 950.36 468.09 1153.24 431.56 1049.80 584.59 1019.66 704.47 1192.15 672.51
00005226 00000131 847.37 210.25 501.23 657.11 950.31 467.96 1153.29 431.30 1049.83 584.75 1019.88 704.47 1192.29 672.34
00005227 00000132 847.20 209.29 501.09 658.59 950.29 467.93 1153.14 431.48 1049.82 584.83 1019.60 704.14 1192.63 672.22
00005228 00000133 846.78 209.65 501.88 658.53 950.36 468.19 1153.66 431.38 1050.72 584.53 1019.73 703.71 1193.65 671.48
00005229 00000134 846.99 210.05 501.77 656.54 950.64 468.44 1153.61 431.39 1051.32 584.88 1020.54 703.29 1193.78 670.98
00005230 00000135 846.77 208.96 502.65 656.77 950.93 468.07 1153.79 430.92 1051.45 584.36 1020.87 702.56 1193.90 669.99
00005231 00000136 847.30 208.08 503.20 657.68 951.25 467.63 1154.72 430.32 1052.03 583.93 1021.41 702.59 1194.86 669.89
00005232 00000137 846.52 207.10 503.82 659.31 951.66 468.20 1155.72 430.30 1053.53 583.46 1021.38 702.13 1196.43 669.03
00005233 00000138 846.50 207.33 504.59 658.49 952.30 468.41 1156.46 430.79 1054.75 582.72 1021.46 700.83 1197.30 668.10
00005234 00000139 846.54 208.17 504.71 657.26 952.60 468.13 1157.17 430.19 1055.37 582.91 1022.15 701.21 1198.08 668.18
00005235 00000140 846.29 207.16 504.89 659.61 953.12 468.80 1157.27 430.45 1056.10 582.54 1022.45 701.58 1198.39 668.33
00005236 00000141 846.75 206.95 505.01 658.41 953.72 469.04 1158.61 430.54 1057.23 582.38 1023.22 701.56 1199.16 668.14
00005237 00000142 846.95 207.93 505.02 658.45 954.85 468.06 1159.24 430.74 1059.27 582.94 1023.70 700.31 1200.18 667.78
00005238 00000143 847.38 209.52 504.16 657.42 955.24 467.84 1159.71 430.47 1060.28 584.04 1024.45 700.77 1200.57 668.38
00005239 00000144 848.14 208.84 503.30 656.57 955.93 468.03 1161.08 431.80 1061.08 586.10 1024.92 701.13 1198.28 669.81
00005240 00000145 847.70 209.48 501.47 654.54 954.27 468.46 1159.99 432.24 1059.29 589.73 1027.79 707.26 1192.27 676.35
00005241 00000146 849.11 208.86 501.00 654.43 954.35 469.76 1159.73 434.17 1058.99 591.87 1029.60 709.68 1190.46 679.64
00005242 00000147 847.86 207.47 501.81 660.38 954.15 469.79 1159.21 435.08 1058.83 593.74 1029.32 711.06 1189.25 681.74
00005243 00000148 848.45 208.57 500.91 659.76 954.83 471.18 1159.92 436.37 1059.91 594.77 1029.62 711.29 1189.85 682.03
00005244 00000149 847.98 209.67 503.42 663.36 955.63 471.44 1160.43 436.59 1061.35 594.41 1030.26 710.91 1192.57 681.74
00005245 00000150 847.36 210.94 504.92 660.21 955.97 471.50 1162.98 436.72 1063.18 595.84 1030.25 709.55 1195.02 680.21
00005246 00000151 846.85 210.21 507.14 660.92 957.11 470.77 1164.22 436.91 1064.65 595.27 1030.29 707.19 1197.21 678.38
00005247 00000152 848.42 212.27 508.18 654.29 959.10 470.64 1165.93 437.05 1066.63 594.24 1032.94 704.48 1198.87 675.68
00005248 00000153 849.84 214.02 509.05 649.14 960.02 469.75 1168.04 437.16 1067.16 593.61 1031.48 701.33 1199.86 673.30
00005249 00000154 850.55 213.34 508.61 649.11 959.74 470.18 1168.07 436.51 1066.60 592.31 1030.52 700.40 1201.55 671.43
00005250 00000155 851.58 214.40 507.13 645.88 960.56 471.08 1167.45 436.75 1066.60 590.55 1030.01 699.00 1201.89 669.44
00005251 00000156 850.72 213.86 506.58 644.77 959.91 471.84 1166.10 436.78 1066.00 590.63 1029.25 698.12 1202.08 667.82
00005252 00000157 848.96 211.67 507.61 648.41 958.41 471.14 1164.10 436.00 1063.73 590.25 1027.89 698.54 1201.19 667.94
00005253 00000158 848.49 213.24 506.66 644.46 957.97 472.16 1162.81 436.61 1062.61 592.21 1027.33 698.39 1199.72 667.53
00005254 00000159 849.73 214.52 502.59 642.05 957.29 473.67 1160.51 437.91 1060.47 593.56 1026.26 699.74 1196.29 668.86
00005255 00000160 849.65 214.27 502.43 641.95 956.69 473.75 1160.14 438.18 1059.86 594.14 1026.39 700.76 1194.96 670.15
00005256 00000161 850.74 215.96 500.28 637.75 957.51 474.47 1159.94 439.14 1059.76 594.88 1027.38 700.56 1193.64 670.15
00005257 00000162 850.47 216.57 500.55 637.86 957.79 474.86 1159.30 439.64 1059.91 595.62 1027.77 700.72 1193.60 670.35
00005258 00000163 850.03 217.20 501.42 639.06 957.83 475.07 1158.77 440.43 1059.48 596.21 1027.64 701.21 1193.71 671.28
00005259 00000164 849.60 216.39 502.63 641.41 958.16 475.26 1159.41 441.06 1060.03 597.35 1028.00 701.52 1194.74 671.95
