Video ID: 	S8anfY7PYuI
H: 	1080
W: 	1920
FPS: 	25.0

FRAME INDEX X0 Y0 W H [Landmarks (5 Points)]

00005015 00000000 668.04 121.23 508.83 739.08 910.71 426.85 1117.11 437.22 1060.40 603.04 896.62 693.66 1052.40 703.24
00005016 00000001 668.94 121.19 509.14 735.82 911.71 426.56 1118.93 435.27 1062.65 601.87 900.05 691.18 1057.87 699.15
00005017 00000002 670.46 119.43 508.19 735.94 913.70 425.68 1119.52 433.70 1064.52 599.86 904.64 690.20 1060.81 697.35
00005018 00000003 671.82 117.33 507.32 739.66 916.37 425.95 1120.93 432.20 1068.48 599.31 907.47 691.59 1062.60 697.21
00005019 00000004 671.90 116.96 506.40 741.53 917.76 425.13 1120.32 430.71 1070.74 597.54 910.99 693.38 1063.24 698.39
00005020 00000005 670.59 117.15 505.72 741.87 916.46 424.93 1119.14 431.29 1069.44 597.19 909.41 693.56 1061.52 699.25
00005021 00000006 666.47 115.86 504.72 743.82 910.98 424.52 1116.29 430.53 1065.85 597.70 905.00 693.85 1059.58 699.41
00005022 00000007 660.31 116.08 504.67 739.79 904.23 425.86 1112.21 430.74 1060.03 598.31 899.89 692.98 1055.25 697.67
00005023 00000008 657.49 118.85 505.39 734.80 898.81 426.74 1109.03 432.30 1053.70 601.87 895.40 693.72 1050.94 698.97
00005024 00000009 654.48 121.85 507.52 733.42 895.30 425.92 1108.24 433.15 1049.03 602.91 890.42 693.17 1047.65 700.07
00005025 00000010 649.22 123.31 508.38 732.37 890.61 425.52 1104.36 433.93 1048.37 605.66 882.57 693.11 1043.90 701.41
00005026 00000011 644.47 122.60 507.56 730.16 885.72 422.07 1099.52 432.87 1044.14 603.53 878.12 691.17 1037.69 701.57
00005027 00000012 635.29 117.51 512.52 732.40 877.36 420.77 1091.83 431.64 1035.46 604.93 870.98 689.91 1030.38 700.22
00005028 00000013 628.67 118.46 511.75 727.10 865.52 422.09 1086.48 431.88 1026.75 603.98 863.67 690.22 1026.53 699.53
00005029 00000014 629.70 125.79 502.11 714.53 862.59 422.11 1071.76 425.32 1015.76 599.39 871.10 694.02 1024.62 696.67
00005030 00000015 624.24 123.90 504.26 718.44 858.45 421.69 1064.92 426.04 1010.62 596.37 869.40 695.12 1018.48 698.43
00005031 00000016 619.49 122.34 501.89 730.18 852.43 418.44 1054.86 426.53 1002.12 591.05 860.67 694.21 1005.67 700.34
00005032 00000017 612.92 120.72 497.75 731.88 847.29 419.91 1048.08 430.08 994.80 586.39 844.76 689.69 991.59 698.31
00005033 00000018 605.40 117.31 504.05 739.51 845.22 420.43 1047.20 427.03 996.40 586.85 835.66 691.36 986.79 697.34
00005034 00000019 608.86 123.60 501.97 727.95 850.41 420.73 1050.37 422.43 1003.60 581.88 854.70 693.96 998.13 695.58
00005035 00000020 611.01 120.92 498.41 728.87 854.04 417.31 1048.92 417.58 1009.42 575.35 867.75 693.84 1006.04 693.93
00005036 00000021 600.27 103.74 497.14 736.54 842.45 408.38 1041.06 415.93 996.30 568.01 849.35 683.28 991.91 689.26
00005037 DELETE   590.80 107.32 502.03 732.22 825.86 402.79 1034.13 417.10 978.97 568.70 828.76 677.47 977.98 689.12
00005038 00000023 587.74 107.65 504.08 729.48 823.72 400.85 1033.91 414.74 977.23 568.99 827.29 676.40 976.25 687.70
00005039 00000024 592.36 106.79 498.31 735.11 831.46 401.83 1035.72 411.95 986.83 570.08 837.71 682.81 983.98 690.85
00005040 00000025 599.09 108.52 490.35 736.73 846.62 406.49 1043.89 411.90 1004.67 571.99 856.38 688.59 998.48 692.57
00005041 00000026 612.47 115.33 488.80 730.44 863.21 407.18 1052.83 407.30 1021.88 572.10 882.15 691.66 1015.61 691.14
00005042 00000027 619.58 123.32 485.92 718.67 880.37 407.11 1057.87 408.62 1036.54 573.44 903.31 693.07 1021.45 694.47
00005043 00000028 625.36 124.38 485.73 718.21 892.28 406.98 1062.60 406.12 1049.69 574.19 911.94 691.11 1027.42 691.14
00005044 00000029 629.28 125.16 486.72 716.64 898.57 405.46 1068.69 402.13 1059.39 575.49 911.84 687.89 1032.44 686.48
00005045 00000030 629.15 121.84 491.88 719.76 897.76 402.84 1079.52 403.12 1068.55 573.75 899.67 681.21 1036.63 682.24
00005046 00000031 628.47 121.92 493.15 712.86 898.07 403.69 1081.71 401.80 1070.91 574.22 900.95 679.49 1038.03 678.81
00005047 00000032 631.50 120.01 492.00 710.05 900.57 403.55 1084.14 400.54 1073.59 573.80 908.81 678.28 1043.72 676.38
00005048 00000033 633.37 120.40 492.04 709.05 903.61 405.02 1086.81 400.86 1077.85 571.77 914.72 678.52 1049.92 675.59
00005049 00000034 637.04 114.04 489.82 717.20 907.42 406.22 1088.34 402.26 1081.33 570.39 918.99 678.45 1053.60 675.57
00005050 00000035 639.19 115.86 488.56 715.24 909.78 404.15 1089.69 400.89 1085.69 566.62 921.30 677.58 1055.51 675.34
00005051 00000036 642.77 114.36 487.60 715.24 913.34 402.12 1089.82 397.12 1087.22 561.85 927.24 675.81 1057.99 672.18
00005052 00000037 643.45 104.96 491.22 724.50 917.85 399.96 1093.13 390.05 1093.71 558.97 934.29 677.13 1064.01 669.54
00005053 00000038 650.00 110.97 486.73 717.81 925.36 397.98 1095.08 386.71 1100.30 556.48 944.14 676.39 1068.66 667.70
00005054 00000039 666.21 100.92 480.93 727.90 937.04 396.68 1107.09 389.01 1112.47 546.52 958.97 672.19 1077.83 667.72
00005055 00000040 677.62 106.61 475.90 715.45 943.52 397.80 1114.79 385.45 1121.13 546.40 972.07 673.58 1087.73 665.75
00005056 00000041 686.17 107.28 475.90 714.88 954.54 400.29 1116.37 380.75 1131.38 548.77 980.20 673.16 1089.08 660.61
00005057 00000042 684.46 118.11 472.37 709.88 967.54 399.66 1109.05 383.94 1133.30 555.24 976.54 672.82 1077.47 662.21
00005058 00000043 683.96 121.70 475.22 708.24 965.10 399.78 1111.07 384.82 1132.05 557.94 972.36 673.63 1078.39 663.58
00005059 00000044 681.68 120.96 477.01 713.79 960.03 397.66 1110.67 387.50 1126.20 558.92 965.72 675.74 1076.98 669.46
00005060 00000045 677.58 118.98 478.64 711.81 951.75 398.92 1113.50 393.41 1117.72 560.37 963.21 677.83 1078.57 674.69
00005061 00000046 671.01 113.98 482.38 721.74 940.60 401.07 1113.17 396.71 1110.34 563.85 955.05 681.95 1079.04 679.07
00005062 00000047 666.52 112.31 484.96 725.32 935.06 400.71 1113.67 396.99 1104.41 564.76 945.25 680.08 1076.97 677.63
00005063 00000048 661.25 106.36 489.36 732.66 931.39 399.97 1112.77 398.93 1100.49 563.86 936.72 676.25 1073.67 676.02
00005064 00000049 660.16 109.11 491.32 731.18 929.27 399.89 1111.79 401.18 1097.03 565.10 928.97 674.73 1069.97 676.73
00005065 00000050 660.69 107.99 491.21 731.55 928.69 399.59 1112.62 400.19 1097.26 565.48 928.87 674.85 1070.96 676.24
00005066 00000051 662.13 109.77 489.31 728.70 929.74 400.06 1113.38 399.91 1098.78 564.72 932.52 675.75 1073.05 676.36
00005067 00000052 663.80 111.41 488.33 726.63 929.71 401.86 1114.54 400.68 1099.12 565.55 934.75 676.21 1075.29 675.83
00005068 00000053 663.22 111.71 488.72 726.70 928.52 402.82 1114.19 400.91 1098.95 565.85 934.43 676.97 1076.18 675.96
00005069 00000054 663.46 112.02 489.61 726.41 928.48 402.79 1115.21 400.65 1099.51 566.05 934.71 677.34 1077.04 676.14
00005070 00000055 671.72 107.19 489.68 724.28 928.25 404.94 1119.17 404.94 1099.95 560.94 940.45 671.41 1080.70 673.08
00005071 00000056 673.45 107.01 490.85 722.93 929.23 404.78 1121.17 405.18 1100.13 560.24 942.57 670.42 1083.38 672.20
00005072 00000057 675.38 105.69 490.77 723.06 930.81 404.95 1122.73 404.67 1102.10 560.40 945.51 672.02 1085.33 673.29
00005073 00000058 676.84 106.40 490.36 723.40 930.39 404.87 1123.01 404.83 1101.51 561.06 944.85 672.77 1085.50 674.16
00005074 00000059 677.04 105.29 490.49 727.26 930.24 405.12 1123.28 406.14 1100.88 561.22 943.75 674.18 1085.20 676.50
00005075 00000060 667.05 107.71 491.15 736.34 929.85 403.13 1118.07 403.61 1096.76 567.22 932.66 679.22 1077.70 679.83
00005076 00000061 661.64 108.77 493.61 734.45 921.50 405.60 1112.20 407.20 1087.31 570.89 923.56 679.01 1071.57 680.53
00005077 00000062 654.87 105.96 492.06 735.20 911.72 403.82 1102.02 410.45 1073.64 568.56 908.87 672.31 1058.77 678.12
00005078 00000063 650.82 108.92 495.91 731.55 897.33 399.17 1096.25 409.00 1056.23 571.67 892.26 669.29 1048.96 678.14
00005079 00000064 641.39 104.02 502.78 736.80 881.82 393.89 1089.83 408.91 1041.65 572.44 875.53 667.10 1040.52 680.13
00005080 00000065 635.66 102.94 506.59 736.39 871.04 388.14 1084.51 406.85 1028.20 571.20 862.47 662.78 1030.35 678.98
00005081 00000066 635.04 96.94 505.97 741.51 866.33 384.15 1081.57 405.96 1020.63 569.81 857.19 659.36 1026.26 678.16
00005082 00000067 632.47 103.57 511.48 737.22 862.89 381.64 1079.71 405.50 1014.21 561.45 863.98 657.62 1027.42 676.06
00005083 00000068 638.43 99.84 505.54 737.85 869.84 382.31 1084.17 406.17 1022.01 567.75 857.42 656.38 1027.09 677.03
00005084 00000069 642.54 99.21 504.42 739.62 874.44 383.89 1087.74 408.32 1025.08 570.12 859.75 657.77 1028.91 678.96
00005085 00000070 644.46 103.26 504.37 739.69 879.90 388.16 1088.82 412.26 1029.96 573.72 861.10 658.91 1030.80 679.82
00005086 00000071 644.92 102.67 506.43 745.74 883.00 390.15 1092.62 414.96 1035.18 577.70 860.10 661.86 1031.67 683.51
00005087 00000072 643.49 107.31 508.60 743.60 886.59 394.12 1092.86 418.83 1038.24 582.00 860.65 663.53 1030.87 685.22
00005088 00000073 642.66 107.14 508.54 744.11 884.80 396.13 1091.21 420.73 1036.16 585.73 858.33 666.23 1028.52 688.01
00005089 00000074 638.75 111.46 512.95 740.78 881.79 397.69 1089.99 421.71 1033.44 587.56 855.83 667.70 1027.86 688.96
00005090 00000075 634.59 110.74 515.22 741.25 879.36 397.86 1089.02 421.79 1032.62 587.93 853.80 668.22 1025.96 689.36
00005091 00000076 631.33 110.90 515.65 741.02 876.96 399.28 1086.76 424.03 1029.75 589.10 852.35 668.91 1024.32 690.60
00005092 00000077 628.05 108.82 517.50 743.94 874.21 400.04 1085.99 424.25 1029.51 589.31 851.02 669.99 1024.42 691.13
00005093 00000078 626.11 110.43 517.62 741.68 872.62 400.46 1085.44 424.40 1028.27 590.71 850.53 671.92 1022.13 692.86
00005094 00000079 624.09 108.91 518.85 739.47 869.93 401.78 1085.70 422.22 1028.07 590.61 852.04 673.27 1023.27 691.33
00005095 00000080 623.48 108.32 517.54 734.61 866.78 402.92 1085.48 420.79 1026.74 591.68 854.54 674.61 1023.99 690.36
00005096 00000081 622.81 107.72 517.88 734.26 864.69 403.43 1084.46 420.89 1025.01 593.30 854.00 676.29 1022.94 691.60
00005097 00000082 622.54 107.72 516.57 734.53 862.35 402.55 1081.12 422.15 1020.44 592.16 852.75 675.60 1019.67 692.55
00005098 00000083 625.72 114.27 510.79 730.32 864.80 403.74 1069.76 418.86 1014.75 585.75 861.63 678.66 1018.91 691.13
00005099 00000084 621.83 108.36 518.33 739.54 862.14 400.83 1080.29 422.37 1018.84 591.45 846.70 673.66 1018.47 692.28
00005100 00000085 624.31 110.00 518.08 737.39 866.55 401.17 1082.11 423.60 1021.71 590.89 850.48 672.64 1020.81 692.00
00005101 00000086 628.24 107.96 518.13 741.08 872.04 401.72 1087.03 424.09 1028.42 591.60 854.01 673.41 1024.94 692.94
00005102 00000087 632.19 111.25 519.84 741.62 879.20 404.05 1093.21 427.41 1034.14 595.61 857.75 676.90 1025.74 697.45
00005103 00000088 638.36 120.31 519.39 740.35 887.60 412.15 1100.22 433.56 1043.12 602.75 859.37 683.82 1027.86 703.27
00005104 00000089 644.84 124.83 515.74 744.36 891.96 422.04 1103.33 441.29 1048.01 611.35 861.34 691.72 1029.47 709.84
00005105 00000090 647.29 128.56 516.69 746.85 896.30 427.59 1105.62 445.46 1052.91 615.00 862.44 694.76 1032.81 711.84
00005106 00000091 646.30 129.96 516.04 743.69 895.33 427.52 1104.64 444.58 1052.71 614.86 862.89 694.63 1032.70 711.08
00005107 00000092 643.85 127.60 517.13 739.01 891.96 423.42 1103.82 440.08 1050.01 612.53 861.90 691.63 1030.71 707.85
00005108 00000093 639.72 123.37 517.15 736.73 887.81 419.29 1100.84 435.81 1045.87 609.68 860.59 687.62 1029.81 703.40
00005109 00000094 634.07 121.07 521.79 731.58 884.48 414.69 1100.45 430.43 1044.33 605.53 863.96 685.30 1031.67 699.86
00005110 00000095 630.40 113.04 520.99 731.59 879.80 410.84 1096.86 426.12 1039.66 599.78 868.35 682.51 1031.29 696.23
00005111 00000096 627.55 106.72 519.83 731.96 875.81 405.38 1094.17 421.16 1035.97 594.49 870.48 679.44 1031.73 693.12
00005112 00000097 628.56 103.03 513.76 732.19 875.79 400.89 1089.69 418.65 1034.21 588.58 874.38 676.17 1030.89 690.97
00005113 00000098 630.37 95.17 507.96 735.46 880.51 397.98 1088.12 415.23 1037.20 581.94 880.34 672.01 1030.54 686.16
00005114 00000099 633.86 91.31 504.50 737.00 890.44 395.80 1093.23 409.37 1050.97 577.48 891.09 670.50 1037.56 681.56
00005115 00000100 649.68 98.87 492.02 736.00 902.29 401.09 1093.68 404.32 1067.60 562.17 917.00 675.12 1051.90 678.39
00005116 00000101 652.83 98.11 493.12 734.02 913.33 402.66 1103.83 405.16 1083.32 556.12 932.44 674.92 1066.00 677.35
00005117 00000102 662.14 98.38 496.80 734.75 925.48 406.93 1115.52 401.08 1102.23 556.35 957.24 682.95 1088.16 678.58
00005118 00000103 676.71 100.84 484.29 722.74 940.97 408.58 1121.75 397.41 1118.96 555.62 982.17 687.19 1100.39 679.11
00005119 00000104 685.27 111.05 484.08 707.64 957.76 414.49 1122.25 395.43 1132.45 563.24 992.10 687.84 1098.03 674.98
00005120 00000105 684.71 123.40 480.99 701.20 968.67 414.41 1119.58 388.90 1141.55 568.24 996.01 690.24 1093.65 671.88
00005121 00000106 687.03 121.75 486.66 709.74 972.20 416.29 1124.47 390.04 1146.23 572.31 999.55 695.83 1097.24 677.21
00005122 00000107 689.05 121.46 490.01 716.41 975.94 417.31 1127.74 394.45 1149.18 574.50 1000.75 698.26 1098.31 682.61
00005123 00000108 690.16 126.04 494.31 716.32 976.03 419.77 1132.97 399.16 1149.18 578.66 1003.92 703.51 1102.22 689.46
00005124 00000109 693.06 130.46 494.64 715.51 979.08 423.01 1138.70 402.85 1151.84 584.97 1003.81 707.46 1103.26 694.00
00005125 00000110 693.47 132.85 498.31 716.82 980.11 429.29 1143.03 406.39 1153.70 592.39 1001.25 711.72 1104.05 696.72
00005126 00000111 695.09 142.35 499.07 711.12 979.74 434.02 1146.27 410.99 1151.68 596.52 1000.81 714.87 1105.56 699.75
00005127 00000112 696.96 148.21 499.21 708.12 978.44 434.63 1149.03 414.72 1149.81 599.33 998.28 716.99 1106.00 704.47
00005128 00000113 695.53 146.31 501.02 710.70 978.75 435.19 1149.28 415.41 1151.07 599.47 996.96 717.48 1105.14 705.12
00005129 00000114 687.33 152.26 506.39 704.69 979.51 431.11 1154.74 417.07 1150.66 594.98 994.76 714.51 1108.19 704.48
00005130 00000115 693.04 133.22 500.71 721.05 980.89 430.34 1143.36 408.65 1152.38 593.39 996.91 711.51 1100.17 697.83
00005131 00000116 693.70 135.57 498.34 714.45 978.62 427.07 1142.74 406.85 1151.70 589.47 996.55 708.34 1101.10 695.51
00005132 00000117 691.08 129.13 499.00 717.56 980.56 423.88 1139.40 405.52 1150.53 586.27 997.20 705.39 1097.54 693.81
00005133 00000118 691.34 127.59 498.06 715.31 980.43 420.70 1137.12 403.37 1149.74 582.26 998.47 701.82 1097.14 690.75
00005134 00000119 692.10 125.57 497.45 713.62 979.89 417.74 1135.86 399.65 1149.81 579.32 996.14 697.42 1096.69 685.87
00005135 00000120 694.01 126.08 496.19 710.39 982.25 414.85 1136.71 395.20 1153.63 577.96 997.74 696.19 1097.80 683.75
00005136 00000121 695.65 120.18 497.58 715.95 984.50 414.55 1140.73 393.77 1156.62 578.61 1000.03 696.49 1101.87 683.30
00005137 00000122 697.21 119.55 496.63 719.75 987.18 414.54 1143.06 396.76 1159.75 578.38 1002.83 696.33 1105.69 685.38
00005138 00000123 698.76 114.24 495.36 728.36 978.91 418.39 1145.63 404.59 1157.15 570.95 1006.90 697.23 1120.08 686.73
00005139 00000124 700.71 114.28 494.40 735.04 980.85 425.30 1147.75 406.68 1159.68 576.48 1008.43 704.74 1119.67 690.78
00005140 00000125 701.18 122.04 497.51 730.84 983.27 432.20 1151.00 409.84 1164.87 580.96 1008.04 708.37 1121.60 691.92
00005141 00000126 702.31 134.27 496.37 721.56 984.82 435.70 1153.68 411.97 1167.68 586.23 1003.10 709.61 1118.84 692.84
00005142 00000127 702.94 132.06 494.50 727.48 986.19 434.82 1153.25 412.53 1169.34 586.32 999.00 709.57 1116.53 694.10
00005143 00000128 705.36 131.18 491.45 727.42 989.69 432.06 1154.21 410.66 1172.32 585.03 998.36 706.67 1116.18 691.99
00005144 00000129 710.27 132.05 487.95 723.78 992.38 431.06 1153.74 408.14 1175.56 580.18 1000.43 700.06 1120.62 684.41
00005145 00000130 714.02 135.01 487.26 722.27 992.38 428.63 1153.52 401.86 1181.20 576.85 1002.29 700.45 1124.52 682.28
00005146 00000131 717.00 139.29 485.48 718.03 995.75 427.89 1153.85 398.61 1186.15 574.93 1008.16 700.91 1127.27 681.11
00005147 00000132 715.41 136.91 485.70 717.32 996.77 431.42 1151.75 399.62 1186.10 575.73 1015.88 703.03 1129.42 680.63
00005148 00000133 711.82 126.70 486.64 723.05 995.81 434.15 1146.23 404.47 1180.63 573.83 1021.03 702.50 1128.56 680.89
00005149 00000134 704.09 126.18 489.21 720.99 989.15 432.03 1143.43 405.70 1173.20 576.91 1013.22 706.05 1119.30 687.05
00005150 00000135 697.38 125.43 491.99 723.20 983.44 427.78 1139.17 404.54 1166.62 576.52 1007.19 706.22 1113.27 689.65
00005151 00000136 693.00 129.55 494.72 723.31 986.83 424.13 1136.49 400.93 1162.11 586.09 1005.70 708.91 1100.94 694.27
00005152 00000137 689.53 133.77 494.46 721.21 980.89 424.38 1130.76 401.09 1159.19 585.43 991.58 705.41 1092.24 691.07
00005153 00000138 687.33 137.54 494.70 714.45 975.41 426.17 1128.65 399.90 1153.75 584.80 983.37 703.18 1088.60 686.49
00005154 00000139 683.10 137.38 490.80 710.50 968.67 428.20 1124.61 401.27 1146.14 585.54 980.10 703.41 1086.36 685.58
00005155 00000140 679.13 137.07 489.05 709.67 963.08 430.50 1120.61 403.10 1140.59 584.34 980.08 703.50 1085.78 684.82
00005156 00000141 678.26 139.51 485.91 705.23 959.02 429.78 1117.64 403.10 1136.11 583.77 976.75 701.13 1084.07 682.77
00005157 00000142 677.12 138.70 486.72 704.95 955.14 430.79 1117.96 405.61 1131.30 583.82 973.44 700.45 1084.96 682.89
00005158 00000143 676.49 133.82 488.28 712.13 953.41 429.69 1118.69 406.45 1127.53 583.34 973.68 701.48 1086.33 685.07
00005159 00000144 676.30 130.38 488.52 715.84 950.42 429.36 1120.25 406.90 1124.61 585.62 971.93 703.55 1087.27 687.58
00005160 00000145 676.21 128.96 488.60 718.32 948.79 429.99 1121.73 408.48 1122.61 586.46 971.03 704.51 1087.32 689.10
00005161 00000146 675.68 130.08 489.33 719.06 947.54 429.94 1121.91 409.37 1122.56 588.17 967.50 706.52 1085.50 692.00
00005162 00000147 676.65 128.41 487.34 718.62 947.93 429.95 1121.61 409.80 1121.14 587.37 968.16 705.37 1085.78 691.03
00005163 00000148 677.63 123.42 487.29 723.38 948.51 427.23 1122.41 410.06 1120.11 585.85 970.89 704.33 1087.78 692.09
00005164 00000149 677.33 123.65 487.51 722.45 948.33 426.52 1122.03 411.23 1119.52 585.20 968.83 702.53 1086.82 691.73
00005165 00000150 678.37 120.89 486.05 724.31 948.55 427.13 1122.93 412.27 1119.00 585.17 968.92 701.76 1087.96 691.05
00005166 00000151 678.55 122.47 487.95 725.37 948.12 429.37 1123.29 414.12 1118.28 588.59 966.26 704.14 1084.61 693.38
00005167 00000152 678.89 126.52 491.63 725.87 947.59 431.78 1127.15 418.26 1117.30 592.40 963.84 706.51 1086.12 697.12
00005168 00000153 673.66 119.67 493.10 732.56 939.43 430.92 1126.95 420.20 1110.13 594.69 950.80 708.22 1081.62 700.95
00005169 00000154 669.34 124.40 499.23 723.85 929.62 428.50 1123.75 419.16 1098.23 595.09 939.42 702.94 1078.04 695.82
00005170 00000155 661.56 113.32 504.65 735.01 920.88 422.21 1117.33 420.34 1083.90 591.70 922.21 695.70 1066.81 694.35
00005171 00000156 655.79 116.64 502.69 733.65 912.58 415.69 1108.38 421.80 1070.48 586.70 906.41 686.46 1053.36 692.21
00005172 00000157 652.18 113.91 509.36 734.44 904.01 412.72 1106.65 422.48 1057.18 589.72 888.40 679.88 1042.29 689.05
00005173 00000158 651.02 117.46 510.43 728.62 897.53 411.33 1103.59 424.22 1049.19 592.02 877.35 676.24 1037.73 688.39
00005174 00000159 649.54 115.75 506.85 728.83 894.02 408.04 1100.91 426.04 1043.56 590.44 872.30 670.97 1035.86 687.16
00005175 00000160 647.52 114.60 507.11 729.17 890.47 405.64 1098.80 426.20 1040.10 588.86 868.10 667.89 1034.93 686.15
00005176 00000161 647.36 114.65 507.22 728.58 888.05 404.81 1098.42 426.00 1038.66 589.48 864.90 667.79 1033.61 686.74
00005177 00000162 646.92 114.39 508.71 727.75 888.65 404.54 1099.40 425.83 1039.19 589.71 865.95 667.61 1034.18 686.50
00005178 00000163 647.52 112.46 508.51 729.64 890.66 405.25 1100.19 425.29 1040.83 589.82 868.22 668.29 1034.31 686.14
00005179 00000164 649.14 113.13 509.61 729.47 894.53 407.31 1101.74 424.03 1044.55 591.77 871.44 669.94 1035.81 685.16
00005180 00000165 649.61 114.40 512.36 728.56 897.98 408.53 1103.79 424.74 1047.83 590.61 875.40 670.49 1037.94 685.09
00005181 00000166 650.39 115.58 512.18 729.74 900.28 409.41 1105.30 424.81 1051.07 591.05 877.59 672.63 1038.38 686.63
