Video ID: 	YmcaCwCFU24
H: 	1080
W: 	1920
FPS: 	25.0

FRAME INDEX X0 Y0 W H [Landmarks (5 Points)]

00197747 00000000 672.78 175.31 393.35 540.42 765.76 364.91 946.12 364.00 852.07 477.34 788.94 567.84 944.66 566.47
00197748 DELETE   663.54 174.82 389.62 534.94 756.43 367.03 932.79 366.52 838.86 476.51 777.84 566.11 925.61 565.68
00197749 00000002 658.15 185.94 389.28 521.64 750.02 364.03 924.04 365.99 827.91 475.39 769.60 561.13 914.32 563.35
00197750 00000003 656.29 185.01 385.97 516.90 746.54 362.92 919.36 363.44 824.44 475.45 769.22 562.92 909.13 564.27
00197751 00000004 655.18 184.83 388.90 520.61 748.98 362.51 921.93 363.19 828.59 474.36 771.69 560.90 913.83 562.16
00197752 00000005 659.84 184.11 384.72 518.87 756.41 362.11 931.40 361.02 840.36 471.28 779.17 560.75 923.11 560.05
00197753 00000006 656.78 180.20 391.82 521.94 762.10 363.31 936.58 355.25 857.22 474.40 794.21 562.30 937.49 555.06
00197754 00000007 655.09 168.94 398.22 533.79 766.89 364.97 943.22 348.77 873.70 473.38 802.08 564.84 948.10 550.76
00197755 00000008 653.00 163.72 406.10 538.05 769.04 366.55 946.20 346.37 880.16 471.64 806.46 564.06 955.01 546.25
00197756 00000009 652.97 158.67 405.44 540.97 770.89 365.74 947.49 345.35 883.63 467.17 807.06 561.40 957.94 543.02
00197757 00000010 655.30 154.67 404.72 548.65 773.91 364.08 949.29 344.21 887.36 465.60 808.70 560.53 961.37 542.61
00197758 00000011 652.56 150.07 406.93 557.35 776.94 363.55 951.81 342.42 894.96 464.11 813.13 560.62 964.90 541.63
00197759 00000012 655.48 151.61 404.85 558.52 781.29 364.91 956.60 342.39 903.48 464.81 817.28 561.48 972.90 541.49
00197760 00000013 655.74 150.70 405.48 561.37 788.94 365.72 963.54 342.05 916.04 464.34 823.37 563.49 977.85 542.63
00197761 00000014 657.85 160.77 403.12 551.99 791.83 371.87 964.86 341.90 921.88 466.15 830.75 568.48 982.77 542.51
00197762 00000015 657.33 169.51 400.55 543.07 794.76 377.58 965.61 345.99 925.64 470.63 832.92 572.98 981.54 545.77
00197763 00000016 660.02 168.28 395.19 538.41 797.90 383.79 967.79 350.43 926.60 473.84 837.92 575.57 983.69 546.87
00197764 00000017 660.78 166.67 392.15 540.94 799.76 386.11 965.70 352.21 926.98 476.07 840.29 577.03 982.91 548.20
00197765 00000018 656.89 164.20 394.69 546.52 796.95 388.19 960.90 355.17 922.89 479.37 838.09 578.76 978.17 550.75
00197766 00000019 654.88 158.35 394.73 556.17 795.04 391.17 957.29 359.35 918.93 482.16 836.40 582.59 973.29 555.66
00197767 00000020 654.63 164.01 394.30 554.12 793.36 394.91 958.16 361.11 917.64 487.62 834.92 588.67 973.17 560.05
00197768 00000021 653.20 161.75 395.87 557.18 793.14 398.20 960.01 364.64 918.43 491.51 834.73 590.29 976.14 561.86
00197769 00000022 653.16 163.89 395.65 557.82 794.57 399.35 961.76 367.08 919.86 493.38 833.39 591.40 975.90 564.33
00197770 00000023 653.19 167.79 398.39 565.80 797.14 397.78 961.88 367.95 922.23 492.05 832.67 591.57 977.83 566.67
00197771 00000024 656.82 169.61 398.53 570.22 800.75 393.93 963.25 367.26 925.75 490.54 833.50 590.87 979.62 568.94
00197772 00000025 659.47 167.76 399.16 577.10 802.74 386.25 968.07 365.61 930.54 485.36 831.74 586.12 984.60 569.18
00197773 00000026 663.24 169.42 399.64 571.25 806.05 380.82 971.32 361.29 933.23 479.88 835.28 579.71 989.09 563.38
00197774 00000027 671.50 164.72 397.05 562.69 807.21 368.75 976.32 354.58 928.30 469.00 841.39 570.56 991.85 559.67
00197775 00000028 673.76 161.84 397.69 555.18 812.68 364.55 984.91 350.17 936.18 464.56 844.96 566.44 995.67 555.05
00197776 00000029 676.88 159.25 397.42 548.93 816.16 362.42 989.49 347.14 936.64 462.13 847.50 563.82 996.95 551.21
00197777 00000030 680.06 157.26 398.07 546.17 820.86 358.53 991.40 345.44 937.47 460.15 849.53 558.68 995.14 547.76
00197778 00000031 682.69 153.92 400.18 547.42 823.45 355.76 993.60 344.41 939.59 458.88 850.34 556.00 995.19 546.45
00197779 00000032 685.29 152.60 400.69 544.41 825.86 353.56 995.54 341.51 940.33 458.43 852.87 553.14 995.27 542.78
00197780 00000033 687.39 151.30 400.81 542.87 826.97 351.78 997.45 340.34 941.10 454.38 853.78 548.24 996.55 538.23
00197781 00000034 684.95 133.93 401.98 559.41 819.56 354.48 996.01 342.54 938.62 455.43 850.59 546.23 1003.02 536.53
00197782 00000035 692.58 141.74 397.12 554.84 829.66 347.28 1000.05 334.70 942.70 446.98 857.83 545.59 1000.96 534.36
00197783 00000036 695.92 139.20 396.76 563.28 830.67 345.30 1002.79 332.49 945.50 446.55 861.87 547.98 1003.24 536.35
00197784 00000037 697.06 138.25 397.78 570.21 831.58 345.17 1004.29 332.34 948.46 443.36 863.16 548.91 1008.88 537.09
00197785 00000038 699.89 138.97 396.97 569.33 835.32 346.56 1006.95 334.31 950.29 444.49 864.63 549.15 1009.15 537.83
00197786 00000039 698.87 135.92 398.32 570.08 834.12 350.31 1007.27 334.64 951.01 449.84 864.26 552.00 1011.12 537.75
00197787 00000040 696.86 145.74 397.81 555.96 836.93 351.19 1008.35 337.42 952.66 457.20 861.68 550.32 1009.45 538.00
00197788 00000041 693.63 148.72 400.79 553.86 833.64 354.62 1007.58 341.45 949.56 461.43 858.13 552.31 1007.12 540.59
00197789 00000042 688.97 157.68 403.99 546.27 831.16 359.60 1007.14 345.02 950.31 466.25 856.77 555.08 1008.17 542.48
00197790 00000043 686.27 162.04 403.09 545.22 826.37 362.66 1005.26 346.78 950.26 469.03 857.15 562.08 1007.04 548.85
00197791 00000044 685.27 164.59 402.09 549.19 825.41 370.81 1002.38 354.04 948.08 474.85 853.54 564.74 1006.61 551.60
00197792 00000045 684.70 166.07 402.80 554.35 823.45 374.70 999.13 360.78 942.64 482.56 848.38 567.58 1003.60 556.90
00197793 00000046 683.85 167.07 401.25 556.34 819.46 377.80 997.72 363.19 940.73 486.37 845.46 572.78 1002.50 561.54
00197794 00000047 682.26 170.28 401.97 556.47 818.21 379.38 992.56 365.03 937.65 485.41 846.85 574.21 1001.61 563.09
00197795 00000048 680.49 168.40 403.27 561.59 816.08 380.17 989.17 365.32 935.90 486.22 845.93 576.08 1001.08 564.41
00197796 00000049 679.96 169.02 401.14 558.54 816.22 380.34 988.59 366.36 935.67 485.04 844.69 575.21 999.06 564.50
00197797 00000050 680.61 167.50 398.69 558.62 815.53 379.99 987.75 366.05 934.70 485.35 842.61 574.11 998.09 563.54
00197798 00000051 681.17 167.22 396.22 557.31 816.41 376.20 988.36 363.75 935.11 484.20 840.76 571.62 995.15 562.43
00197799 00000052 680.47 163.45 395.75 559.10 817.03 374.29 987.91 361.86 936.12 482.74 840.58 570.35 993.10 561.21
00197800 00000053 679.07 163.95 398.06 555.80 814.73 370.46 987.69 359.37 932.90 478.06 840.30 568.54 990.58 560.30
00197801 00000054 679.11 165.33 398.86 551.90 815.21 366.56 989.28 357.16 933.28 473.58 840.35 565.69 989.77 558.65
00197802 00000055 680.66 163.03 398.28 545.92 817.39 365.05 990.22 354.30 933.78 469.51 843.06 565.80 989.33 557.37
00197803 00000056 682.52 165.28 400.05 540.91 817.47 360.04 993.17 349.23 933.08 465.12 844.89 563.28 991.10 554.30
00197804 00000057 684.30 157.68 399.14 542.97 819.70 355.85 993.41 344.91 935.06 462.58 849.51 561.87 989.54 552.58
00197805 00000058 687.02 153.99 397.24 544.39 822.90 351.69 993.53 342.08 935.56 460.51 853.02 559.66 986.63 551.50
00197806 00000059 690.26 151.88 395.33 544.34 825.89 351.52 995.54 339.42 938.71 458.02 858.14 559.41 989.09 549.24
00197807 00000060 692.21 146.52 394.58 546.99 828.17 348.66 997.01 336.78 940.09 457.28 860.89 558.54 988.64 548.25
00197808 00000061 693.66 146.53 395.77 542.82 830.00 349.16 998.45 336.88 941.21 456.62 862.96 558.47 989.77 547.69
00197809 00000062 695.34 146.14 396.23 541.68 829.18 350.11 999.88 336.87 941.53 457.01 864.36 559.00 991.92 547.25
00197810 00000063 698.22 146.15 394.78 536.93 830.78 349.89 1001.57 337.85 942.36 457.40 863.18 557.50 993.27 546.82
00197811 00000064 694.80 132.83 402.53 550.78 827.46 351.09 1002.39 343.30 938.67 458.00 861.43 548.87 1001.73 542.67
00197812 00000065 697.67 134.67 402.21 550.36 830.94 349.72 1006.79 341.96 942.85 456.15 862.92 548.38 1005.57 542.27
00197813 00000066 700.17 127.09 400.42 560.33 836.98 347.03 1010.23 340.13 946.79 455.77 865.14 548.15 1006.96 542.45
00197814 00000067 707.34 119.22 394.32 564.26 845.21 347.60 1015.51 340.03 952.22 456.55 873.39 548.14 1011.56 541.70
00197815 00000068 710.69 117.71 394.76 562.16 848.40 347.51 1018.59 339.32 955.90 454.89 879.68 548.94 1014.92 542.19
00197816 00000069 713.18 118.68 393.43 561.38 851.85 347.64 1022.92 341.10 961.51 451.60 880.74 546.89 1018.19 541.74
00197817 00000070 718.06 113.65 390.93 562.94 856.19 347.86 1028.80 344.04 967.85 448.53 883.80 545.02 1022.62 542.21
00197818 00000071 722.71 116.74 390.90 564.70 862.18 349.24 1032.93 346.65 974.50 448.66 887.33 545.28 1027.77 543.34
00197819 00000072 726.40 114.88 394.79 567.85 870.00 348.00 1040.27 348.63 983.14 449.37 894.04 545.75 1033.89 546.21
00197820 00000073 731.29 118.26 395.37 563.15 877.13 345.90 1045.74 348.53 991.05 450.03 901.58 544.75 1038.88 546.83
00197821 00000074 735.81 118.99 401.18 564.48 884.03 337.83 1058.21 341.74 997.36 451.32 908.89 545.13 1048.56 549.74
00197822 00000075 739.60 118.50 397.74 567.41 888.61 340.65 1061.46 346.64 1003.14 453.31 911.37 545.54 1051.19 551.94
00197823 00000076 743.56 123.75 399.18 568.02 890.92 346.01 1065.66 353.97 1003.17 458.06 909.14 546.92 1051.26 554.78
00197824 00000077 744.37 128.09 398.75 569.76 893.11 352.55 1064.83 358.71 1004.12 463.68 913.64 553.20 1050.89 559.81
00197825 00000078 746.09 133.04 397.84 569.07 893.65 358.03 1065.56 362.70 1004.80 467.66 916.15 559.39 1048.90 564.66
00197826 00000079 749.88 149.31 391.28 565.76 898.01 358.49 1064.51 362.24 1007.49 469.11 916.67 568.78 1043.42 572.50
00197827 00000080 749.68 154.46 393.15 570.35 896.80 361.81 1063.98 366.39 1005.26 472.67 916.98 574.14 1043.61 578.66
00197828 00000081 752.06 155.89 390.18 570.68 897.37 366.88 1065.54 372.56 1005.59 479.40 917.77 579.53 1043.29 585.10
00197829 00000082 750.33 159.32 390.57 570.16 899.80 372.27 1065.84 376.06 1008.19 485.93 919.10 584.25 1043.90 588.46
00197830 00000083 751.86 158.20 389.40 573.62 899.98 376.91 1066.51 379.99 1010.13 490.54 918.50 587.51 1047.38 591.23
00197831 00000084 751.69 158.91 388.81 571.74 899.40 377.72 1065.46 380.42 1009.46 490.60 917.78 587.04 1047.49 590.51
00197832 00000085 751.63 157.25 387.44 569.87 895.60 377.91 1062.99 379.60 1006.93 490.99 915.67 587.48 1045.41 590.28
00197833 00000086 749.41 155.08 387.25 569.94 892.54 376.16 1059.63 376.97 1003.77 488.96 915.14 584.61 1043.71 586.73
00197834 00000087 746.94 150.71 388.09 572.86 890.45 374.50 1057.02 374.51 1000.91 487.70 914.38 582.18 1040.66 583.61
00197835 00000088 744.45 149.99 389.67 571.58 885.11 368.99 1054.91 369.21 996.68 482.89 909.82 578.42 1039.18 579.81
00197836 00000089 739.56 138.07 395.09 569.22 881.39 370.04 1052.61 364.28 993.91 478.04 914.68 568.27 1049.26 565.11
00197837 00000090 740.11 146.85 386.63 556.71 879.76 366.30 1046.22 358.77 997.68 471.47 905.02 567.54 1041.55 561.24
00197838 00000091 736.36 137.58 388.78 558.65 877.08 361.07 1044.58 352.58 997.56 465.41 902.21 561.39 1040.97 554.32
00197839 00000092 732.74 133.01 387.99 557.33 871.88 354.55 1039.72 345.98 992.09 457.54 899.24 557.16 1035.87 550.14
00197840 00000093 728.10 124.87 390.55 554.06 867.48 352.93 1035.97 346.49 980.25 456.11 903.99 554.80 1033.46 549.12
00197841 00000094 723.90 122.06 390.03 556.87 863.62 351.96 1032.79 347.22 975.50 452.05 898.48 552.01 1030.79 547.81
00197842 00000095 718.69 122.30 392.26 564.82 861.19 349.48 1031.61 345.77 971.46 454.00 890.89 554.16 1025.35 551.01
00197843 00000096 716.21 125.86 394.04 574.39 854.96 351.79 1023.99 341.83 969.41 457.26 886.13 560.88 1020.66 551.33
00197844 00000097 711.66 130.97 395.46 580.72 851.18 349.63 1016.47 344.25 959.09 460.15 877.57 562.29 1008.49 556.74
00197845 00000098 704.82 133.35 398.32 580.17 842.16 344.77 1011.17 342.09 948.53 455.63 864.23 559.29 996.11 556.32
00197846 00000099 700.02 143.48 401.14 571.87 833.75 342.67 1005.67 344.96 937.61 453.75 851.56 555.26 989.33 556.76
00197847 00000100 698.82 141.39 403.04 574.84 828.03 342.83 1001.55 346.60 929.57 452.29 842.38 551.39 985.80 554.21
00197848 00000101 697.69 144.09 401.34 564.44 824.22 340.58 998.22 345.52 924.44 450.11 839.22 547.00 979.84 551.01
00197849 00000102 701.52 146.17 394.95 555.01 822.22 340.76 993.55 346.13 917.43 451.63 837.27 542.83 972.72 547.31
CROP_BBOX: 455 0 1340 871
