Video ID: 	ySQpXmEpP7s
H: 	1080
W: 	1920
FPS: 	25.0

FRAME INDEX X0 Y0 W H [Landmarks (5 Points)]

00016390 00000000 821.48 120.91 385.44 506.22 909.82 342.83 1064.39 323.45 989.63 427.27 955.03 517.37 1074.29 501.53
00016391 00000001 822.55 112.51 385.28 509.50 909.99 332.41 1066.41 313.45 993.08 414.86 956.48 508.77 1078.65 492.83
00016392 00000002 821.56 119.32 381.46 503.75 906.04 336.31 1058.41 314.39 985.73 413.65 948.86 506.54 1074.31 488.74
00016393 DELETE   817.24 125.33 379.81 503.13 898.70 342.62 1049.99 324.49 973.30 422.09 936.72 509.37 1064.01 494.76
00016394 00000004 815.43 124.64 380.13 501.94 895.95 344.39 1049.46 326.17 971.34 423.34 935.69 511.22 1063.73 496.22
00016395 00000005 812.70 121.19 382.64 502.32 893.68 343.64 1048.30 324.74 969.89 421.32 935.29 510.08 1063.15 494.24
00016396 00000006 807.97 124.69 380.92 500.74 885.92 340.14 1040.98 325.38 958.16 422.87 922.84 507.89 1052.22 495.37
00016397 DELETE   802.55 130.07 374.72 501.44 871.60 342.34 1022.05 328.99 930.03 422.62 898.99 507.28 1029.06 496.75
00016398 00000008 802.20 121.34 364.04 509.96 856.93 348.63 1004.52 328.17 899.93 425.84 883.24 518.08 1012.33 501.18
00016399 00000009 792.50 119.50 364.20 512.22 844.75 344.37 992.83 323.87 889.39 422.12 871.97 518.52 1001.31 501.65
00016400 DELETE   785.79 112.23 358.52 515.84 832.72 328.69 979.26 308.58 871.74 405.64 864.11 511.87 989.44 495.28
00016401 DELETE   779.33 92.27 351.10 514.43 820.10 321.87 963.28 295.81 855.26 376.86 849.05 491.24 959.07 468.69
00016402 00000012 770.85 83.11 357.77 493.46 815.58 309.02 955.62 284.26 844.83 355.81 839.68 473.62 941.78 452.69
00016403 00000013 766.78 74.95 361.50 489.55 810.17 305.44 953.56 279.18 840.36 348.68 830.25 460.70 943.74 439.03
00016404 DELETE   762.97 77.89 365.10 495.16 809.57 307.64 954.15 281.51 842.69 350.70 832.51 467.47 940.41 445.83
00016405 00000015 755.28 91.36 365.56 504.38 797.36 316.96 955.01 282.00 843.80 372.96 829.96 491.21 946.18 464.80
00016406 00000016 748.45 109.25 372.68 503.79 805.42 330.53 950.64 313.97 849.03 401.86 829.53 498.42 953.63 485.62
00016407 00000017 743.80 119.00 375.58 509.77 804.74 337.76 953.91 326.98 853.44 415.60 827.77 507.23 953.21 499.30
00016408 00000018 743.06 119.06 378.08 507.96 806.30 339.05 957.55 327.54 857.16 415.15 828.93 507.60 954.48 499.17
00016409 00000019 757.11 116.30 370.88 503.02 807.93 336.68 964.54 311.65 858.00 399.28 838.53 510.25 959.58 491.05
00016410 00000020 762.23 110.34 375.94 506.81 826.36 338.23 975.32 318.57 868.83 393.45 845.05 500.17 961.55 484.08
00016411 00000021 766.08 109.11 374.14 507.23 826.81 333.62 981.47 316.14 876.96 400.01 851.35 507.32 969.88 493.28
00016412 00000022 770.13 112.73 374.22 512.63 833.40 334.86 987.70 320.50 883.37 404.65 856.84 511.55 973.96 499.88
00016413 00000023 775.86 115.25 372.81 515.38 840.00 335.63 994.32 322.84 887.86 406.83 860.10 512.39 982.59 502.05
00016414 00000024 780.05 116.77 374.56 520.28 846.66 337.82 1001.78 325.44 891.77 409.42 865.36 517.27 988.99 507.34
00016415 00000025 780.32 117.99 376.79 525.98 850.23 344.36 1006.60 331.11 901.75 416.84 872.13 525.12 995.98 514.24
00016416 00000026 775.29 117.01 381.35 524.02 848.29 351.03 1005.16 334.71 903.75 420.85 876.45 528.61 995.67 514.85
00016417 00000027 778.22 120.18 377.45 512.81 845.85 345.91 1001.68 330.90 896.00 414.20 867.92 518.51 989.81 506.17
00016418 00000028 781.66 114.60 371.83 508.94 848.75 333.86 1000.73 318.39 893.23 396.95 866.49 505.60 988.53 493.33
00016419 00000029 781.94 106.94 373.54 509.40 846.37 330.17 1002.64 311.92 892.89 391.71 864.58 499.58 993.46 484.92
00016420 00000030 783.03 106.91 375.94 509.61 848.29 330.96 1007.84 312.83 897.13 394.42 867.17 501.42 1001.50 486.55
00016421 00000031 784.38 112.10 375.80 511.85 850.19 336.40 1011.05 318.70 903.16 405.24 869.75 508.17 1009.11 493.67
00016422 00000032 782.56 118.32 378.21 514.01 847.17 346.80 1006.08 330.70 898.29 417.42 865.39 516.92 1006.78 503.25
00016423 00000033 783.76 119.67 377.09 516.17 849.91 351.73 1005.99 335.60 897.96 419.50 867.01 520.54 1005.33 506.76
00016424 00000034 787.51 120.27 379.38 516.33 853.77 351.12 1011.58 334.46 901.83 419.78 871.10 521.25 1010.45 506.95
00016425 00000035 779.30 129.44 385.17 512.45 854.72 351.29 1017.52 344.74 916.05 423.80 877.15 517.82 1014.68 513.22
00016426 00000036 780.26 131.98 388.21 516.64 856.74 356.64 1019.29 348.76 918.63 429.16 882.28 523.20 1017.55 517.42
00016427 00000037 782.07 130.64 387.86 522.03 858.26 359.07 1020.01 352.41 919.51 433.94 883.58 527.07 1016.88 522.22
00016428 00000038 785.42 132.94 386.67 519.72 861.48 361.29 1022.41 355.28 922.71 436.42 886.48 528.41 1016.85 524.29
00016429 00000039 785.82 136.83 387.66 518.05 861.97 364.39 1023.32 357.86 923.40 441.32 887.55 532.55 1016.28 527.96
00016430 00000040 786.22 139.62 387.03 516.29 862.59 366.47 1023.37 358.63 925.19 443.39 889.53 535.15 1016.96 529.40
00016431 00000041 786.16 138.70 387.53 515.08 863.59 366.37 1023.96 358.74 927.28 441.23 890.76 534.57 1016.97 529.06
00016432 00000042 786.36 139.81 387.62 511.22 864.93 366.44 1025.46 359.15 929.30 440.43 891.55 532.69 1017.51 527.65
00016433 00000043 789.35 145.36 383.73 508.25 865.99 369.81 1028.86 364.89 929.24 444.13 888.95 534.19 1017.22 531.31
00016434 00000044 787.42 147.67 383.83 509.35 864.26 371.07 1027.23 364.16 928.70 447.61 888.46 537.54 1017.17 532.99
00016435 00000045 788.61 148.12 382.70 508.37 864.71 371.76 1028.77 366.19 929.11 449.20 887.22 537.79 1017.31 534.28
00016436 00000046 788.99 143.22 382.96 512.68 865.22 371.22 1030.00 365.63 930.60 448.80 888.50 537.35 1019.39 533.69
00016437 00000047 788.80 142.53 383.56 512.29 865.30 369.23 1030.18 364.06 930.58 447.87 887.92 535.79 1018.83 532.54
00016438 00000048 786.88 141.42 385.16 513.62 864.32 368.97 1029.06 363.33 930.11 447.62 887.45 534.86 1019.40 530.90
00016439 00000049 785.33 140.98 387.12 513.61 862.99 369.13 1028.07 362.89 929.28 448.37 887.17 534.96 1019.81 530.28
00016440 00000050 784.00 141.28 387.49 515.11 862.55 368.13 1025.46 360.96 928.94 447.71 888.97 536.28 1018.53 530.82
00016441 00000051 783.77 142.13 385.89 519.88 864.56 366.80 1023.22 359.95 930.60 447.88 892.84 539.19 1017.52 534.27
00016442 00000052 782.91 140.98 387.63 521.86 865.12 368.12 1024.73 360.87 932.36 447.97 894.99 540.21 1020.04 535.01
00016443 00000053 780.89 141.90 391.48 517.02 866.57 368.51 1026.92 359.14 936.52 446.82 899.34 538.84 1023.98 531.85
00016444 00000054 780.02 143.21 394.54 514.22 868.93 368.99 1028.97 357.12 942.21 446.54 906.32 538.59 1030.61 529.27
00016445 00000055 780.82 143.34 394.70 514.16 871.35 369.34 1031.80 354.60 948.30 445.50 911.68 539.00 1037.20 527.15
00016446 00000056 782.16 145.30 397.89 511.98 875.96 369.27 1038.54 354.16 957.02 449.22 918.21 539.85 1045.51 527.29
00016447 00000057 782.40 143.93 398.12 513.84 877.78 369.13 1041.82 354.79 960.60 450.00 920.59 540.67 1048.71 528.70
00016448 00000058 780.43 144.83 397.85 514.58 877.45 370.71 1042.06 356.35 961.70 451.73 920.35 542.14 1049.00 530.06
00016449 00000059 779.22 145.84 397.07 514.81 875.78 371.95 1041.35 356.75 960.62 452.66 918.79 543.32 1048.58 530.58
00016450 00000060 778.56 144.80 396.57 518.21 873.79 373.34 1040.07 356.99 958.28 454.00 917.31 544.81 1048.69 531.09
00016451 00000061 776.37 147.19 396.08 519.49 872.71 376.43 1038.93 359.20 957.78 457.69 917.97 548.79 1048.44 534.45
00016452 00000062 777.63 148.53 395.01 519.57 873.90 379.16 1041.32 360.93 961.00 459.40 920.17 550.55 1052.78 535.33
00016453 00000063 778.31 149.34 394.33 519.99 874.50 379.82 1041.52 360.85 962.37 459.24 920.98 551.04 1054.26 535.13
00016454 00000064 776.98 148.21 394.87 522.26 874.18 380.06 1041.85 360.85 962.87 459.48 920.75 551.51 1054.89 535.32
00016455 00000065 773.23 150.12 395.75 522.46 872.26 381.14 1042.16 362.33 962.47 462.13 919.30 553.11 1055.65 537.28
00016456 00000066 771.10 149.24 394.59 524.87 870.71 383.36 1039.99 364.36 961.32 466.03 918.64 554.82 1054.89 538.74
00016457 00000067 769.61 150.39 394.24 525.30 870.06 384.58 1037.57 365.55 959.62 467.86 918.13 556.02 1052.51 539.95
00016458 00000068 771.84 151.35 392.37 523.63 871.06 385.21 1037.29 366.73 959.67 469.06 918.83 556.21 1051.75 540.65
00016459 00000069 772.50 153.04 393.02 520.40 872.12 385.61 1037.71 368.07 959.32 469.96 918.79 556.45 1049.57 541.85
00016460 00000070 775.33 153.35 392.35 521.53 872.41 384.27 1039.03 368.37 958.47 472.38 917.62 557.62 1048.49 544.58
00016461 00000071 775.60 153.56 392.49 520.06 872.04 384.55 1039.96 368.56 958.42 473.15 917.55 558.09 1049.25 545.00
00016462 00000072 776.86 152.49 392.26 522.39 873.20 384.06 1041.40 368.59 959.39 473.50 918.17 559.56 1048.86 547.07
00016463 00000073 778.24 152.56 391.00 522.28 874.55 385.02 1042.05 369.15 961.22 474.08 920.14 560.64 1049.61 547.82
00016464 00000074 778.43 154.23 390.84 524.04 874.61 385.66 1042.81 369.08 962.47 474.44 920.47 562.35 1051.00 548.94
00016465 00000075 779.73 159.49 388.96 526.62 872.65 388.45 1037.68 371.87 957.85 479.49 919.13 564.88 1050.96 551.51
00016466 DELETE   774.22 174.77 389.14 519.99 862.19 404.19 1021.08 384.01 940.89 494.60 908.83 571.72 1042.35 555.14
00016467 DELETE   756.37 187.27 393.96 520.55 826.39 430.83 990.46 393.75 916.13 518.41 887.32 605.34 1024.71 573.59
00016468 DELETE   735.83 218.58 387.82 511.23 807.66 455.68 951.97 423.74 872.88 541.36 864.08 617.12 985.38 590.21
00016469 00000079 721.17 227.61 382.77 509.23 786.59 462.13 932.62 433.42 848.95 549.57 847.70 629.25 964.31 605.02
00016470 00000080 715.43 220.41 386.95 515.45 780.50 459.96 926.37 431.47 840.89 550.09 845.83 632.11 958.01 608.04
00016471 00000081 720.52 223.90 387.33 505.42 790.19 454.47 934.42 429.96 852.96 542.84 847.46 623.31 958.33 602.91
00016472 00000082 726.05 219.68 385.94 503.59 798.50 450.20 938.25 422.45 862.67 537.78 857.60 619.53 966.07 596.62
00016473 00000083 731.05 213.42 382.11 501.95 804.70 444.33 943.55 412.85 872.20 531.69 867.94 616.41 974.90 590.64
00016474 00000084 735.38 209.16 380.97 498.62 810.00 439.76 951.60 411.39 878.78 530.61 872.48 614.64 977.89 591.93
00016475 00000085 741.21 194.86 390.78 518.30 807.53 437.54 955.21 406.89 879.96 524.63 880.79 616.58 980.77 589.54
00016476 00000086 748.76 198.85 392.29 522.99 814.74 438.97 966.82 411.88 886.66 530.10 883.47 619.22 987.33 595.44
00016477 00000087 755.50 202.07 393.73 518.90 823.44 440.90 980.64 416.49 897.46 531.31 884.92 618.31 1003.56 596.37
00016478 00000088 760.10 213.57 391.12 512.30 835.27 442.82 991.36 422.93 903.02 535.85 886.36 614.36 1011.73 597.34
00016479 00000089 761.06 215.64 395.00 511.51 839.64 443.70 1000.72 424.05 911.16 537.86 891.08 613.80 1021.81 597.02
00016480 00000090 762.48 217.83 397.98 509.55 846.57 442.17 1006.35 421.90 920.73 536.14 898.71 611.70 1027.55 594.17
00016481 00000091 764.55 219.51 395.42 509.44 850.03 446.35 1005.43 423.94 925.48 535.85 904.79 612.75 1029.51 593.26
00016482 00000092 762.26 221.46 396.65 508.22 849.55 447.60 1007.61 423.08 927.52 537.38 905.24 614.95 1031.68 593.71
00016483 00000093 761.49 222.38 396.49 507.28 849.91 447.75 1011.44 426.12 929.31 540.95 903.74 616.82 1031.82 598.31
00016484 00000094 760.24 219.74 396.36 511.27 850.83 447.62 1013.11 427.69 931.21 543.37 904.04 617.77 1032.80 600.73
00016485 00000095 755.05 220.06 397.50 507.97 846.92 447.62 1011.61 425.48 928.99 542.01 899.88 617.24 1030.63 598.69
00016486 00000096 755.11 207.77 396.35 516.43 834.11 446.80 1002.58 420.03 928.22 541.25 893.82 620.72 1027.82 597.12
00016487 00000097 748.40 211.47 395.21 507.09 839.08 442.79 1005.13 418.01 922.68 534.56 889.31 611.92 1023.91 591.34
00016488 00000098 745.68 207.28 397.71 510.15 837.43 440.86 1003.56 412.71 923.06 532.08 889.50 610.52 1025.93 587.13
00016489 00000099 743.11 207.98 399.87 509.16 836.61 439.45 1004.30 409.52 924.31 529.27 890.90 609.78 1028.41 584.76
00016490 00000100 742.75 205.14 400.40 511.53 837.30 438.49 1005.40 408.07 926.43 527.92 892.72 608.90 1030.22 583.43
00016491 00000101 743.50 203.90 399.97 512.12 837.65 438.28 1004.63 407.28 926.47 527.94 893.14 608.27 1030.41 582.29
00016492 00000102 735.23 207.15 408.46 511.74 832.51 443.88 992.17 408.48 922.48 531.07 892.47 613.78 1018.64 584.44
00016493 00000103 743.08 205.43 398.83 509.80 836.85 439.37 1004.01 408.92 925.54 529.68 891.91 608.75 1028.71 583.39
00016494 00000104 743.24 207.42 399.19 508.35 837.35 439.81 1004.25 409.19 926.25 530.47 892.03 608.85 1028.52 583.31
00016495 00000105 743.48 206.54 399.98 510.68 838.21 438.89 1004.29 408.00 927.58 530.46 894.50 609.34 1030.03 583.46
00016496 00000106 744.19 205.86 402.33 512.98 839.44 437.30 1005.66 405.34 930.15 529.75 899.46 610.71 1033.46 583.86
00016497 00000107 744.55 206.11 402.71 511.94 840.89 436.94 1006.64 405.26 931.16 529.94 899.34 609.38 1034.80 582.60
00016498 00000108 745.92 206.20 401.49 510.21 842.21 437.42 1008.15 406.31 932.10 529.67 897.93 607.59 1034.90 581.27
00016499 00000109 746.42 206.05 401.46 511.50 842.86 437.12 1007.98 406.31 932.43 529.99 898.50 607.15 1035.27 580.99
00016500 00000110 747.09 206.35 401.35 511.46 843.62 436.75 1008.21 405.77 932.91 530.00 898.44 606.53 1035.99 580.19
00016501 00000111 749.41 205.82 399.97 510.98 845.02 436.15 1009.26 405.47 933.74 529.58 898.25 604.93 1037.40 578.73
00016502 00000112 750.97 206.69 398.99 509.42 846.26 436.02 1009.89 404.56 935.40 529.85 898.34 602.85 1040.62 575.87
00016503 00000113 752.62 208.06 398.82 508.43 847.16 436.35 1010.67 405.00 936.56 531.41 899.22 601.75 1043.46 574.69
00016504 00000114 752.45 209.65 399.78 507.55 847.00 437.92 1010.70 406.18 936.47 532.83 900.51 602.83 1045.21 575.42
00016505 00000115 752.06 210.06 400.24 506.20 846.82 438.08 1010.61 406.80 935.84 532.18 899.49 601.73 1044.58 574.69
00016506 00000116 753.68 208.60 397.14 507.20 844.53 437.96 1008.70 405.65 933.54 532.28 895.96 600.61 1044.78 572.65
00016507 00000117 753.53 204.66 397.83 510.58 842.86 437.21 1007.51 402.95 932.52 530.84 894.46 599.33 1045.67 569.75
00016508 00000118 752.94 205.55 397.78 509.77 842.58 436.59 1006.84 401.97 932.90 532.10 894.09 598.31 1045.40 568.45
00016509 00000119 753.18 204.65 396.57 509.38 841.95 436.26 1005.95 400.61 933.11 533.00 893.39 596.87 1045.69 566.13
00016510 00000120 755.77 206.60 395.29 506.91 842.70 435.58 1006.97 400.99 933.41 533.35 893.23 595.27 1047.03 565.46
00016511 00000121 755.92 206.21 396.52 507.12 843.43 435.73 1008.31 401.08 934.61 533.71 894.15 595.94 1048.04 566.14
00016512 00000122 757.10 207.64 396.19 505.90 843.96 435.81 1008.36 401.57 934.41 533.15 894.85 595.34 1048.56 565.89
00016513 00000123 759.64 207.69 394.84 506.59 845.45 436.06 1008.83 401.05 937.06 533.26 897.53 594.05 1052.39 563.95
00016514 00000124 761.92 204.48 394.39 508.07 847.38 434.80 1009.85 399.87 939.74 532.49 899.42 591.58 1055.41 561.60
00016515 00000125 763.83 201.83 393.24 506.10 851.32 431.41 1013.86 398.02 943.74 528.35 902.78 587.38 1056.67 558.79
00016516 00000126 769.34 197.52 390.30 503.86 856.58 424.47 1017.28 392.64 947.50 518.41 906.38 582.65 1055.98 555.49
00016517 00000127 773.65 186.32 388.59 505.08 857.43 417.05 1017.04 387.50 942.95 508.38 910.28 571.41 1056.37 545.11
00016518 00000128 776.24 183.35 386.51 503.64 862.21 410.76 1019.29 381.85 948.05 503.15 916.04 567.20 1056.83 541.60
00016519 00000129 780.03 178.43 383.31 505.13 868.85 406.13 1025.94 380.09 955.67 501.62 923.56 564.30 1060.98 541.01
00016520 00000130 786.72 174.51 381.78 506.26 875.01 402.54 1032.01 376.29 962.55 496.34 929.46 562.15 1065.46 539.01
00016521 00000131 789.10 169.33 383.38 511.59 878.06 400.93 1036.14 373.07 967.72 491.71 932.19 560.09 1069.19 535.71
00016522 00000132 791.20 165.43 384.23 514.87 880.70 399.59 1038.19 370.20 969.90 487.05 935.26 559.88 1070.68 534.52
00016523 00000133 796.73 164.41 384.47 520.70 887.28 397.93 1039.34 367.45 973.32 483.68 940.25 559.51 1071.52 533.39
00016524 00000134 808.07 166.10 381.96 521.21 891.89 391.67 1043.91 363.65 976.92 478.18 939.46 564.64 1070.27 540.60
00016525 00000135 808.86 164.98 382.92 518.49 895.16 391.94 1047.86 367.01 982.74 482.07 940.48 563.35 1070.55 542.01
00016526 00000136 809.57 168.57 386.32 518.08 898.90 393.87 1052.62 369.53 989.29 488.38 945.80 566.85 1074.90 545.97
00016527 00000137 812.80 173.15 387.23 518.38 905.32 401.80 1059.61 379.20 996.32 499.19 951.74 573.73 1079.45 554.39
00016528 00000138 812.88 182.48 391.23 512.93 909.53 412.59 1068.33 393.03 1001.35 514.01 956.75 585.86 1080.96 569.50
00016529 DELETE   814.72 196.65 391.60 509.70 913.09 419.33 1067.88 405.93 999.31 526.79 952.56 592.01 1073.04 581.30
00016530 00000140 828.84 195.30 380.57 522.05 911.64 427.96 1075.07 421.39 990.06 527.19 939.71 603.09 1066.97 597.54
00016531 DELETE   837.02 214.80 368.34 514.60 907.40 434.94 1067.21 440.30 973.08 539.76 920.80 605.96 1053.37 611.05
00016532 00000142 832.27 219.04 368.10 516.37 899.49 442.47 1056.68 453.01 959.04 549.65 907.08 609.41 1037.36 617.33
00016533 00000143 827.35 215.81 368.25 521.28 895.01 444.64 1051.80 454.02 956.10 549.04 905.02 611.39 1033.15 618.36
00016534 00000144 823.88 215.11 368.42 525.10 892.67 448.13 1050.95 453.79 958.18 549.93 909.03 615.47 1035.09 619.14
CROP_BBOX: 522 0 1482 897
