Video ID: 	W5q8tXEYq6I
H: 	1080
W: 	1920
FPS: 	30.0

FRAME INDEX X0 Y0 W H [Landmarks (5 Points)]

00001134 00000000 802.75 175.04 362.83 535.45 900.00 368.75 1073.86 366.72 992.88 505.35 905.66 553.10 1070.82 552.90
00001135 00000001 799.37 171.23 366.20 538.86 897.57 365.13 1072.02 363.94 991.19 503.34 903.99 550.45 1066.61 550.56
00001136 00000002 802.99 163.98 362.57 542.48 898.97 363.34 1074.68 360.28 994.68 499.51 907.91 550.68 1070.96 549.23
00001137 00000003 806.27 155.94 364.16 547.49 902.34 362.00 1079.65 355.71 1001.32 497.03 912.07 546.63 1077.58 542.21
00001138 DELETE   805.23 151.47 365.15 549.20 900.78 356.47 1079.67 351.66 1000.64 494.18 910.64 543.56 1075.18 540.09
00001139 00000005 802.50 151.84 363.55 543.85 897.43 351.77 1076.54 349.88 996.29 488.88 907.05 539.82 1069.61 538.62
00001140 00000006 804.25 143.46 362.69 548.47 898.33 348.24 1077.97 344.93 999.68 484.20 909.81 535.76 1072.52 533.54
00001141 00000007 806.16 136.19 364.15 548.59 905.91 347.96 1080.64 342.35 1002.76 481.44 913.41 531.16 1083.71 528.92
00001142 DELETE   814.18 135.82 365.03 545.69 912.14 346.35 1085.52 338.19 1006.97 478.60 919.66 526.20 1093.36 521.81
00001143 00000009 810.46 130.63 367.45 545.87 910.71 342.68 1085.08 335.03 1007.34 475.73 918.41 522.72 1090.53 519.12
00001144 00000010 808.56 128.88 365.11 542.99 909.52 340.97 1083.22 334.93 1005.53 473.29 916.33 521.03 1085.50 518.66
00001145 00000011 806.64 128.20 364.34 542.40 907.29 339.10 1080.51 334.12 1002.74 471.84 914.65 520.26 1082.15 518.75
00001146 00000012 808.15 129.67 364.40 542.29 908.53 340.19 1082.76 334.40 1004.54 473.78 915.62 520.42 1085.66 518.23
00001147 00000013 810.38 135.23 366.42 549.24 910.63 346.69 1084.22 340.77 1004.77 479.80 916.93 526.87 1090.06 524.29
00001148 00000014 813.28 139.92 364.21 550.14 911.59 351.40 1086.84 344.91 1006.72 485.96 917.74 534.04 1090.54 530.88
00001149 00000015 812.70 143.26 363.82 549.18 907.21 352.81 1086.26 349.43 1007.52 491.31 916.47 540.50 1082.09 538.39
00001150 DELETE   812.50 147.14 360.85 546.93 906.17 355.31 1084.15 351.34 1005.63 492.96 915.94 542.32 1079.37 539.82
00001151 DELETE   814.13 150.00 361.30 546.70 908.92 358.86 1085.76 354.14 1007.97 497.54 918.91 544.84 1083.35 541.75
00001152 00000018 819.05 153.63 361.75 544.65 913.26 363.59 1088.67 360.43 1010.07 502.12 921.68 545.41 1089.87 543.62
00001153 00000019 822.80 157.89 362.54 543.02 920.48 367.47 1092.13 365.74 1016.69 507.32 929.33 549.18 1094.20 548.81
00001154 00000020 824.72 164.72 365.02 540.91 925.13 371.98 1095.52 370.15 1020.92 509.71 933.21 553.76 1096.49 553.85
00001155 00000021 828.13 167.00 364.94 541.04 930.33 375.44 1098.01 373.13 1026.68 512.64 937.36 553.96 1100.37 554.02
00001156 00000022 830.69 165.91 366.11 542.92 932.69 376.49 1101.12 372.93 1031.45 510.69 942.73 555.48 1105.18 554.17
00001157 00000023 834.85 165.21 367.58 547.15 934.47 379.05 1102.96 373.24 1033.61 511.84 945.64 556.71 1109.73 553.30
00001158 00000024 838.54 166.27 366.00 547.15 938.53 380.50 1108.56 375.02 1037.76 512.99 948.68 557.95 1115.31 555.07
00001159 00000025 841.37 169.34 366.20 550.02 944.39 381.33 1112.47 377.07 1041.27 514.48 951.69 558.71 1117.47 557.06
00001160 00000026 844.39 167.69 362.38 548.38 947.40 380.16 1116.93 381.67 1041.10 511.84 953.76 564.16 1115.26 565.50
00001161 00000027 846.27 169.31 365.32 548.12 948.40 381.51 1120.72 384.55 1041.70 513.17 955.18 564.27 1119.68 566.84
00001162 00000028 848.82 171.30 367.27 548.19 951.05 379.21 1124.59 382.72 1044.66 510.95 957.70 563.07 1124.57 565.91
00001163 00000029 852.43 171.70 366.79 547.69 955.01 379.49 1126.79 381.86 1048.38 509.59 961.11 562.68 1126.80 564.82
00001164 00000030 854.78 172.91 367.13 546.21 958.23 378.52 1129.16 381.50 1050.73 510.58 963.77 561.97 1127.79 564.84
00001165 00000031 857.76 175.13 365.80 541.83 960.99 377.48 1131.37 380.20 1053.02 510.66 965.75 560.79 1128.14 563.85
00001166 00000032 859.41 174.05 363.92 540.40 961.81 376.78 1131.81 378.47 1054.23 510.98 966.55 559.38 1128.54 561.60
00001167 00000033 857.90 172.05 365.06 540.86 961.48 375.49 1131.09 377.50 1054.62 510.15 967.02 558.58 1126.75 560.86
00001168 00000034 857.05 172.10 365.65 538.77 961.23 374.01 1131.11 375.61 1055.17 509.65 966.63 557.34 1126.40 559.28
00001169 00000035 857.08 169.27 364.48 540.06 960.56 373.80 1130.38 375.39 1054.42 508.81 965.90 557.09 1125.45 559.09
00001170 00000036 857.81 168.50 364.11 540.85 960.26 373.18 1130.27 374.64 1054.41 508.34 966.21 556.34 1125.95 558.17
00001171 00000037 857.54 168.35 365.38 541.33 960.38 372.99 1131.61 374.40 1054.97 508.44 966.91 557.55 1126.62 559.29
00001172 00000038 857.48 169.94 365.52 539.10 960.21 373.47 1131.80 374.77 1055.10 508.77 965.94 557.30 1126.93 559.09
00001173 00000039 855.62 168.33 365.65 541.83 958.73 374.22 1129.54 375.84 1053.35 509.31 964.10 557.38 1125.33 559.28
00001174 00000040 852.94 166.20 366.26 544.74 955.00 373.90 1127.49 375.38 1051.04 507.84 961.92 559.11 1123.63 560.58
00001175 00000041 848.84 165.10 366.56 543.40 952.60 372.60 1125.27 375.01 1048.76 506.66 960.45 560.19 1118.56 562.34
00001176 00000042 846.87 165.52 366.72 542.22 950.91 372.77 1123.64 375.25 1046.88 507.17 958.14 559.11 1117.90 561.48
00001177 00000043 844.58 165.87 367.18 540.90 948.89 371.12 1122.39 372.67 1045.81 505.02 956.59 559.01 1116.22 560.71
00001178 00000044 844.37 164.09 365.91 540.85 946.97 369.93 1121.10 371.18 1043.19 503.28 954.03 557.75 1114.20 559.27
00001179 00000045 838.32 154.04 371.28 545.83 942.92 367.95 1120.92 367.73 1038.97 496.05 955.64 546.32 1121.77 546.79
00001180 00000046 834.27 150.81 375.30 547.09 941.41 363.01 1120.12 361.98 1039.54 491.23 955.61 544.47 1120.56 544.06
00001181 00000047 830.47 145.60 377.16 549.60 937.18 361.01 1114.73 359.17 1035.67 488.39 955.16 543.74 1118.69 542.39
00001182 00000048 830.05 142.58 374.76 551.54 933.13 359.96 1112.40 357.05 1032.67 487.66 952.35 545.36 1117.28 543.02
00001183 00000049 835.76 147.49 367.79 548.62 929.72 362.87 1108.70 355.20 1033.19 494.68 947.27 552.15 1111.07 546.40
00001184 00000050 831.07 145.84 369.00 550.62 927.12 362.70 1106.14 355.10 1032.02 496.09 946.15 554.49 1107.65 548.73
00001185 00000051 829.56 146.54 367.74 549.76 925.96 364.05 1104.04 357.70 1029.70 498.17 943.29 555.40 1104.37 550.82
00001186 00000052 828.38 145.67 368.11 553.25 924.02 363.27 1100.49 356.72 1026.65 499.38 941.39 554.49 1101.76 549.44
00001187 00000053 826.38 144.14 367.94 553.37 922.14 362.20 1098.62 356.13 1024.94 499.12 939.99 554.16 1098.76 549.42
00001188 00000054 825.43 143.72 368.26 554.05 921.76 360.03 1098.11 354.52 1025.02 497.14 940.38 554.43 1096.94 550.02
00001189 00000055 824.24 140.92 368.02 555.50 920.24 358.00 1097.18 352.53 1024.14 494.99 940.14 554.78 1094.45 550.23
00001190 00000056 825.13 139.70 365.95 553.67 919.49 355.46 1097.50 350.48 1023.19 491.53 940.77 555.45 1093.20 551.31
00001191 00000057 825.46 137.08 364.35 555.19 918.46 354.00 1097.95 347.97 1021.96 486.72 940.61 556.71 1092.53 551.61
00001192 00000058 824.09 136.45 364.39 555.62 915.94 353.68 1095.69 346.53 1019.44 485.36 939.64 558.06 1090.63 551.83
00001193 00000059 822.46 135.92 363.43 556.87 913.81 353.43 1093.65 346.24 1016.84 483.84 938.82 558.91 1088.54 552.47
00001194 00000060 819.80 135.25 362.80 557.88 911.14 352.63 1092.43 345.31 1013.89 481.92 936.90 560.75 1085.74 554.09
00001195 00000061 815.56 134.77 364.18 559.83 909.84 351.25 1090.67 346.72 1011.56 483.10 934.80 562.58 1079.03 558.32
00001196 00000062 816.15 135.89 364.34 561.65 910.33 353.68 1088.86 350.02 1010.85 487.93 935.20 563.46 1077.95 560.05
00001197 00000063 816.46 134.40 364.34 565.06 908.91 356.65 1086.74 351.69 1009.45 490.91 935.57 565.27 1078.40 560.73
00001198 00000064 818.09 137.47 364.76 560.40 911.63 360.32 1089.59 356.63 1011.92 494.28 939.10 569.83 1080.19 566.51
00001199 00000065 821.85 140.07 364.12 554.54 916.72 363.35 1094.00 361.18 1016.93 499.32 942.22 570.90 1083.19 569.30
00001200 00000066 824.16 140.14 364.53 555.76 920.37 366.43 1096.90 363.86 1020.87 500.95 945.89 572.77 1086.50 570.75
00001201 00000067 826.19 142.93 366.60 555.96 922.89 368.92 1103.81 366.61 1024.19 502.62 947.74 578.08 1092.46 576.25
00001202 00000068 827.61 148.05 371.21 566.14 929.63 370.68 1104.94 371.05 1028.59 507.31 948.41 575.08 1096.84 575.21
00001203 00000069 829.59 153.41 372.07 569.20 930.42 383.33 1108.84 381.23 1029.68 518.89 947.22 584.55 1103.84 583.20
00001204 00000070 831.66 156.39 371.28 571.39 931.15 384.94 1112.54 381.26 1030.66 519.63 947.39 587.37 1108.06 584.89
00001205 00000071 836.14 155.15 369.73 570.42 933.20 384.64 1116.29 381.90 1033.50 519.92 951.04 586.45 1112.04 584.73
00001206 00000072 838.11 156.66 370.36 569.63 934.67 386.27 1117.91 383.22 1034.22 522.53 953.29 587.96 1113.43 585.90
00001207 00000073 834.82 152.81 368.42 569.48 929.68 388.90 1110.57 384.72 1027.29 522.60 955.74 592.26 1104.40 589.62
00001208 00000074 838.72 159.89 365.83 565.42 941.99 389.87 1114.41 390.95 1035.39 520.60 958.06 590.32 1107.94 591.27
00001209 00000075 837.65 156.38 364.93 561.14 933.28 392.49 1112.25 386.54 1029.10 525.70 960.95 592.44 1103.99 588.65
00001210 00000076 838.01 157.09 364.45 559.04 933.54 391.07 1111.75 385.51 1029.25 524.18 960.15 591.26 1103.51 587.89
00001211 00000077 838.40 158.93 368.68 559.63 934.79 386.78 1116.64 384.07 1033.28 522.54 955.49 588.25 1110.11 586.68
00001212 00000078 834.20 157.49 369.80 559.92 932.02 385.77 1113.05 383.40 1031.47 521.26 950.35 584.77 1107.68 583.50
00001213 00000079 829.15 156.94 371.74 557.21 928.67 385.06 1107.82 383.37 1028.08 521.31 943.76 580.52 1102.41 580.12
00001214 00000080 824.96 161.77 368.00 546.74 925.24 383.04 1099.08 381.70 1022.02 519.11 937.12 573.75 1092.25 574.26
00001215 00000081 823.40 162.01 366.59 544.94 925.18 381.11 1096.37 380.32 1021.41 516.26 935.61 569.25 1090.15 570.34
00001216 00000082 823.25 161.05 364.90 544.00 923.83 381.32 1094.58 379.66 1019.96 516.92 935.13 568.07 1089.79 568.46
00001217 00000083 819.28 159.41 365.61 545.29 917.98 381.07 1090.70 380.03 1013.29 515.97 929.56 566.70 1088.04 567.34
00001218 00000084 816.43 158.14 365.00 547.90 913.44 380.30 1089.51 379.30 1009.04 514.46 925.37 568.14 1086.72 568.64
00001219 00000085 812.16 158.76 365.28 548.79 908.89 381.84 1086.47 378.48 1005.64 514.16 923.48 571.85 1083.92 570.23
00001220 00000086 809.00 163.31 365.38 549.54 904.18 385.62 1083.29 381.41 999.05 517.49 917.77 575.73 1081.90 573.31
00001221 00000087 806.55 169.91 363.95 546.15 902.36 386.81 1080.35 381.85 996.11 518.79 916.93 576.86 1079.72 573.95
00001222 00000088 804.74 169.95 363.63 547.88 900.67 386.52 1078.11 381.27 993.94 519.80 916.34 578.31 1077.13 574.93
00001223 00000089 803.31 170.97 363.09 547.67 899.62 388.24 1075.96 383.10 992.27 520.98 914.21 578.92 1074.63 575.75
00001224 00000090 801.23 175.14 364.47 546.58 896.51 391.50 1072.03 385.90 989.39 523.49 912.22 581.76 1072.05 578.24
00001225 00000091 796.97 180.93 366.70 544.21 893.55 395.25 1068.31 390.84 986.80 528.25 910.08 585.82 1067.75 583.47
00001226 00000092 791.61 188.94 368.87 543.22 890.52 400.51 1065.57 396.40 985.93 535.31 909.08 592.57 1065.94 590.20
00001227 00000093 789.42 194.25 370.68 544.10 888.48 408.32 1062.83 404.82 983.41 541.53 907.56 596.57 1063.89 594.64
00001228 00000094 787.12 198.39 371.53 542.16 886.22 409.67 1058.25 406.19 980.18 542.63 904.41 595.11 1060.95 593.08
00001229 00000095 785.76 199.01 371.21 540.84 884.47 409.41 1057.14 406.23 978.58 542.77 903.27 595.32 1060.47 593.41
00001230 00000096 783.99 199.05 372.98 542.31 884.14 410.04 1056.03 407.43 978.17 542.19 903.02 596.87 1057.84 595.36
00001231 00000097 782.86 199.63 373.99 543.75 883.84 410.61 1055.75 408.32 978.28 543.47 902.58 597.98 1057.07 596.82
00001232 00000098 782.04 198.89 373.36 543.86 883.40 410.01 1055.67 408.09 977.78 543.73 902.62 598.94 1054.98 598.00
00001233 00000099 781.85 197.63 373.22 543.16 883.05 410.21 1056.24 408.14 977.76 544.00 903.20 599.69 1054.50 598.50
00001234 00000100 781.47 196.13 374.36 545.19 881.47 408.87 1057.46 406.34 978.01 542.87 904.13 603.03 1054.80 601.13
00001235 00000101 781.56 194.42 374.07 548.20 880.68 407.50 1059.53 404.74 979.03 542.51 906.24 606.99 1055.26 604.65
00001236 00000102 781.49 194.72 372.83 544.67 881.79 406.82 1058.53 406.09 977.75 542.23 908.17 606.57 1051.31 605.96
00001237 00000103 779.33 193.86 373.70 545.42 880.00 407.43 1057.63 406.80 976.16 541.09 906.70 607.45 1050.56 606.78
00001238 00000104 778.00 192.56 373.64 550.12 876.83 407.51 1055.63 406.38 972.64 541.36 903.31 607.54 1051.21 606.29
00001239 00000105 777.28 190.63 372.30 553.17 874.90 409.92 1053.63 409.53 968.32 541.99 897.96 606.85 1049.26 606.45
00001240 00000106 776.09 192.33 371.97 548.73 873.82 409.90 1051.60 412.93 963.91 541.75 892.44 604.59 1043.07 607.31
00001241 00000107 773.16 193.18 372.67 546.20 871.39 411.42 1049.70 414.91 960.71 543.28 889.35 604.29 1040.97 607.54
00001242 00000108 773.33 195.13 369.62 543.40 870.82 412.03 1045.43 418.01 956.14 542.45 887.03 602.90 1036.67 608.19
00001243 00000109 771.14 194.73 371.29 546.88 869.31 412.96 1043.72 419.02 955.71 542.97 886.40 605.08 1035.64 610.38
00001244 00000110 770.83 192.76 369.33 552.82 867.73 410.24 1041.49 417.02 952.57 541.92 884.48 606.37 1032.35 612.23
00001245 00000111 771.03 199.13 362.57 545.41 858.13 413.78 1036.54 411.75 948.23 544.64 881.54 610.66 1029.46 608.69
00001246 00000112 771.01 197.21 361.50 545.96 856.31 413.72 1035.26 409.20 947.55 544.97 882.08 614.05 1031.72 610.30
00001247 00000113 771.02 196.10 360.73 544.85 855.11 413.10 1034.98 408.37 946.72 544.49 883.02 614.91 1030.96 611.13
00001248 00000114 769.06 198.28 361.11 542.94 855.31 414.10 1033.04 411.15 946.40 543.94 882.60 613.61 1027.94 611.13
00001249 00000115 768.43 199.59 361.28 541.64 855.42 416.09 1032.14 412.86 947.30 544.93 882.01 612.84 1028.18 610.04
00001250 00000116 768.02 201.00 361.97 542.07 856.62 417.79 1031.51 415.24 947.83 546.40 881.89 612.83 1028.21 610.39
00001251 00000117 767.87 201.08 361.59 541.89 855.89 418.65 1031.49 415.70 947.18 547.35 880.57 613.38 1028.47 610.68
00001252 00000118 767.29 200.48 362.02 542.30 855.26 419.18 1031.08 415.96 947.26 548.11 880.07 614.99 1028.47 612.11
00001253 00000119 767.40 201.36 361.85 540.73 855.21 419.65 1030.75 417.05 947.20 548.80 879.51 614.49 1027.50 612.19
00001254 00000120 766.53 202.70 362.35 541.74 855.80 421.11 1029.71 419.62 946.87 549.86 878.67 614.77 1026.24 613.09
00001255 00000121 765.63 204.53 362.11 540.71 856.31 421.48 1028.43 420.85 946.49 551.58 877.70 613.84 1026.16 612.72
00001256 00000122 765.33 203.58 362.17 543.54 854.91 422.26 1028.27 421.23 944.88 552.09 875.77 615.40 1026.83 613.78
00001257 00000123 764.90 202.82 362.02 544.10 854.92 422.70 1027.34 422.13 943.81 552.51 874.77 613.95 1025.70 612.67
00001258 00000124 763.93 201.40 362.42 545.19 853.23 423.66 1025.52 422.23 941.98 553.27 873.31 613.39 1025.22 611.41
00001259 00000125 761.70 200.43 361.59 543.65 851.36 423.89 1021.21 421.86 939.27 551.97 872.48 609.75 1022.43 607.16
00001260 00000126 758.20 203.20 362.70 541.03 850.08 422.16 1018.42 421.14 937.40 549.49 869.30 604.59 1020.68 602.50
00001261 00000127 755.45 203.92 362.15 541.17 849.03 421.11 1015.48 421.15 933.90 547.83 866.03 602.32 1018.18 600.73
00001262 00000128 753.17 204.39 363.91 542.35 848.88 420.11 1014.32 421.77 932.52 545.73 863.79 601.61 1016.41 601.14
00001263 00000129 750.30 204.20 364.50 542.30 847.17 420.10 1014.29 421.33 931.69 545.45 861.64 601.39 1015.79 600.61
00001264 00000130 756.45 208.09 363.87 539.99 851.56 414.37 1021.82 412.14 939.54 548.38 865.23 599.47 1022.05 599.15
00001265 00000131 754.03 207.14 364.06 538.48 848.18 412.86 1020.08 410.38 936.33 547.44 862.22 597.75 1021.51 597.29
00001266 00000132 754.30 208.09 363.36 536.98 848.44 410.86 1019.98 409.81 936.07 547.49 861.81 596.43 1020.48 597.06
00001267 00000133 753.93 207.44 362.52 537.35 848.96 409.95 1019.18 408.98 936.56 547.53 860.91 594.69 1019.94 595.54
00001268 00000134 753.73 208.01 362.54 536.37 848.65 409.21 1019.02 409.34 935.68 546.42 859.63 593.26 1019.76 595.03
00001269 00000135 752.30 208.08 362.71 534.97 847.20 409.64 1017.84 409.73 934.61 545.90 858.55 592.85 1018.78 594.64
00001270 00000136 752.22 208.26 362.98 535.30 847.09 409.34 1018.24 409.42 934.73 545.78 858.52 593.26 1019.02 595.00
00001271 00000137 752.21 207.84 362.97 535.90 847.13 409.56 1018.09 409.17 935.00 545.69 858.84 593.68 1019.05 595.04
00001272 00000138 752.27 206.80 363.94 537.29 847.12 410.35 1018.45 409.27 935.18 545.92 859.55 594.97 1019.41 595.69
00001273 00000139 753.45 206.21 364.74 539.02 849.26 410.35 1020.96 408.80 938.04 547.17 861.98 595.93 1021.64 596.17
00001274 00000140 754.22 205.56 365.15 541.33 850.45 411.37 1021.05 409.41 938.60 547.15 863.58 597.46 1021.76 597.31
00001275 00000141 753.79 206.17 366.08 541.03 850.21 413.11 1021.21 410.96 938.80 547.25 863.75 598.85 1021.23 598.56
00001276 00000142 754.96 208.92 365.10 540.80 851.67 415.01 1020.59 412.66 939.48 549.06 864.21 599.85 1020.85 599.49
00001277 00000143 747.84 203.34 367.97 547.79 845.88 420.95 1011.99 421.45 929.61 548.29 860.15 603.28 1015.38 601.72
00001278 00000144 753.64 204.65 365.21 546.59 847.11 423.80 1013.38 423.19 931.47 551.72 863.74 606.28 1017.76 603.88
00001279 00000145 755.79 208.31 364.37 546.38 847.57 425.55 1015.71 425.63 932.71 554.87 864.34 610.08 1019.21 608.29
00001280 00000146 755.72 212.15 366.65 545.05 848.08 426.81 1019.22 428.62 934.49 556.65 864.60 612.38 1021.11 612.14
00001281 00000147 756.75 213.89 366.66 544.28 848.25 428.45 1020.17 430.03 935.01 557.27 864.87 613.26 1021.77 612.87
00001282 00000148 758.14 215.36 367.26 543.80 849.24 428.99 1021.67 429.95 937.15 559.36 866.63 614.56 1022.93 613.71
00001283 00000149 759.40 216.89 366.42 542.70 850.12 429.48 1022.93 430.40 938.97 560.63 867.34 615.91 1024.56 615.20
00001284 00000150 761.21 218.40 365.49 541.55 851.76 429.61 1026.14 431.21 941.72 560.76 869.10 617.64 1025.23 617.76
00001285 00000151 759.66 216.88 371.56 543.39 857.14 423.95 1030.76 429.50 946.13 556.37 871.36 615.88 1024.94 620.99
00001286 00000152 762.11 218.37 364.97 543.17 852.85 430.86 1028.00 432.72 942.88 563.06 868.86 619.25 1025.51 619.74
00001287 00000153 761.47 218.52 365.37 544.59 852.05 431.22 1028.17 433.03 942.77 564.62 868.88 620.49 1026.18 620.91
00001288 00000154 760.91 218.37 364.47 546.65 851.78 433.33 1028.42 435.13 942.04 567.81 867.49 621.97 1025.78 622.39
00001289 00000155 760.22 218.44 364.01 546.87 850.77 434.17 1027.11 435.87 940.68 568.21 867.16 622.81 1025.56 623.21
00001290 00000156 759.97 219.10 363.37 546.40 850.53 434.19 1026.89 436.47 940.38 568.58 866.46 623.21 1024.82 624.12
00001291 00000157 759.30 219.03 363.15 546.44 850.05 434.52 1025.40 436.68 939.69 568.46 866.57 623.45 1024.17 624.26
00001292 00000158 757.67 220.88 363.25 544.58 849.44 435.34 1024.19 437.77 938.34 569.50 865.36 623.13 1023.11 624.10
00001293 00000159 765.19 223.32 361.94 542.68 856.12 434.29 1026.45 431.93 950.84 571.69 870.34 622.14 1024.66 621.14
00001294 00000160 763.59 223.03 362.10 541.79 855.06 434.00 1025.56 431.81 949.36 571.12 869.35 622.32 1022.81 621.55
00001295 00000161 761.69 222.92 362.11 542.61 853.37 433.30 1024.26 431.17 947.79 570.84 867.26 621.20 1021.80 620.36
00001296 00000162 760.28 221.50 360.22 541.61 850.09 432.22 1021.82 429.27 944.31 570.06 865.41 622.19 1018.76 620.44
00001297 00000163 758.92 220.85 360.49 543.07 848.26 432.11 1020.10 428.46 942.69 569.59 864.37 622.08 1018.06 619.60
00001298 00000164 757.26 221.56 360.07 541.19 846.11 431.19 1018.00 428.05 939.94 569.40 861.92 621.39 1014.77 619.40
00001299 00000165 756.98 222.34 360.37 540.14 845.38 430.39 1018.33 427.69 938.91 569.67 861.49 622.00 1014.26 620.38
00001300 00000166 755.01 222.10 361.91 540.35 843.40 429.49 1018.55 426.58 937.90 568.99 859.37 621.40 1014.27 619.62
