Video ID: 	AadHnRy2EdQ
H: 	1080
W: 	1920
FPS: 	25.0

FRAME INDEX X0 Y0 W H [Landmarks (5 Points)]

00009210 00000000 245.46 188.82 412.17 541.93 369.52 464.12 525.33 368.82 505.30 522.40 470.05 627.13 610.00 546.27
00009211 00000001 256.99 181.99 409.58 540.95 379.42 451.63 534.57 359.04 516.39 510.09 477.89 613.82 619.79 534.76
00009212 00000002 274.33 171.45 405.75 544.80 389.95 441.65 543.05 347.45 523.70 494.65 490.50 608.87 625.29 529.37
00009213 00000003 289.31 165.08 404.32 543.25 400.81 432.07 554.77 336.72 536.57 489.62 495.65 601.41 633.26 521.40
00009214 DELETE   303.04 153.89 403.54 554.31 416.44 416.26 571.29 329.12 551.71 474.12 521.71 589.26 660.63 517.11
00009215 00000005 320.55 142.95 398.24 555.31 433.55 404.83 590.82 322.77 566.61 469.23 529.76 581.13 669.74 511.45
00009216 00000006 344.24 136.80 393.20 562.42 452.97 396.57 609.69 312.30 584.76 459.23 543.32 578.53 683.24 507.37
00009217 00000007 358.75 131.22 386.27 560.45 464.91 393.02 619.90 308.89 595.93 453.84 551.33 573.16 688.23 501.94
00009218 00000008 363.23 124.98 392.84 565.27 472.88 388.72 629.99 304.96 608.41 454.87 552.10 566.33 694.41 495.86
00009219 00000009 368.34 122.07 395.82 565.27 478.81 384.95 636.69 300.97 616.94 449.94 555.53 561.38 699.64 491.41
00009220 00000010 386.10 117.62 380.47 554.27 493.42 369.94 645.05 303.19 619.51 440.63 574.84 546.31 719.11 489.88
00009221 00000011 388.87 115.97 386.96 551.93 498.98 365.10 654.03 300.06 630.36 435.37 581.56 543.58 728.25 488.50
00009222 00000012 392.48 112.42 390.73 555.14 502.07 361.34 660.05 294.98 635.26 429.84 585.82 543.91 734.61 487.52
00009223 00000013 397.60 111.13 389.11 556.48 505.42 356.94 665.36 293.01 637.17 429.38 586.66 541.61 737.50 487.16
00009224 00000014 401.81 107.05 387.80 563.19 507.61 353.96 666.76 291.95 638.77 429.08 587.69 540.32 739.38 487.48
00009225 00000015 402.50 103.26 390.18 567.08 511.57 352.00 671.22 291.67 642.19 427.37 589.67 538.38 740.83 487.10
00009226 00000016 404.70 101.69 390.08 567.72 515.48 348.12 674.43 290.75 645.34 423.63 590.83 534.02 741.17 484.95
00009227 00000017 407.67 95.38 390.11 575.53 518.73 345.62 678.27 288.47 648.67 420.63 594.50 533.70 743.68 484.75
00009228 00000018 416.23 94.45 383.58 576.41 522.50 342.17 681.13 284.84 651.85 415.23 596.07 532.71 743.70 483.87
00009229 00000019 417.05 92.44 386.22 577.74 526.22 336.86 686.42 281.48 656.05 411.76 597.37 529.28 746.05 481.76
00009230 00000020 421.13 90.13 383.87 577.83 529.50 332.29 690.63 278.51 659.91 409.57 598.32 526.13 746.68 479.96
00009231 00000021 424.41 89.88 384.47 576.50 532.10 329.23 694.54 274.84 663.16 406.53 598.91 524.39 748.27 477.85
00009232 00000022 428.34 89.72 383.18 575.44 534.18 327.80 696.98 271.92 665.52 402.30 599.27 522.31 749.87 474.70
00009233 00000023 432.29 87.41 381.45 575.32 536.68 328.06 699.77 271.24 667.56 400.13 599.83 520.46 753.04 472.09
00009234 00000024 436.01 87.12 380.28 573.14 540.61 327.87 703.18 272.65 671.05 400.80 601.10 518.39 754.80 471.50
00009235 00000025 436.59 86.77 381.30 573.35 543.19 328.83 705.30 274.08 673.82 401.42 603.43 519.21 755.69 472.65
00009236 00000026 439.73 89.52 379.13 570.56 546.57 330.35 707.85 277.52 675.49 404.92 605.98 520.30 755.31 475.61
00009237 00000027 441.55 90.76 379.79 570.27 549.23 331.17 710.37 279.35 677.50 406.51 608.75 521.26 756.98 477.49
00009238 00000028 443.56 90.51 380.27 570.54 551.37 330.90 712.42 279.31 679.76 405.81 611.19 521.36 758.24 478.03
00009239 00000029 445.55 90.21 380.09 570.92 552.13 330.46 714.01 278.20 681.36 403.27 612.10 521.14 760.72 477.13
00009240 00000030 443.59 89.24 382.01 574.11 551.41 330.50 713.64 279.84 680.11 403.62 611.11 522.14 758.94 479.21
00009241 00000031 443.94 92.60 380.48 575.94 555.93 340.04 715.92 296.81 679.64 412.23 607.49 523.42 756.17 487.15
00009242 00000032 449.19 104.64 372.85 564.09 560.84 351.49 719.32 313.53 680.78 422.35 609.25 529.61 756.47 498.12
00009243 00000033 453.65 118.54 369.38 552.55 566.05 366.54 721.71 324.74 683.99 437.86 613.36 541.53 754.70 507.30
00009244 DELETE   466.84 131.73 357.88 552.06 576.50 380.10 735.27 338.27 695.44 454.63 615.40 553.42 760.46 520.12
00009245 DELETE   482.63 144.83 353.88 550.16 589.47 385.27 755.79 352.78 714.56 466.46 622.58 561.55 776.73 535.51
00009246 DELETE   481.62 161.12 360.41 551.42 608.73 391.22 767.58 363.21 730.91 478.91 629.07 565.47 782.01 544.24
00009247 00000037 495.96 163.43 351.14 553.40 615.93 384.84 786.16 361.17 740.32 496.79 638.86 573.49 791.28 555.61
00009248 DELETE   509.43 177.79 345.40 540.92 626.76 386.98 797.87 366.89 749.68 513.31 649.81 583.92 794.96 569.28
00009249 00000039 511.89 185.00 346.88 537.74 635.71 387.82 804.75 369.12 761.81 518.96 658.80 588.75 797.44 575.72
00009250 00000040 507.68 191.89 359.53 535.21 641.84 399.41 811.54 374.93 770.76 531.29 667.93 594.74 808.63 576.73
00009251 00000041 513.19 199.91 357.28 532.52 647.55 408.77 817.21 383.42 776.93 539.81 665.42 598.83 810.16 581.33
00009252 00000042 520.72 208.55 355.04 525.96 651.67 415.71 822.66 388.91 781.24 545.12 672.03 603.64 816.59 584.63
00009253 00000043 518.07 211.18 364.03 531.68 654.07 423.64 818.59 391.67 785.95 548.18 673.75 609.27 816.76 585.71
00009254 00000044 516.42 211.67 368.79 530.35 655.33 423.95 820.89 391.16 787.70 548.09 675.92 609.38 819.52 584.92
00009255 00000045 527.93 211.56 357.76 522.60 657.69 418.81 826.47 390.22 786.08 545.51 678.62 603.39 825.06 582.98
00009256 00000046 526.69 202.82 360.34 528.10 656.19 414.18 826.81 385.97 784.75 542.30 676.61 599.94 826.36 580.01
00009257 00000047 523.73 195.88 362.12 532.12 655.10 409.77 824.84 382.30 783.04 537.33 675.44 595.99 824.45 576.67
00009258 00000048 518.68 190.34 364.54 535.16 651.89 401.26 821.97 375.71 781.36 532.51 671.64 592.41 819.07 574.81
00009259 00000049 515.23 183.29 364.84 537.13 649.24 393.29 818.03 369.04 779.77 524.83 669.97 587.14 814.83 570.50
00009260 00000050 511.28 177.12 366.69 540.30 645.34 387.56 814.72 361.19 779.38 512.71 667.24 583.15 812.25 564.40
00009261 00000051 519.07 165.53 359.63 544.31 638.25 377.54 807.93 353.85 766.97 497.59 666.07 573.34 812.06 555.36
00009262 00000052 513.50 157.46 364.76 549.71 636.37 366.67 806.02 346.69 761.70 488.38 664.96 566.02 810.30 549.76
00009263 00000053 510.32 150.45 368.08 554.60 633.82 358.95 804.24 340.55 757.63 482.21 664.12 561.98 808.30 546.37
00009264 00000054 507.66 143.87 365.23 555.40 632.29 354.56 800.29 337.55 755.80 474.76 662.04 558.13 801.88 543.69
00009265 00000055 505.04 142.48 364.12 553.06 630.41 350.07 797.22 333.20 754.91 466.65 661.22 553.55 799.09 539.27
00009266 00000056 501.79 141.96 367.47 553.50 628.00 345.76 794.19 328.94 750.68 459.33 658.96 549.63 797.30 535.04
00009267 00000057 498.50 137.13 368.59 557.11 625.55 340.34 791.19 325.17 746.80 452.39 657.49 545.82 794.51 532.31
00009268 00000058 497.50 130.42 366.40 559.92 623.35 335.58 790.25 320.61 746.06 447.63 657.47 543.08 793.08 529.77
00009269 00000059 495.74 118.05 362.18 575.62 615.55 336.07 786.86 319.88 744.38 447.71 654.32 545.46 796.09 531.98
00009270 00000060 495.13 117.73 361.10 572.99 614.15 337.18 783.93 319.34 742.39 443.76 657.68 546.84 794.99 531.91
00009271 00000061 494.30 116.19 362.57 567.55 610.93 335.31 786.18 318.78 739.03 442.76 654.58 542.07 797.58 527.89
00009272 00000062 493.26 111.57 364.25 570.46 608.61 330.92 785.82 316.57 734.45 436.89 647.66 537.48 795.71 525.21
00009273 00000063 494.55 108.12 361.89 571.75 607.96 325.89 783.86 313.79 732.38 428.44 644.85 534.08 791.94 523.80
00009274 00000064 493.79 108.15 360.89 568.28 609.16 321.76 780.66 312.59 728.15 420.94 646.31 529.93 785.89 522.07
00009275 00000065 493.84 104.84 361.82 565.98 608.00 317.60 781.69 309.77 724.83 416.67 644.29 524.19 786.98 517.37
00009276 00000066 491.64 103.98 364.60 563.02 606.68 313.01 781.12 307.63 722.17 413.39 641.20 519.50 784.16 514.66
00009277 00000067 490.54 102.01 366.22 565.54 606.41 310.50 780.78 307.01 721.53 412.95 639.00 520.05 781.33 516.93
00009278 00000068 490.29 101.30 367.63 569.90 606.56 314.68 781.33 311.60 720.28 414.38 638.65 523.48 779.70 520.72
00009279 00000069 491.08 105.52 369.61 569.99 607.56 320.25 783.57 317.28 721.69 420.11 637.11 528.80 778.90 526.52
00009280 00000070 492.00 109.05 370.29 570.72 609.04 324.52 787.96 322.08 725.90 430.39 634.26 531.52 782.65 529.79
00009281 00000071 493.75 111.53 372.88 571.39 611.19 329.01 794.12 327.87 727.99 435.70 635.36 534.34 786.59 533.72
00009282 00000072 498.59 112.08 368.91 571.96 612.83 330.86 798.10 328.71 730.53 438.48 636.04 535.46 791.24 533.99
00009283 00000073 500.68 112.28 369.12 569.68 614.21 329.61 800.49 327.03 732.77 437.32 638.03 533.34 796.48 531.40
00009284 00000074 501.54 109.17 369.78 569.36 616.74 329.38 801.18 326.25 735.33 433.29 641.91 531.93 797.18 529.58
00009285 00000075 501.07 108.89 369.89 566.44 617.94 328.61 802.66 324.47 739.17 430.78 645.74 530.71 801.06 527.27
00009286 00000076 502.26 108.16 368.37 566.16 619.52 327.23 803.87 323.07 740.71 429.32 647.22 529.69 801.63 526.15
00009287 00000077 504.25 106.83 366.47 564.21 621.61 324.86 804.04 320.09 742.65 425.33 649.76 528.48 801.37 524.74
00009288 00000078 508.12 104.35 362.18 565.93 623.19 320.29 803.67 316.22 742.63 419.60 650.72 526.57 798.64 523.58
00009289 00000079 505.80 104.06 363.61 563.43 623.07 314.93 801.98 311.29 742.88 416.10 651.46 523.05 795.79 520.33
00009290 00000080 506.80 103.01 361.65 560.85 622.34 310.72 800.51 307.20 742.21 410.71 650.57 518.47 795.85 515.91
00009291 00000081 505.98 101.98 362.19 556.36 622.59 306.95 801.27 303.91 743.72 405.64 649.80 514.41 795.20 512.39
00009292 00000082 509.83 100.80 360.21 551.96 624.52 305.87 798.97 301.64 741.13 402.96 651.11 509.25 794.33 506.05
00009293 00000083 509.84 98.92 360.60 551.08 625.39 303.88 800.88 300.60 741.57 398.38 649.19 504.19 796.78 501.61
00009294 00000084 508.42 100.20 361.97 544.67 625.52 302.13 802.47 299.28 743.36 393.51 650.60 502.23 798.70 499.93
00009295 00000085 507.80 100.89 361.29 542.33 626.20 302.59 800.92 300.05 744.38 392.14 652.18 499.82 799.41 497.76
00009296 00000086 509.33 100.61 359.46 543.88 630.44 313.63 800.97 313.11 746.37 391.40 651.38 497.82 801.63 498.06
00009297 00000087 510.93 102.22 359.52 544.51 633.18 315.61 802.06 315.48 747.84 392.67 650.76 498.19 801.11 499.13
00009298 00000088 508.00 100.37 360.93 546.43 629.54 310.06 800.79 310.09 745.43 391.63 651.22 499.51 799.26 500.03
00009299 00000089 509.20 98.97 362.50 545.55 629.64 302.76 803.47 303.24 747.09 389.74 652.98 498.23 800.55 498.66
00009300 00000090 509.23 98.68 362.09 540.37 629.12 300.15 803.12 298.39 747.68 389.39 656.31 497.73 800.43 496.12
00009301 00000091 511.37 99.37 361.79 540.79 629.55 300.32 803.74 297.92 747.99 389.66 656.86 498.13 802.07 495.80
00009302 00000092 511.64 99.09 362.63 545.70 629.59 301.69 805.02 298.89 748.81 392.43 656.86 500.74 803.90 497.89
00009303 00000093 510.59 99.13 364.42 555.27 628.52 309.11 802.91 304.26 748.00 400.35 655.16 505.82 804.45 501.39
00009304 00000094 507.48 103.56 365.01 558.81 629.88 312.83 803.54 307.17 750.53 407.73 658.43 514.57 801.12 509.82
00009305 00000095 502.71 106.69 369.37 563.49 628.98 320.11 805.35 315.69 750.03 419.08 657.40 523.14 801.08 519.58
00009306 00000096 501.65 106.16 370.49 564.27 626.38 322.61 806.01 318.29 749.07 421.05 656.57 526.02 803.07 522.53
00009307 00000097 500.78 103.84 370.71 563.53 625.49 318.76 804.36 312.82 748.81 420.56 656.18 522.52 802.42 517.49
00009308 00000098 501.36 103.23 368.84 561.60 624.80 314.89 802.05 308.31 748.33 414.61 654.51 517.85 801.48 512.33
00009309 00000099 503.75 98.97 364.23 569.26 624.08 312.76 801.45 306.83 748.22 409.86 654.94 520.55 800.60 515.87
00009310 00000100 504.91 103.10 361.32 569.85 624.48 313.93 800.69 309.63 748.20 411.54 650.49 521.76 797.70 518.76
00009311 00000101 502.92 106.27 361.95 566.72 621.56 317.46 799.15 313.79 744.69 416.50 646.44 520.85 797.56 518.20
00009312 00000102 500.84 107.29 361.97 564.11 618.50 318.57 796.43 313.82 741.64 416.65 645.69 520.49 797.28 516.69
00009313 00000103 497.38 105.48 361.12 563.39 615.07 315.59 792.44 310.95 736.75 414.30 641.81 516.77 794.35 513.06
00009314 00000104 492.46 105.42 361.60 561.22 610.82 313.04 787.32 309.97 732.57 411.20 638.48 514.02 790.93 511.64
00009315 00000105 488.48 106.48 362.23 556.44 608.01 311.11 780.43 308.21 728.06 408.38 634.27 509.43 786.25 507.19
00009316 00000106 486.27 103.24 362.79 555.18 604.46 310.91 776.27 308.39 721.54 404.63 629.48 505.82 782.65 503.86
00009317 00000107 483.68 107.86 366.44 550.01 603.31 314.10 772.70 312.92 717.40 402.97 615.96 497.73 775.53 498.20
00009318 00000108 477.98 105.85 370.73 545.43 595.70 310.53 767.17 308.37 709.93 401.24 608.61 492.87 771.16 492.56
00009319 00000109 472.53 104.84 370.09 542.78 589.14 305.76 761.37 304.64 700.85 393.82 599.65 489.90 761.61 490.35
00009320 00000110 470.91 102.72 370.29 544.21 586.01 299.85 758.18 301.05 695.81 390.24 593.55 486.90 754.73 489.28
00009321 00000111 466.02 98.36 373.66 547.29 582.82 295.93 757.27 299.13 691.64 385.10 589.33 485.07 750.84 488.80
00009322 00000112 464.45 100.86 373.48 545.50 581.87 293.34 755.37 299.47 689.00 380.72 586.11 483.34 746.96 489.59
00009323 00000113 462.84 100.18 374.81 548.85 581.11 292.14 754.58 301.02 686.40 378.59 583.09 482.86 744.63 491.35
00009324 00000114 462.31 98.30 374.31 545.36 580.19 292.70 753.66 300.67 685.48 378.87 583.51 481.90 743.92 489.49
00009325 00000115 461.85 97.40 376.13 542.91 579.65 293.13 754.08 299.88 686.10 380.14 583.95 480.19 746.79 486.53
00009326 00000116 462.85 96.95 376.16 544.30 580.72 292.85 754.90 298.55 689.02 379.92 586.68 479.93 749.46 485.30
00009327 00000117 463.54 93.98 376.16 546.24 581.28 288.87 756.08 294.99 690.25 376.11 587.91 476.80 751.35 482.19
00009328 00000118 465.66 91.86 375.88 546.69 582.32 283.04 757.57 289.58 690.11 370.42 589.71 473.71 751.52 479.30
00009329 00000119 467.49 85.64 374.61 552.35 584.15 279.41 758.93 286.59 692.22 367.53 591.43 471.30 753.21 477.17
00009330 00000120 467.90 83.00 374.58 557.60 585.78 278.19 760.34 285.62 694.61 366.48 592.97 471.79 754.29 477.81
00009331 00000121 467.40 85.22 376.03 561.53 585.81 280.06 759.55 286.54 694.43 369.00 593.28 474.76 754.81 480.25
00009332 00000122 466.67 92.28 376.51 563.13 585.25 284.15 758.77 289.12 695.39 375.96 591.45 480.13 755.62 485.05
00009333 00000123 467.26 96.86 375.47 562.14 586.12 289.30 758.66 294.73 697.63 384.14 589.77 485.62 753.06 491.42
00009334 00000124 464.71 99.19 376.63 563.66 586.63 292.74 759.55 298.67 699.95 392.15 590.46 491.59 752.82 498.07
00009335 00000125 462.91 101.67 378.38 559.88 585.36 301.13 759.05 302.86 700.96 402.06 593.92 496.14 757.05 498.96
00009336 00000126 463.81 100.47 377.13 559.54 585.15 307.65 760.22 305.40 702.94 406.86 597.43 500.67 759.77 500.08
00009337 00000127 463.65 102.14 377.16 559.78 584.38 310.52 759.58 307.50 702.54 411.09 598.49 503.66 760.44 502.48
00009338 00000128 464.38 102.57 376.19 561.74 585.83 314.37 759.72 311.09 704.09 413.35 600.12 505.44 761.02 504.12
00009339 00000129 461.95 104.48 378.43 562.22 584.93 316.43 757.38 314.01 703.41 415.04 599.69 506.57 760.02 505.82
00009340 00000130 461.13 105.18 378.32 561.30 584.23 316.51 756.08 313.83 702.70 415.03 599.30 506.65 759.03 505.68
00009341 00000131 461.89 103.02 376.24 563.07 583.99 316.01 755.97 313.05 702.58 413.72 599.43 506.85 758.69 505.57
00009342 00000132 461.56 101.71 375.11 566.71 583.83 314.27 755.56 311.70 702.54 412.62 599.10 508.43 756.43 507.47
00009343 00000133 460.69 99.39 373.85 569.70 583.20 313.66 755.45 311.11 702.35 410.99 597.53 508.65 755.35 507.64
00009344 00000134 459.51 100.43 372.75 565.08 579.93 313.99 753.69 310.56 699.80 411.03 596.21 507.85 755.40 506.14
00009345 00000135 456.54 99.53 373.85 566.37 578.22 314.18 750.79 311.74 697.36 410.56 594.13 507.76 752.03 506.75
00009346 00000136 455.04 98.94 374.24 570.64 577.74 314.05 750.13 312.49 696.61 410.73 592.64 509.79 749.82 509.60
00009347 00000137 453.74 99.10 373.85 578.35 577.71 314.92 748.14 314.82 695.19 410.17 590.51 512.11 747.36 513.13
00009348 00000138 453.55 102.66 373.33 581.93 577.96 318.52 748.61 318.68 693.89 413.33 587.67 514.85 748.39 515.94
00009349 00000139 454.43 106.18 371.02 579.57 577.94 323.63 749.13 322.28 693.84 419.21 587.97 518.24 749.01 518.25
00009350 00000140 453.89 109.60 368.65 572.32 578.73 331.02 748.29 328.62 695.80 424.75 590.54 522.01 748.31 521.28
00009351 00000141 453.43 121.31 363.30 557.63 580.11 345.92 742.04 340.88 693.78 431.30 594.69 527.42 744.59 523.94
00009352 00000142 452.98 122.56 363.09 556.66 579.34 345.21 743.57 337.42 695.15 433.18 598.57 532.78 746.36 527.06
00009353 00000143 450.75 119.71 364.72 561.49 576.01 342.05 742.88 331.10 695.98 438.15 601.26 537.45 746.74 528.98
00009354 00000144 447.76 115.36 367.39 565.67 572.75 338.75 742.76 328.81 692.17 440.02 600.09 539.07 744.16 531.29
00009355 00000145 443.39 109.09 369.24 573.45 566.58 335.74 738.43 325.43 685.11 438.32 596.09 539.80 738.24 531.30
00009356 00000146 439.97 104.43 367.71 583.00 558.55 335.70 734.02 323.75 676.59 440.51 592.39 544.09 734.20 533.65
00009357 00000147 435.77 119.15 370.03 578.49 553.94 337.58 730.63 324.11 673.82 441.30 588.79 550.23 724.48 537.66
00009358 00000148 431.94 123.50 370.71 579.38 550.26 344.00 724.52 328.74 667.24 451.51 584.83 555.87 719.38 541.89
00009359 00000149 425.17 132.15 374.94 577.23 546.43 351.53 719.33 336.44 664.65 464.87 580.06 560.60 717.93 546.85
00009360 00000150 423.72 145.56 372.73 567.32 542.16 357.88 718.31 343.92 661.87 474.83 574.98 567.84 718.12 555.33
00009361 00000151 425.87 152.59 365.64 566.65 541.10 370.95 715.60 356.13 660.11 482.99 572.04 574.98 720.16 562.26
00009362 00000152 427.64 159.05 359.91 569.20 542.67 384.14 717.23 372.20 660.50 502.93 571.70 586.52 720.16 576.46
00009363 00000153 426.70 164.62 360.53 573.58 542.61 393.52 715.36 379.00 660.55 517.51 571.97 595.62 721.30 583.67
00009364 00000154 426.50 168.50 360.85 569.95 539.76 398.16 716.10 381.69 660.92 523.09 575.44 600.53 725.69 586.66
00009365 00000155 427.39 170.96 358.40 568.77 540.74 401.88 716.65 384.01 663.32 526.73 576.23 602.28 727.43 587.29
00009366 00000156 429.13 169.59 357.39 570.93 539.76 401.98 714.68 384.99 661.27 526.03 577.49 602.97 726.04 588.48
00009367 00000157 430.39 170.35 354.27 571.56 540.66 398.80 713.71 382.34 660.24 522.19 575.63 601.64 724.35 587.82
00009368 00000158 431.06 168.16 354.92 570.89 542.19 396.38 714.46 380.64 660.56 521.11 574.46 597.42 723.97 584.46
00009369 00000159 433.09 167.90 355.38 568.52 544.14 394.40 716.29 379.04 661.46 519.92 573.63 593.12 725.05 580.86
00009370 00000160 433.06 167.69 355.94 566.00 545.35 391.38 716.83 376.32 663.01 514.46 574.12 588.96 725.67 576.97
00009371 00000161 431.89 163.35 358.77 567.43 545.68 388.51 717.73 372.25 665.30 507.53 572.93 584.41 727.11 571.64
00009372 00000162 430.19 163.46 362.86 564.04 545.37 384.47 717.12 367.80 664.94 501.21 572.85 580.59 726.60 567.52
00009373 00000163 432.44 162.47 361.31 562.38 545.59 382.15 716.66 365.19 664.40 495.91 573.76 577.87 726.89 564.33
00009374 00000164 433.12 161.84 363.75 561.37 545.82 377.91 715.86 360.81 663.56 490.26 573.96 573.83 727.25 560.06
00009375 00000165 434.25 157.70 363.03 564.32 546.24 374.06 715.72 358.28 662.95 486.95 572.10 568.47 727.57 555.60
00009376 00000166 435.24 156.82 361.61 560.49 546.71 369.65 716.71 354.41 663.20 481.86 572.92 565.26 726.67 552.71
00009377 00000167 431.56 153.42 367.01 560.21 547.25 365.86 718.11 350.66 664.77 478.24 574.67 563.66 725.68 550.75
00009378 00000168 429.93 151.75 369.06 559.75 548.08 360.91 720.20 346.62 666.46 475.95 574.99 561.11 725.18 548.56
00009379 00000169 432.00 150.60 368.02 559.08 551.42 359.25 720.76 344.31 669.50 472.96 580.86 562.62 724.13 549.66
00009380 00000170 431.77 150.68 370.93 558.68 554.27 357.02 723.60 342.99 673.19 471.73 584.26 562.40 725.65 550.00
