Video ID: 	zebbc-1IwRw
H: 	2160
W: 	3840
FPS: 	23.976023976023978

FRAME INDEX X0 Y0 W H [Landmarks (5 Points)]

00003461 00000000 2351.87 176.27 499.42 751.63 2436.33 458.68 2668.31 448.18 2520.23 563.19 2468.90 722.00 2646.02 716.03
00003462 DELETE   2362.33 135.03 505.53 791.69 2460.02 452.81 2692.21 449.54 2554.55 568.73 2481.19 728.20 2652.86 729.97
00003463 DELETE   2379.40 139.13 518.71 781.62 2485.20 461.45 2721.33 470.89 2576.07 591.28 2504.15 731.74 2669.03 742.97
00003464 00000003 2403.60 108.34 509.98 812.15 2508.24 461.48 2748.09 478.95 2611.90 594.09 2515.78 734.58 2684.93 752.65
00003465 00000004 2419.12 103.53 504.60 825.60 2526.04 462.00 2766.11 480.26 2627.99 594.42 2528.80 736.05 2699.55 755.34
00003466 00000005 2422.61 110.37 499.66 817.57 2530.81 458.42 2771.69 476.26 2637.53 587.54 2532.21 726.99 2709.66 745.87
00003467 00000006 2414.40 106.76 502.54 809.82 2526.79 450.76 2769.49 470.42 2632.22 581.59 2523.05 714.20 2713.09 733.88
00003468 00000007 2401.26 94.95 509.15 822.18 2511.72 443.17 2755.87 461.64 2612.24 571.90 2508.36 708.29 2712.79 728.46
00003469 00000008 2389.55 118.75 514.58 778.37 2500.40 433.51 2750.08 449.88 2598.87 557.97 2501.09 701.76 2708.64 718.33
00003470 00000009 2384.52 120.62 508.53 774.27 2492.01 431.55 2735.61 444.08 2584.29 556.57 2486.29 699.36 2704.38 713.15
00003471 00000010 2379.00 127.40 506.24 767.91 2483.58 430.90 2726.95 441.32 2575.21 556.72 2475.65 698.87 2699.97 710.91
00003472 00000011 2378.82 139.33 505.23 754.06 2481.82 435.06 2718.26 444.14 2571.05 552.88 2484.45 689.28 2686.60 700.56
00003473 00000012 2378.00 128.43 497.40 769.48 2475.36 431.06 2717.31 439.18 2567.97 550.91 2476.19 699.17 2688.68 709.49
00003474 00000013 2379.82 145.36 498.09 750.89 2478.75 434.39 2720.14 443.46 2567.07 546.54 2474.16 695.96 2692.80 707.29
00003475 00000014 2380.14 150.19 488.89 737.27 2479.36 431.92 2713.85 440.70 2569.77 536.42 2483.21 678.97 2690.32 690.14
00003476 00000015 2371.71 130.74 500.20 749.41 2471.64 416.48 2717.12 424.57 2564.72 526.92 2475.21 675.85 2684.03 686.29
00003477 00000016 2372.85 124.62 497.59 743.42 2476.06 408.26 2709.72 416.90 2571.15 514.79 2482.94 657.87 2674.01 670.11
00003478 00000017 2369.52 128.08 494.49 734.38 2470.96 403.33 2703.98 409.59 2561.14 505.23 2474.29 656.04 2663.88 664.60
00003479 00000018 2365.17 129.40 496.81 728.72 2466.65 397.04 2697.92 401.02 2555.98 493.70 2472.87 649.30 2658.38 656.09
00003480 00000019 2364.11 120.81 493.81 730.76 2463.50 391.93 2692.62 395.13 2550.86 486.04 2470.94 642.95 2653.19 649.39
00003481 00000020 2362.74 125.48 495.87 724.69 2463.13 388.17 2691.33 392.36 2550.86 479.18 2469.38 638.17 2649.39 645.43
00003482 00000021 2362.60 127.10 495.01 721.33 2463.68 385.19 2692.86 390.69 2550.95 474.18 2469.22 635.10 2651.16 643.32
00003483 00000022 2365.72 128.30 493.63 720.48 2466.32 382.42 2695.58 385.65 2553.61 468.48 2474.11 633.91 2655.76 640.11
00003484 00000023 2367.98 124.64 493.92 717.67 2467.44 373.85 2703.43 374.68 2558.05 461.87 2478.83 634.09 2664.91 637.37
00003485 00000024 2372.33 131.09 497.95 712.05 2474.10 381.77 2703.36 382.05 2566.44 464.28 2492.86 626.98 2661.66 630.96
00003486 00000025 2376.24 141.66 497.88 701.18 2480.09 389.16 2705.75 386.14 2573.07 472.68 2499.50 631.12 2666.80 631.91
00003487 00000026 2385.85 169.86 491.92 676.50 2485.66 404.44 2706.84 399.73 2577.96 482.78 2505.51 636.23 2671.75 635.66
00003488 00000027 2389.31 168.24 492.74 674.25 2487.91 402.66 2712.89 396.27 2583.13 482.88 2512.98 636.12 2681.36 634.00
00003489 00000028 2392.69 155.94 492.53 683.19 2490.44 396.22 2720.11 391.24 2586.04 479.17 2518.28 637.97 2686.59 636.93
00003490 00000029 2397.20 147.99 492.42 689.85 2493.21 395.00 2724.87 388.68 2588.22 482.41 2519.86 643.01 2695.38 641.00
00003491 00000030 2401.70 144.26 494.92 690.61 2495.11 394.69 2727.44 388.75 2588.19 485.55 2519.53 641.88 2700.25 640.51
00003492 00000031 2405.49 141.46 497.80 689.51 2497.11 391.41 2730.61 387.51 2588.20 487.18 2517.68 640.10 2698.28 640.81
00003493 00000032 2408.63 142.16 499.84 690.71 2499.00 392.24 2731.43 388.58 2588.49 489.95 2518.49 641.15 2697.85 642.33
00003494 00000033 2411.13 144.28 497.06 698.71 2500.98 394.54 2732.77 389.63 2591.13 493.08 2524.44 646.23 2695.59 646.37
00003495 00000034 2414.51 142.85 494.39 702.76 2502.45 399.47 2734.82 394.74 2594.21 496.98 2527.17 649.87 2698.77 650.28
00003496 00000035 2416.00 138.49 497.25 715.03 2506.04 403.52 2740.72 400.24 2598.89 503.59 2529.17 657.38 2705.76 659.02
00003497 00000036 2416.72 122.31 497.08 738.48 2509.56 405.49 2747.71 404.53 2605.43 506.98 2528.97 661.27 2714.24 665.13
00003498 00000037 2419.67 121.46 498.70 743.84 2516.20 408.34 2753.86 411.48 2612.19 513.96 2529.24 663.06 2719.96 670.59
00003499 00000038 2425.02 121.03 502.79 750.39 2523.02 416.32 2759.75 419.89 2617.27 522.22 2527.20 669.19 2724.72 676.29
00003500 00000039 2428.84 125.62 507.96 753.03 2533.13 418.62 2778.23 429.19 2631.89 525.20 2534.17 676.87 2738.01 689.72
00003501 00000040 2436.23 111.59 509.22 768.98 2543.78 422.30 2791.61 439.44 2647.83 538.14 2543.79 682.71 2745.75 700.99
00003502 DELETE   2448.89 107.85 508.57 783.29 2564.26 432.64 2805.38 457.82 2670.84 550.94 2561.40 689.47 2744.96 714.27
00003503 DELETE   2463.45 86.18 506.65 817.60 2577.27 452.62 2816.45 471.81 2686.42 567.11 2575.25 712.50 2748.40 732.00
00003504 DELETE   2469.43 93.60 504.90 813.58 2586.70 457.01 2826.60 482.61 2697.16 583.71 2586.87 716.97 2750.77 741.70
00003505 00000044 2467.83 82.72 509.79 821.00 2594.36 458.39 2828.47 485.79 2702.92 589.10 2592.15 722.11 2751.35 748.38
00003506 00000045 2464.91 80.44 505.08 831.55 2591.11 451.22 2826.34 477.89 2702.69 584.88 2592.49 723.55 2751.98 748.51
00003507 00000046 2462.79 77.01 499.28 833.46 2589.64 440.91 2817.85 466.14 2697.18 569.48 2585.47 713.58 2751.60 737.75
00003508 00000047 2453.03 80.53 502.88 812.94 2572.82 430.56 2812.28 455.66 2684.76 551.49 2572.59 698.26 2742.22 723.22
00003509 00000048 2442.97 84.40 504.05 795.69 2561.95 421.73 2805.05 448.56 2669.35 542.56 2558.54 686.59 2741.38 712.98
00003510 00000049 2433.37 93.51 506.02 785.29 2546.74 422.09 2793.48 443.56 2652.80 538.67 2543.57 685.17 2736.62 707.14
00003511 00000050 2426.44 99.75 506.57 779.58 2537.28 425.16 2783.40 444.34 2638.69 537.75 2529.45 683.58 2728.37 703.66
00003512 00000051 2419.38 102.65 508.68 779.03 2528.07 431.16 2768.21 446.58 2623.65 541.51 2520.54 686.38 2716.08 703.36
00003513 00000052 2411.82 104.30 505.42 779.14 2513.64 436.57 2753.82 446.29 2607.68 544.43 2513.68 691.48 2705.99 703.66
00003514 00000053 2399.26 103.46 509.81 784.07 2501.41 432.05 2740.63 445.02 2596.09 554.55 2508.25 694.00 2695.39 708.70
00003515 00000054 2391.31 117.63 501.58 769.16 2492.15 434.45 2723.61 443.49 2581.20 552.82 2496.72 695.13 2679.53 706.70
00003516 00000055 2385.55 119.84 495.43 767.81 2483.25 437.59 2712.63 442.39 2572.06 554.09 2491.00 696.98 2673.29 705.23
00003517 00000056 2380.77 132.78 492.74 755.01 2475.95 438.13 2708.29 439.22 2563.16 555.05 2487.09 701.26 2677.08 705.88
00003518 00000057 2379.43 143.39 495.02 742.12 2473.75 439.52 2707.00 435.12 2559.50 553.81 2486.72 704.13 2684.39 703.97
00003519 00000058 2381.44 137.36 497.49 749.52 2474.09 438.89 2709.19 432.47 2561.72 551.84 2488.10 704.74 2690.65 703.15
00003520 00000059 2388.29 141.21 497.35 747.60 2481.79 438.17 2714.72 432.08 2568.87 552.12 2496.36 704.28 2697.69 702.55
00003521 00000060 2397.43 129.95 495.77 761.44 2489.19 440.42 2721.55 436.45 2578.27 553.59 2502.15 705.39 2702.37 705.95
00003522 00000061 2408.45 134.55 492.94 755.86 2498.26 444.78 2730.50 443.47 2588.09 558.64 2507.93 707.29 2708.34 709.98
00003523 00000062 2414.01 131.12 496.64 762.26 2504.37 446.60 2739.95 446.41 2595.70 561.73 2514.70 710.59 2715.65 714.11
00003524 00000063 2414.58 123.45 500.94 773.29 2507.77 445.85 2748.28 445.57 2597.79 560.03 2516.67 713.00 2715.50 716.44
00003525 00000064 2415.90 121.60 501.60 776.22 2509.37 446.22 2750.32 447.16 2600.71 562.53 2518.49 713.57 2716.66 718.14
00003526 00000065 2416.87 123.17 501.29 777.71 2511.30 446.97 2752.23 448.67 2603.24 564.88 2520.53 713.91 2719.10 719.00
00003527 00000066 2417.91 117.27 503.99 784.63 2512.61 448.60 2754.62 450.30 2605.21 567.32 2520.40 715.95 2719.62 721.34
00003528 00000067 2420.71 119.60 499.02 787.94 2515.58 449.81 2754.98 453.33 2609.57 575.31 2521.76 719.55 2720.46 726.25
00003529 00000068 2428.73 139.23 486.53 771.48 2519.16 461.01 2753.52 462.95 2612.96 580.91 2523.28 723.94 2721.86 729.51
00003530 00000069 2428.68 139.28 487.47 774.70 2518.49 463.29 2756.51 466.15 2615.36 584.15 2523.72 725.83 2723.00 732.15
00003531 00000070 2426.35 119.31 493.47 799.62 2518.24 465.13 2759.30 469.64 2615.84 586.81 2522.60 725.55 2722.29 733.33
00003532 00000071 2426.02 109.35 495.81 811.85 2520.43 462.20 2758.15 467.75 2615.86 586.60 2523.08 725.28 2720.61 733.84
00003533 00000072 2423.83 103.78 500.01 816.66 2519.26 458.56 2758.71 464.28 2613.28 582.21 2521.45 724.26 2718.95 733.22
00003534 00000073 2420.89 111.13 503.12 801.77 2516.37 451.37 2758.32 456.62 2608.36 571.76 2520.19 719.48 2718.68 728.01
00003535 00000074 2418.87 117.27 506.85 778.34 2512.28 443.62 2755.29 449.62 2599.50 557.07 2513.69 705.78 2716.82 715.12
00003536 00000075 2420.43 126.45 503.46 754.36 2509.41 435.98 2747.72 441.16 2596.17 548.75 2512.55 688.85 2713.69 697.53
00003537 00000076 2415.86 128.05 500.58 737.14 2502.01 424.09 2740.74 426.60 2587.43 532.84 2508.64 674.19 2708.28 680.79
00003538 00000077 2413.22 127.29 503.77 739.87 2499.88 412.38 2739.03 416.05 2583.51 524.43 2506.60 664.40 2718.63 671.87
00003539 00000078 2411.71 129.05 503.31 736.36 2500.57 406.11 2732.40 406.10 2578.70 512.76 2506.09 657.24 2718.79 662.01
00003540 00000079 2418.17 165.66 489.25 707.53 2505.55 419.54 2728.90 416.46 2576.25 516.45 2510.38 665.95 2725.91 667.32
00003541 00000080 2417.12 171.32 489.90 713.40 2505.11 425.74 2729.24 422.97 2574.27 527.63 2512.05 678.69 2726.83 679.77
00003542 00000081 2418.59 151.50 494.57 741.25 2499.82 425.05 2733.62 421.34 2575.95 531.39 2510.15 683.75 2718.92 683.96
00003543 00000082 2417.80 138.30 497.86 753.23 2500.03 427.12 2731.36 424.49 2574.81 539.15 2509.93 687.13 2718.19 688.38
00003544 00000083 2412.76 134.93 499.36 753.53 2496.01 429.84 2731.54 430.90 2572.88 546.81 2504.82 688.80 2718.90 693.13
00003545 00000084 2403.11 132.73 498.41 751.55 2487.25 429.71 2725.01 431.59 2567.89 545.22 2491.96 686.47 2710.98 692.05
00003546 00000085 2388.51 133.39 499.69 741.17 2475.24 424.35 2713.39 428.90 2556.33 537.79 2477.69 677.93 2693.36 685.83
00003547 00000086 2370.38 134.84 501.95 738.77 2455.84 425.22 2694.51 425.08 2537.01 535.05 2459.73 678.96 2678.98 682.79
00003548 00000087 2361.41 145.79 497.00 730.24 2441.42 427.13 2675.11 421.75 2518.45 534.06 2451.53 678.92 2660.94 677.95
00003549 00000088 2353.83 164.47 486.05 717.94 2429.25 431.02 2654.86 422.72 2497.65 540.18 2445.11 685.39 2644.13 680.46
00003550 00000089 2339.29 156.09 495.84 725.11 2415.38 436.62 2643.01 424.81 2486.44 541.32 2432.84 687.00 2636.22 679.63
00003551 00000090 2326.27 147.38 498.96 732.23 2403.51 444.13 2630.66 427.22 2475.87 541.44 2425.43 688.62 2628.72 677.53
00003552 00000091 2323.09 174.68 495.62 703.76 2398.70 447.31 2620.75 429.99 2472.28 541.16 2422.98 686.45 2621.66 675.25
00003553 00000092 2323.13 175.68 493.55 702.35 2397.71 449.69 2615.87 431.48 2469.75 540.05 2423.86 684.79 2620.52 672.88
00003554 00000093 2324.06 170.88 493.42 707.79 2401.15 446.70 2620.99 425.02 2474.59 535.26 2427.43 685.55 2627.75 670.57
00003555 00000094 2326.06 163.74 495.18 714.13 2405.56 443.08 2624.89 419.13 2478.81 531.97 2432.62 683.04 2635.45 665.97
00003556 00000095 2334.16 155.75 490.50 719.68 2411.59 437.79 2631.57 412.87 2485.47 526.21 2437.71 678.87 2641.00 661.02
00003557 00000096 2344.95 168.90 486.56 704.92 2419.69 435.68 2638.60 411.96 2493.32 521.00 2447.63 675.26 2643.49 658.59
00003558 00000097 2354.09 180.31 486.25 685.30 2428.82 433.29 2644.97 414.40 2503.06 519.69 2460.09 673.37 2631.88 661.28
00003559 00000098 2361.79 185.79 486.52 676.34 2438.40 431.68 2654.89 412.82 2515.01 517.25 2472.65 672.28 2632.78 660.34
00003560 00000099 2371.92 177.73 488.72 676.10 2457.34 427.93 2665.91 410.22 2535.28 510.74 2487.08 665.88 2638.64 655.11
00003561 DELETE   2383.25 158.05 489.64 683.74 2469.39 423.45 2684.59 411.18 2552.26 510.11 2497.02 661.15 2656.67 655.03
00003562 DELETE   2396.72 156.87 494.66 684.33 2478.05 421.23 2706.38 412.86 2566.24 515.82 2503.41 666.64 2677.28 663.64
00003563 00000102 2406.66 158.32 491.26 694.97 2489.90 422.43 2717.99 415.56 2576.56 520.88 2513.72 672.98 2692.24 670.99
00003564 DELETE   2414.62 168.05 484.49 693.97 2499.43 425.96 2724.51 417.99 2583.90 520.28 2520.58 673.86 2710.60 670.68
00003565 DELETE   2415.91 175.99 485.08 685.72 2502.35 423.78 2726.15 412.86 2585.34 514.93 2521.12 666.67 2724.14 660.81
00003566 00000105 2416.79 177.78 489.63 682.61 2505.38 415.48 2736.05 403.36 2593.39 504.28 2524.10 661.39 2734.47 655.49
00003567 00000106 2420.27 154.27 492.22 713.14 2510.40 408.53 2744.51 399.43 2599.10 499.44 2526.27 661.37 2741.50 658.53
00003568 00000107 2424.81 145.81 489.69 724.62 2517.85 411.03 2750.62 404.48 2608.32 509.68 2526.73 662.94 2749.21 661.91
00003569 00000108 2426.80 136.42 495.90 741.90 2522.51 414.26 2757.26 410.51 2617.18 519.29 2528.17 669.26 2754.81 670.68
00003570 00000109 2428.00 127.46 491.54 753.24 2522.85 418.05 2760.23 411.49 2619.69 527.27 2528.59 672.66 2752.32 670.49
00003571 00000110 2428.94 129.48 492.97 756.03 2528.31 416.75 2765.46 412.71 2624.34 526.50 2533.40 673.99 2753.24 673.68
00003572 00000111 2431.04 126.30 494.68 749.53 2532.86 416.43 2769.71 414.22 2628.88 526.72 2536.23 672.19 2756.57 673.51
00003573 00000112 2431.57 119.37 499.35 747.99 2535.40 418.43 2776.35 419.48 2634.40 528.78 2535.37 669.93 2760.21 674.49
00003574 00000113 2433.61 121.59 499.59 739.78 2537.85 418.73 2777.16 419.59 2637.89 528.58 2540.75 666.64 2759.78 670.76
00003575 00000114 2434.60 122.46 499.29 746.64 2538.82 415.64 2778.07 415.05 2640.32 524.65 2550.27 668.57 2757.22 671.16
00003576 00000115 2437.00 116.85 499.48 748.22 2541.65 410.20 2776.51 411.69 2640.34 518.22 2554.27 667.92 2747.74 672.56
00003577 00000116 2438.11 107.83 499.73 743.24 2546.75 404.73 2773.78 407.04 2643.62 508.50 2560.26 656.03 2735.27 661.68
00003578 00000117 2438.28 109.76 498.90 733.45 2545.63 403.87 2770.73 406.12 2640.75 502.46 2557.31 651.53 2727.59 657.45
00003579 00000118 2438.28 115.27 499.84 728.04 2544.49 407.17 2767.57 408.25 2637.59 506.31 2558.67 654.72 2724.51 659.58
00003580 00000119 2436.60 114.42 505.57 738.49 2543.59 408.85 2766.06 409.54 2634.42 512.17 2558.33 658.73 2722.25 663.15
00003581 00000120 2438.56 109.49 504.77 741.48 2545.11 406.75 2771.11 407.80 2638.41 508.95 2559.66 656.70 2729.41 661.52
00003582 00000121 2440.39 115.86 505.64 730.03 2550.51 401.14 2780.19 404.57 2649.27 500.73 2565.22 651.60 2733.62 658.38
00003583 00000122 2446.63 121.77 500.77 719.14 2550.58 401.55 2788.18 405.84 2651.15 500.11 2562.75 648.29 2745.93 655.87
00003584 00000123 2454.41 162.40 494.60 682.46 2558.43 412.25 2794.44 420.00 2653.47 511.99 2565.71 653.44 2761.20 663.01
00003585 00000124 2458.78 144.55 496.19 711.28 2565.39 414.91 2809.22 424.32 2665.58 523.49 2573.14 661.07 2777.65 672.09
00003586 00000125 2461.68 117.76 498.07 767.08 2571.32 415.68 2817.92 426.49 2674.38 526.88 2577.15 670.10 2787.47 683.14
00003587 00000126 2465.52 117.78 499.21 774.19 2576.73 416.09 2821.54 428.52 2680.60 526.52 2581.96 671.72 2789.06 686.51
00003588 00000127 2466.80 101.23 498.05 780.53 2577.64 418.28 2818.98 427.01 2685.12 528.82 2582.36 671.74 2784.80 682.35
00003589 00000128 2468.43 81.09 496.90 797.16 2579.62 417.70 2823.25 430.29 2687.74 528.13 2579.47 668.50 2787.20 682.91
00003590 00000129 2468.16 79.39 495.21 795.49 2576.41 420.51 2822.87 434.81 2685.40 534.29 2575.19 670.16 2786.89 686.03
00003591 00000130 2467.77 111.08 493.45 764.59 2574.16 426.51 2819.87 443.58 2679.90 547.10 2574.84 678.14 2786.72 695.36
00003592 00000131 2463.36 109.80 498.73 779.27 2570.42 427.13 2815.51 440.82 2672.79 547.44 2572.53 680.74 2786.25 695.16
00003593 00000132 2462.49 106.75 498.33 784.07 2566.95 422.92 2809.43 436.14 2665.78 542.73 2569.06 677.03 2780.88 691.44
00003594 00000133 2460.79 103.35 499.39 788.45 2565.05 420.28 2807.09 432.76 2661.32 539.06 2566.37 674.24 2778.46 688.28
00003595 00000134 2460.52 103.23 499.55 783.53 2563.79 417.98 2808.04 430.96 2660.03 535.18 2562.55 671.31 2778.76 685.89
00003596 00000135 2461.51 110.20 500.72 772.98 2565.99 417.32 2809.90 429.22 2662.49 532.54 2565.48 668.65 2781.40 682.27
00003597 00000136 2464.32 106.31 500.84 781.70 2567.83 418.57 2810.99 429.94 2663.59 534.08 2569.19 670.05 2783.60 683.29
00003598 00000137 2465.85 103.78 501.89 787.87 2565.89 421.12 2805.85 426.26 2663.50 539.12 2568.84 678.34 2780.30 685.71
00003599 00000138 2468.22 105.09 500.08 787.00 2566.93 421.82 2807.00 425.82 2664.12 541.34 2570.90 679.51 2784.22 685.70
00003600 00000139 2466.54 107.72 501.03 784.65 2565.71 422.15 2806.03 427.61 2662.40 542.78 2568.40 682.03 2781.66 689.31
00003601 00000140 2465.35 117.02 499.13 772.72 2563.66 425.10 2806.77 433.82 2659.91 546.13 2567.16 684.27 2781.21 694.91
00003602 00000141 2457.27 112.75 499.89 777.30 2558.01 428.64 2800.37 437.15 2654.38 550.65 2559.18 690.06 2774.56 700.70
00003603 00000142 2448.47 112.48 502.79 783.40 2551.27 433.79 2794.00 440.68 2650.93 556.39 2552.02 696.69 2766.65 706.17
00003604 00000143 2441.89 99.94 505.83 797.14 2542.48 441.91 2789.70 448.66 2649.15 564.16 2548.65 702.59 2757.71 712.49
00003605 00000144 2435.09 84.51 504.83 820.88 2538.14 445.63 2790.50 453.33 2651.75 578.35 2546.26 713.77 2751.84 723.92
00003606 00000145 2434.51 96.81 499.92 811.15 2536.08 451.94 2784.80 457.73 2648.41 588.23 2547.93 722.10 2744.93 730.17
00003607 00000146 2432.14 109.74 496.59 799.84 2531.47 458.45 2777.44 460.78 2643.47 593.15 2548.14 729.29 2741.27 734.41
00003608 00000147 2429.13 114.17 495.38 798.61 2528.68 461.52 2772.62 461.67 2639.53 593.16 2547.06 730.66 2740.51 734.02
00003609 00000148 2426.98 113.06 496.31 802.23 2526.38 462.81 2771.61 463.19 2638.90 594.93 2542.85 727.87 2741.65 731.28
00003610 00000149 2424.87 117.23 495.63 792.78 2522.58 463.98 2767.67 464.72 2633.04 597.02 2535.99 729.11 2739.71 732.68
00003611 00000150 2424.66 119.96 493.08 785.60 2520.95 467.32 2766.20 466.59 2630.91 598.71 2533.15 732.58 2739.76 735.08
00003612 00000151 2426.11 136.87 490.54 773.01 2521.57 479.30 2770.37 478.77 2632.98 596.00 2532.10 730.11 2743.22 733.24
00003613 00000152 2423.23 154.54 492.82 756.42 2520.20 481.35 2764.14 476.60 2624.05 599.12 2532.59 725.84 2747.56 725.28
00003614 00000153 2421.80 129.85 492.64 786.37 2518.24 474.22 2764.87 472.08 2630.23 595.52 2530.71 726.88 2743.83 728.18
00003615 00000154 2419.51 122.76 493.56 792.34 2516.09 466.77 2758.84 464.56 2624.95 593.62 2529.24 723.13 2738.78 724.28
00003616 00000155 2416.27 116.56 492.97 795.04 2511.40 460.62 2753.05 458.90 2616.85 589.35 2524.87 721.88 2732.52 723.22
00003617 00000156 2414.71 115.85 493.99 791.46 2508.22 455.43 2752.67 454.05 2612.70 582.16 2521.30 720.09 2727.85 721.84
00003618 00000157 2412.87 119.63 493.85 776.45 2505.50 454.39 2751.49 455.48 2611.30 582.93 2517.04 718.19 2729.95 722.32
00003619 00000158 2409.81 116.45 497.90 775.72 2502.10 453.26 2749.21 454.24 2608.66 582.35 2517.19 722.30 2723.53 726.31
00003620 00000159 2408.65 121.12 498.30 772.95 2499.96 453.22 2744.55 454.71 2605.16 581.29 2517.11 723.24 2713.85 727.67
00003621 00000160 2400.05 123.29 503.60 774.58 2498.82 455.13 2736.40 453.34 2596.09 582.74 2522.63 722.76 2700.92 725.56
00003622 00000161 2390.08 131.45 507.06 766.59 2489.37 457.73 2722.83 453.08 2585.28 585.64 2519.53 726.65 2686.44 726.77
00003623 00000162 2382.31 134.67 504.49 763.20 2481.21 457.80 2710.69 451.42 2573.93 581.28 2510.10 723.48 2677.98 721.89
