Video ID: 	KiZJxA2zWLk
H: 	1080
W: 	1920
FPS: 	25.0

FRAME INDEX X0 Y0 W H [Landmarks (5 Points)]

00000795 00000000 800.46 198.56 444.07 593.36 844.83 436.64 1008.33 400.58 877.59 528.40 895.24 649.55 1023.90 620.29
00000796 00000001 798.11 190.38 452.07 595.53 847.33 436.80 1016.25 395.88 893.89 526.98 905.15 649.50 1036.88 616.18
00000797 00000002 798.08 186.22 454.77 602.17 849.58 437.91 1017.54 393.58 896.50 523.29 909.66 649.00 1041.91 612.85
00000798 00000003 796.24 190.51 453.96 596.47 848.60 445.15 1016.61 398.88 895.37 521.83 908.21 648.58 1042.70 610.66
00000799 DELETE   795.22 193.55 450.16 591.07 846.67 448.68 1013.84 402.99 894.64 522.59 905.49 649.64 1038.53 612.03
00000800 DELETE   794.56 192.64 451.17 591.71 844.30 449.24 1012.78 403.72 891.30 523.20 900.67 651.31 1033.57 613.94
00000801 00000006 795.63 192.06 449.85 585.59 843.57 451.09 1012.05 405.10 890.99 523.42 899.10 649.13 1029.90 611.64
00000802 00000007 795.55 195.22 447.71 583.85 843.97 451.83 1009.96 405.98 887.38 521.90 898.38 650.08 1026.80 612.64
00000803 00000008 793.78 194.23 447.19 594.12 842.75 450.94 1008.63 407.30 883.95 522.85 894.93 653.89 1022.17 618.33
00000804 DELETE   792.38 195.00 445.79 596.09 844.48 449.62 1007.31 407.01 883.79 520.18 895.84 651.57 1022.29 616.67
00000805 00000010 790.74 195.32 447.17 597.88 842.79 449.65 1005.69 406.53 880.90 519.56 893.67 651.66 1022.60 616.25
00000806 00000011 787.07 196.66 449.12 599.19 840.46 446.91 1005.17 403.83 879.45 517.89 893.12 651.84 1022.61 616.34
00000807 00000012 786.50 192.06 447.86 601.82 838.58 440.76 1006.51 396.26 878.09 515.76 891.69 651.30 1022.17 614.97
00000808 00000013 783.12 188.10 449.01 598.56 833.43 433.54 1004.41 391.05 873.22 515.70 887.47 649.74 1016.72 615.05
00000809 00000014 784.30 183.89 445.40 592.09 829.90 428.40 1000.47 391.17 867.29 510.85 875.87 638.22 1006.03 607.20
00000810 00000015 782.40 184.28 441.93 593.34 828.09 428.87 999.90 390.94 866.59 510.58 873.79 639.48 1004.73 608.09
00000811 00000016 779.64 185.57 439.38 596.41 826.05 428.49 997.47 390.83 864.06 510.53 872.09 641.45 1002.32 610.47
00000812 00000017 776.13 186.60 439.89 595.44 821.38 429.62 994.20 391.46 860.10 510.53 867.39 641.87 998.46 610.78
00000813 00000018 773.09 184.66 440.13 599.21 817.69 430.61 991.99 390.68 857.52 510.34 863.48 641.85 998.96 609.35
00000814 00000019 770.59 181.15 441.05 601.01 815.68 428.98 991.18 387.59 856.16 508.80 860.98 639.57 1001.14 605.85
00000815 00000020 770.34 175.76 439.63 599.39 814.70 427.78 990.80 383.71 855.50 504.50 859.44 635.36 1002.25 599.42
00000816 00000021 769.12 171.40 438.75 599.25 814.67 426.69 988.39 380.61 855.52 499.21 859.27 631.27 1000.50 593.69
00000817 00000022 767.63 169.01 436.53 591.55 814.44 425.55 986.60 378.56 856.01 494.63 860.58 626.65 997.50 588.91
00000818 00000023 767.07 170.01 437.46 585.23 814.03 424.84 985.11 375.33 857.36 490.58 861.01 622.47 998.94 582.59
00000819 00000024 766.76 170.42 438.96 584.78 814.28 425.46 982.54 374.13 855.82 487.49 861.27 620.48 997.02 579.12
00000820 00000025 767.11 167.58 438.47 581.03 814.32 424.76 983.53 372.45 855.61 483.09 860.34 617.01 996.64 575.00
00000821 00000026 766.63 167.69 437.78 575.94 814.23 424.65 983.40 372.18 856.19 481.04 859.49 614.35 995.59 572.24
00000822 00000027 769.00 167.99 437.58 570.41 814.95 423.08 985.20 370.43 858.31 481.58 860.85 612.47 997.71 570.12
00000823 00000028 770.24 166.89 437.18 569.07 815.01 421.68 986.49 368.77 858.31 481.18 859.88 611.77 999.17 569.25
00000824 00000029 771.33 168.30 436.26 564.76 816.85 420.74 988.02 368.21 860.51 479.86 860.72 609.57 1000.17 567.31
00000825 00000030 772.97 166.96 437.95 567.03 818.40 420.67 990.08 367.65 861.10 478.93 862.01 609.21 1001.92 566.38
00000826 00000031 771.87 169.63 437.58 566.38 818.21 412.81 993.88 363.43 860.24 479.20 866.74 609.11 1005.64 569.43
00000827 00000032 775.17 170.06 439.60 566.06 821.31 413.97 998.05 363.58 863.75 479.14 869.83 610.24 1008.50 569.79
00000828 00000033 779.76 171.83 439.66 565.13 827.56 415.15 1001.48 363.63 868.52 477.57 875.33 608.92 1012.65 567.41
00000829 00000034 782.86 172.04 440.80 562.74 830.56 412.73 1003.96 362.52 870.29 475.65 877.75 605.92 1014.82 565.49
00000830 00000035 784.62 173.61 442.05 558.07 832.55 411.17 1005.35 361.29 871.69 474.26 880.57 603.25 1017.58 563.09
00000831 00000036 787.05 172.67 442.35 558.21 835.29 410.25 1007.59 361.18 874.92 472.39 880.93 601.12 1017.93 561.70
00000832 00000037 790.62 172.06 441.49 558.41 838.23 410.80 1010.53 361.41 879.20 472.56 883.97 601.44 1021.35 561.82
00000833 00000038 794.29 171.82 439.31 557.73 840.97 411.60 1014.69 362.04 884.21 473.46 886.47 601.87 1025.96 562.05
00000834 00000039 795.82 169.67 437.67 566.13 836.12 400.34 1016.91 358.45 881.96 475.07 880.59 600.67 1027.75 568.30
00000835 00000040 800.86 171.85 434.88 561.81 837.91 402.06 1020.58 359.33 885.75 477.15 883.14 602.05 1032.31 569.12
00000836 00000041 806.68 169.49 436.72 563.31 850.85 412.96 1026.21 363.45 898.40 478.07 896.09 603.59 1039.75 563.93
00000837 00000042 809.36 168.15 439.03 564.98 854.89 414.95 1028.70 362.56 902.30 477.59 902.46 605.45 1043.12 563.68
00000838 00000043 813.28 168.05 439.38 566.12 858.73 412.81 1032.31 360.36 906.72 474.85 904.98 602.86 1046.79 560.83
00000839 00000044 818.28 164.40 438.16 568.49 862.85 409.99 1035.07 357.39 908.03 470.74 907.38 600.98 1046.76 558.84
00000840 00000045 821.77 163.92 435.56 563.91 866.07 409.67 1038.41 356.73 911.60 469.94 908.78 600.51 1048.43 558.31
00000841 00000046 825.34 164.46 436.23 564.65 869.68 409.17 1042.45 358.06 915.57 471.22 911.24 599.52 1052.68 558.73
00000842 00000047 829.09 164.43 438.37 566.16 872.88 408.73 1047.85 359.01 918.42 472.22 914.65 600.20 1058.43 560.56
00000843 00000048 830.52 165.94 437.95 564.50 874.52 412.00 1049.39 362.25 919.88 475.13 917.80 602.94 1059.85 563.31
00000844 00000049 829.88 165.38 438.78 566.37 874.29 413.19 1048.79 363.51 919.45 476.18 917.86 604.12 1058.50 564.65
00000845 00000050 830.12 164.35 438.72 568.80 874.27 412.21 1047.80 362.51 918.27 475.91 918.26 604.42 1057.42 564.93
00000846 00000051 830.65 161.57 437.94 573.05 874.76 410.84 1046.82 360.57 917.29 474.62 918.61 603.91 1058.07 563.94
00000847 00000052 829.07 161.50 437.99 572.68 872.85 410.14 1044.79 360.25 915.38 474.89 916.60 603.88 1056.05 564.29
00000848 00000053 827.18 162.21 439.47 573.72 870.81 410.49 1042.12 360.40 912.86 474.79 914.58 605.76 1051.88 566.03
00000849 00000054 826.97 163.78 441.11 575.34 870.49 412.03 1040.86 363.01 910.89 477.10 913.83 607.64 1050.20 568.77
00000850 00000055 829.11 163.45 440.50 579.57 872.25 414.03 1042.72 364.94 910.96 477.59 915.11 610.80 1050.36 571.89
00000851 00000056 830.28 161.77 441.10 583.36 873.44 414.54 1045.17 365.81 913.16 478.42 916.35 612.46 1052.29 573.82
00000852 00000057 831.11 160.82 441.91 583.80 875.00 415.69 1048.78 365.64 917.08 479.55 919.68 613.62 1057.21 573.90
00000853 00000058 831.58 160.66 442.42 586.29 876.19 416.02 1051.02 366.82 918.82 480.38 920.59 614.54 1059.07 575.36
00000854 00000059 832.04 162.70 443.85 588.80 877.54 416.93 1051.89 368.37 919.85 481.36 921.86 615.31 1060.96 576.44
00000855 00000060 833.07 163.80 443.40 590.94 878.95 416.91 1052.94 368.92 920.70 481.21 922.84 615.34 1061.62 576.76
00000856 00000061 832.72 163.63 443.52 587.74 879.14 416.24 1052.54 368.39 921.00 480.85 923.00 614.04 1061.14 575.64
00000857 00000062 832.26 161.79 443.04 590.03 877.89 415.65 1050.70 368.42 917.56 480.70 920.83 614.52 1057.67 576.79
00000858 00000063 832.12 162.26 441.67 588.06 878.06 414.60 1050.57 368.86 917.30 480.52 920.28 612.94 1056.60 576.32
00000859 00000064 832.43 162.52 441.59 586.96 877.55 414.27 1049.34 367.83 915.37 479.87 919.82 613.29 1055.86 576.16
00000860 00000065 832.93 163.04 439.26 584.39 877.83 412.43 1049.32 366.94 914.56 478.79 919.45 611.44 1054.53 575.12
00000861 00000066 834.02 163.17 437.75 582.89 877.21 413.19 1045.45 367.07 910.92 478.58 918.70 611.19 1051.85 574.38
00000862 00000067 831.48 163.32 438.06 584.08 872.89 413.77 1039.92 366.86 905.69 478.83 913.48 612.47 1046.17 575.22
00000863 00000068 826.64 164.32 439.54 588.58 865.46 415.43 1032.45 370.28 898.50 481.65 906.87 615.03 1039.31 579.17
00000864 00000069 820.71 165.81 439.73 588.97 859.60 414.50 1028.05 370.23 892.38 481.31 900.48 615.92 1035.22 580.62
00000865 00000070 818.18 168.10 438.33 592.66 855.38 417.64 1023.21 373.06 885.48 483.08 895.37 621.39 1028.49 585.72
00000866 00000071 815.32 172.91 438.37 589.17 853.41 418.37 1021.31 376.38 880.72 486.97 892.03 623.58 1023.26 590.14
00000867 00000072 810.98 173.52 440.06 589.39 850.60 420.42 1019.64 379.13 878.02 489.15 888.08 625.16 1019.83 592.08
00000868 00000073 807.15 176.72 439.47 586.47 848.08 422.26 1016.04 380.04 875.59 489.56 887.06 625.26 1017.79 591.14
00000869 00000074 803.72 177.88 439.90 587.46 845.34 422.33 1013.65 380.60 872.66 491.65 884.40 626.06 1016.05 592.19
00000870 00000075 801.35 177.95 439.16 587.02 842.64 422.76 1011.13 380.18 870.28 493.54 883.51 627.52 1014.05 592.95
00000871 00000076 799.16 177.76 440.83 588.64 840.57 422.23 1010.41 380.37 869.15 495.76 882.23 628.12 1013.93 594.18
00000872 00000077 798.00 177.92 440.52 587.86 839.81 422.33 1009.82 380.24 869.03 496.06 882.04 628.42 1013.16 594.31
00000873 00000078 797.10 177.56 441.06 588.58 840.04 420.65 1009.77 379.11 869.26 494.22 882.16 627.13 1013.16 593.40
00000874 00000079 797.17 177.31 440.65 588.52 841.38 419.74 1010.56 378.70 870.40 492.60 883.13 625.62 1013.22 592.34
00000875 00000080 796.35 178.78 441.01 582.49 840.83 419.12 1010.00 376.51 870.72 490.36 883.43 624.22 1012.95 589.77
00000876 00000081 794.08 177.23 441.83 583.71 839.40 418.95 1009.43 375.91 870.24 489.08 882.29 623.54 1012.45 588.76
00000877 00000082 793.92 177.17 441.44 581.05 838.52 417.12 1008.27 374.25 868.50 486.94 880.98 621.27 1010.87 586.65
00000878 00000083 793.23 175.70 441.82 580.30 838.02 416.09 1007.61 372.66 868.67 485.69 880.93 619.92 1010.79 584.90
00000879 00000084 792.29 174.66 442.52 580.18 837.30 415.59 1007.30 372.01 868.54 484.67 880.69 618.70 1011.44 583.53
00000880 00000085 792.11 174.19 442.74 582.83 836.90 416.20 1006.03 372.48 867.47 484.99 880.33 619.55 1010.13 584.24
00000881 00000086 791.39 174.42 443.10 582.18 836.04 416.22 1005.83 371.73 867.41 485.26 880.49 619.62 1011.06 583.61
00000882 00000087 789.12 173.16 445.05 581.34 834.91 415.96 1005.27 371.45 867.46 485.44 879.92 618.53 1011.17 582.58
00000883 00000088 788.44 172.10 444.94 583.94 834.03 415.23 1003.99 370.47 866.16 485.26 879.63 618.90 1011.10 582.60
00000884 00000089 787.45 171.60 444.55 583.55 832.59 415.00 1003.06 370.22 865.23 486.08 878.72 619.18 1010.44 582.90
00000885 00000090 787.28 171.66 443.83 582.50 832.34 414.94 1002.65 369.73 864.95 485.73 879.02 618.71 1010.14 582.10
00000886 00000091 787.58 171.79 442.52 582.05 832.68 414.98 1002.48 370.28 865.45 486.51 879.45 619.00 1010.05 582.75
00000887 00000092 787.70 171.87 441.67 581.27 832.54 415.77 1002.82 370.52 865.47 486.78 879.34 619.36 1009.92 582.71
00000888 00000093 786.15 172.11 441.07 580.07 831.33 415.56 1002.21 370.26 865.89 487.81 878.85 619.48 1009.79 582.79
00000889 00000094 784.89 171.47 440.58 580.66 830.34 416.82 1001.37 370.82 865.08 488.22 878.45 620.81 1008.58 583.55
00000890 00000095 782.83 171.20 439.55 581.27 828.78 417.25 999.46 370.98 863.60 489.08 877.46 621.97 1006.96 584.42
00000891 00000096 780.73 171.33 437.69 580.98 826.59 417.98 997.79 371.15 862.56 490.29 875.76 623.22 1006.02 585.21
00000892 00000097 778.03 169.75 437.93 581.59 823.91 417.16 995.63 371.32 859.65 490.86 873.33 623.62 1003.00 586.52
00000893 00000098 778.90 167.34 436.55 585.49 822.82 423.95 988.79 376.30 859.90 489.19 868.53 619.57 999.73 580.89
00000894 00000099 774.67 165.62 435.34 590.73 818.06 424.32 984.49 375.52 854.73 488.96 863.29 621.85 994.92 582.43
00000895 00000100 770.25 164.24 435.27 587.84 812.92 425.39 980.12 374.82 850.02 489.09 859.29 622.77 990.60 582.27
00000896 00000101 766.77 165.29 437.64 589.62 808.96 425.89 974.42 375.96 842.03 489.53 854.17 623.52 985.12 583.75
00000897 00000102 763.31 165.99 438.36 589.35 804.01 425.47 969.09 376.17 836.73 490.11 849.69 624.02 979.11 584.92
00000898 00000103 758.91 166.50 440.18 588.69 800.58 423.63 965.48 376.49 833.52 491.66 848.05 623.24 977.24 585.75
00000899 00000104 756.40 166.75 441.84 590.83 798.42 423.26 962.82 377.17 830.97 492.55 846.17 623.51 974.72 586.81
00000900 00000105 756.16 165.86 441.86 589.32 797.40 423.03 961.57 376.54 829.84 492.38 844.68 623.01 973.49 586.04
00000901 00000106 755.89 165.08 442.14 587.97 798.02 421.21 961.78 374.11 831.87 489.84 846.51 620.40 975.76 582.84
00000902 00000107 756.62 165.81 442.21 583.80 799.11 420.30 962.50 372.84 833.34 487.56 847.54 618.54 976.15 580.61
00000903 00000108 758.52 165.17 441.47 582.10 801.79 419.97 965.26 370.30 836.24 485.15 850.90 616.60 979.55 576.81
00000904 00000109 761.13 164.54 440.71 582.94 804.47 419.27 967.49 368.61 837.93 483.72 852.66 616.36 981.47 575.76
00000905 00000110 762.50 163.73 441.15 582.79 806.14 419.27 970.68 367.67 840.45 482.47 854.21 617.11 983.84 575.76
00000906 00000111 764.83 161.64 439.78 583.42 808.60 418.76 973.79 367.13 842.80 482.68 855.90 616.31 987.40 574.91
00000907 00000112 766.26 162.72 438.56 582.00 810.26 419.30 975.84 367.30 845.48 481.99 856.73 616.19 987.91 574.41
00000908 00000113 768.24 161.53 436.76 581.22 811.16 418.85 977.82 366.63 847.92 482.44 858.12 616.03 991.33 574.11
00000909 00000114 769.38 160.58 435.35 580.53 811.76 418.49 979.00 365.87 849.76 481.29 857.94 615.56 991.16 573.45
00000910 00000115 770.78 159.12 435.04 581.60 812.10 418.10 980.00 364.56 849.86 481.10 858.16 616.10 992.96 573.24
00000911 00000116 771.65 159.97 434.54 579.48 813.20 416.90 980.62 364.62 850.96 480.84 858.73 614.80 992.75 572.94
00000912 00000117 772.15 159.84 435.11 582.75 814.62 417.08 981.47 365.39 852.21 480.91 860.11 614.38 993.96 572.81
00000913 00000118 771.73 159.72 435.80 584.39 814.94 417.45 982.01 366.24 852.31 481.11 860.27 614.69 994.13 573.47
00000914 00000119 771.35 159.83 435.93 584.56 814.20 418.20 980.92 366.20 851.52 481.40 860.23 615.59 993.34 573.70
00000915 00000120 771.05 160.70 436.06 583.53 814.04 417.85 980.76 366.30 851.64 481.73 860.24 615.30 993.38 573.77
00000916 00000121 771.46 159.25 436.41 584.89 814.29 416.41 981.30 365.30 851.44 481.34 860.62 614.38 994.41 573.13
00000917 00000122 771.23 158.63 435.18 585.00 814.06 416.23 980.76 364.67 851.21 481.00 860.57 614.52 994.03 572.97
00000918 00000123 771.47 159.29 436.63 586.17 814.16 417.44 980.92 365.73 850.97 481.86 860.24 615.93 993.69 574.26
00000919 00000124 771.90 161.14 437.27 585.20 815.34 418.41 982.11 367.13 852.65 483.32 862.40 616.13 994.97 574.75
00000920 00000125 772.71 161.26 437.39 584.81 816.37 419.52 982.45 367.80 853.71 483.53 863.76 616.27 995.65 574.57
00000921 00000126 773.13 161.60 437.50 585.30 816.77 419.58 982.61 367.99 853.88 483.86 864.59 616.16 996.44 574.55
00000922 00000127 774.00 162.37 437.02 583.09 817.52 419.34 982.93 367.89 854.90 483.47 865.35 614.92 997.02 573.38
00000923 00000128 774.05 160.64 436.89 582.28 817.64 418.33 983.44 366.97 855.60 482.88 864.92 614.60 996.96 573.14
00000924 00000129 774.76 159.64 437.04 581.49 818.21 417.41 983.05 365.77 855.95 481.84 866.08 613.68 997.30 571.87
00000925 00000130 775.27 159.91 437.04 580.85 819.08 416.83 984.04 365.76 856.62 481.50 867.08 613.14 997.90 571.78
00000926 00000131 775.56 161.09 438.41 580.65 819.52 417.83 983.89 366.67 856.58 481.88 867.85 613.29 998.22 571.75
00000927 00000132 776.15 161.32 438.04 582.09 819.71 418.30 984.03 367.47 857.38 482.59 868.13 613.48 998.99 572.20
00000928 00000133 776.18 163.24 438.88 581.69 820.39 418.77 984.98 368.37 858.81 483.49 868.92 613.73 999.93 572.74
00000929 00000134 777.11 162.79 440.70 580.74 821.52 418.65 986.84 367.46 859.50 483.62 869.44 614.75 1000.98 573.14
00000930 00000135 774.90 163.12 439.33 575.78 821.15 409.49 993.88 363.75 860.41 485.58 873.07 615.54 1003.23 578.68
00000931 00000136 777.47 162.39 439.51 577.08 823.65 410.56 996.21 362.79 863.46 484.65 876.62 616.87 1005.47 578.44
00000932 00000137 778.49 161.83 442.05 578.09 824.89 411.38 998.74 362.07 865.65 483.98 878.58 617.38 1008.15 577.76
00000933 00000138 780.56 163.06 443.90 576.82 827.66 409.28 1001.72 360.93 868.13 482.06 880.68 615.26 1010.53 576.38
00000934 00000139 783.29 164.26 443.83 576.70 830.04 409.37 1002.60 361.56 869.01 481.06 882.08 614.31 1012.28 575.83
00000935 00000140 786.12 164.69 445.07 577.14 833.04 411.86 1003.59 363.22 872.21 481.31 885.84 614.67 1014.49 575.40
00000936 00000141 792.12 166.91 445.36 576.10 836.86 412.00 1006.02 365.37 873.09 482.95 887.97 613.58 1018.52 575.95
00000937 00000142 795.83 169.21 443.14 572.17 839.97 412.84 1008.91 367.24 875.99 485.43 890.05 614.32 1021.75 577.63
00000938 00000143 798.23 168.96 444.17 574.20 841.73 414.19 1012.26 369.10 878.90 488.43 891.80 617.66 1022.93 581.49
00000939 00000144 801.29 169.04 442.56 576.40 844.04 417.48 1014.10 371.06 882.37 490.15 895.51 621.39 1025.14 584.08
00000940 00000145 803.85 168.65 440.61 577.52 845.47 418.56 1015.35 372.74 884.09 491.58 896.69 622.47 1026.48 585.60
00000941 00000146 804.78 169.79 439.39 577.83 846.80 418.20 1016.93 373.11 886.43 491.56 897.40 622.02 1028.21 585.66
00000942 00000147 804.04 169.08 440.59 577.28 846.56 417.87 1017.01 372.41 886.68 491.17 897.26 621.19 1028.45 584.57
00000943 00000148 801.96 168.60 442.08 577.14 845.64 416.90 1015.39 370.90 884.58 489.49 896.67 620.04 1026.88 583.04
00000944 00000149 798.12 170.03 443.13 571.59 842.14 414.81 1012.29 369.22 880.08 488.77 892.06 617.70 1023.14 581.17
00000945 00000150 794.57 171.11 442.90 569.95 838.65 413.99 1008.18 368.77 874.95 487.09 888.68 615.30 1020.83 578.84
00000946 00000151 790.34 169.50 442.34 570.48 835.48 413.27 1005.66 367.05 873.02 484.68 886.09 614.60 1016.42 577.37
00000947 00000152 785.92 167.65 442.96 571.83 833.47 411.97 1005.24 365.58 873.59 483.89 884.78 613.73 1015.46 576.37
00000948 00000153 782.77 165.29 440.48 571.91 829.69 410.16 1003.87 364.75 870.55 485.30 880.73 614.42 1013.05 577.93
00000949 00000154 780.42 165.79 437.89 569.33 827.33 409.56 1001.46 364.83 868.95 487.33 878.60 615.04 1009.46 579.09
00000950 00000155 777.61 164.96 438.14 570.46 824.37 411.47 997.89 365.08 866.61 487.54 877.11 616.51 1006.70 579.23
00000951 00000156 778.27 161.79 438.83 576.27 823.40 416.55 990.55 368.03 864.60 485.24 870.83 613.96 1002.73 574.67
00000952 00000157 778.58 158.35 437.57 578.71 823.41 415.11 989.19 366.21 863.51 484.27 870.48 613.31 1001.59 573.81
00000953 00000158 776.87 155.63 436.88 579.43 822.11 413.88 988.14 364.01 862.33 482.40 868.91 612.51 1001.08 572.23
00000954 00000159 776.02 155.01 436.03 578.97 820.23 412.90 985.87 362.12 859.38 480.62 867.53 610.88 1000.48 569.83
00000955 00000160 773.80 153.12 434.10 577.26 817.44 410.34 983.24 359.85 857.74 479.10 864.85 608.02 997.88 567.27
00000956 00000161 772.85 151.89 433.37 578.96 816.15 408.39 982.58 358.97 856.72 479.03 863.10 606.92 997.05 567.06
00000957 00000162 773.34 151.90 433.68 581.25 816.98 410.20 983.47 360.93 857.73 480.42 864.29 608.37 998.14 568.64
00000958 00000163 773.70 153.02 435.29 582.60 818.10 412.00 983.79 362.38 857.73 481.10 866.27 610.30 998.33 570.19
00000959 00000164 774.79 155.01 434.84 582.45 819.23 413.77 984.43 363.89 859.04 482.42 867.06 612.17 1000.05 571.81
00000960 00000165 774.80 156.58 435.18 581.72 819.71 414.19 984.50 365.46 859.34 483.47 867.06 612.23 999.65 572.85
00000961 00000166 774.75 157.76 435.19 580.68 819.42 414.52 984.81 365.91 859.50 484.09 866.86 612.53 1000.04 573.28
00000962 00000167 773.88 158.22 435.67 580.07 819.02 415.49 983.76 366.16 859.15 483.91 866.78 612.39 999.39 572.52
00000963 00000168 773.31 159.69 437.04 579.99 818.29 416.38 983.91 367.04 859.25 484.99 867.60 613.21 1000.08 573.28
