Video ID: 	NqviMei_MWE
H: 	1080
W: 	1920
FPS: 	25.0

FRAME INDEX X0 Y0 W H [Landmarks (5 Points)]

00002713 00000000 729.46 148.89 441.45 685.62 935.38 431.82 1116.24 413.68 1097.41 566.81 955.14 680.62 1101.96 667.04
00002714 DELETE   730.55 153.43 450.53 675.30 950.35 423.33 1138.60 412.44 1120.07 559.59 973.78 679.93 1120.12 670.53
00002715 00000002 742.94 155.46 445.92 670.44 959.10 425.80 1148.65 410.55 1131.81 558.82 986.57 682.12 1132.90 669.88
00002716 00000003 747.62 153.80 446.75 672.53 966.17 427.90 1156.52 413.24 1140.92 561.83 997.26 686.87 1142.19 674.96
00002717 00000004 749.80 158.47 447.35 673.43 970.19 431.83 1160.57 416.83 1145.35 569.60 1003.28 694.19 1145.56 681.57
00002718 00000005 749.49 163.69 446.99 673.54 972.82 438.57 1161.31 423.65 1147.82 577.07 1005.37 699.35 1145.86 686.68
00002719 00000006 748.61 167.54 447.25 674.32 975.24 445.28 1161.40 427.35 1150.72 581.52 1005.47 702.84 1146.58 687.96
00002720 00000007 746.84 172.17 453.04 673.47 977.40 452.62 1167.45 432.74 1154.47 591.85 1001.31 706.91 1150.61 691.02
00002721 00000008 746.84 181.65 458.45 676.76 980.20 466.66 1169.04 436.59 1161.86 609.86 997.93 721.76 1149.20 698.91
00002722 00000009 755.82 179.97 459.22 701.45 984.28 485.42 1173.43 460.49 1163.99 623.80 993.76 729.05 1149.36 710.92
00002723 00000010 759.18 197.75 459.30 693.40 988.03 492.18 1173.13 463.47 1166.48 636.47 997.29 747.88 1152.01 727.09
00002724 00000011 762.25 197.83 457.00 698.33 997.40 485.27 1173.20 463.29 1174.96 629.67 994.73 742.52 1147.68 727.73
00002725 00000012 763.56 188.26 454.12 701.45 1000.13 470.19 1176.53 454.39 1178.23 618.42 994.51 730.96 1150.53 720.21
00002726 00000013 764.25 171.13 457.76 703.34 994.89 455.28 1178.15 442.35 1174.76 592.88 1000.02 706.98 1155.44 698.67
00002727 00000014 761.10 158.49 455.49 698.14 990.95 448.68 1172.31 431.29 1168.63 580.28 1004.68 695.67 1156.46 683.49
00002728 00000015 755.62 156.90 454.49 697.67 984.73 453.19 1171.67 431.82 1164.89 584.69 1000.34 699.03 1155.16 683.27
00002729 00000016 752.38 159.80 451.60 695.04 981.62 454.94 1167.34 434.39 1161.76 586.06 999.39 701.04 1151.72 685.72
00002730 00000017 746.82 171.87 452.89 675.87 975.81 448.21 1160.87 427.23 1154.60 583.09 996.47 701.41 1145.44 685.43
00002731 00000018 741.18 163.16 452.39 675.93 967.06 430.80 1154.47 412.07 1147.99 564.55 991.92 689.29 1141.18 674.75
00002732 00000019 730.29 149.45 453.72 676.76 965.06 415.12 1142.72 401.03 1140.94 543.80 985.79 671.31 1128.51 660.98
00002733 00000020 727.90 140.57 449.65 670.88 957.51 406.27 1134.60 394.49 1127.75 529.44 983.36 660.01 1124.19 650.37
00002734 00000021 725.96 132.97 438.42 672.51 947.54 402.96 1117.17 383.12 1117.67 527.41 969.35 649.94 1112.02 634.41
00002735 00000022 722.85 131.51 437.42 668.12 940.67 400.22 1112.57 387.99 1106.13 524.30 960.28 641.17 1107.07 631.16
00002736 00000023 718.94 126.23 437.24 673.26 933.55 393.10 1107.68 383.38 1099.86 518.64 955.89 637.04 1104.08 628.76
00002737 00000024 715.26 120.45 435.33 682.65 931.42 388.31 1101.19 382.01 1098.94 514.92 948.78 634.62 1095.06 629.37
00002738 00000025 714.40 118.64 433.69 688.74 926.78 385.17 1097.58 382.02 1097.27 511.16 942.43 635.31 1090.36 632.82
00002739 00000026 712.69 117.90 435.09 688.83 924.46 382.07 1095.95 379.93 1096.22 504.92 941.51 632.47 1090.82 630.62
00002740 00000027 711.23 116.55 436.43 687.54 924.63 378.55 1095.95 378.85 1096.45 499.28 942.49 628.11 1091.22 628.18
00002741 00000028 711.24 117.14 435.82 689.50 924.44 379.20 1096.21 378.86 1097.59 500.99 940.89 630.41 1090.55 630.09
00002742 00000029 710.95 116.58 436.25 693.49 925.15 381.90 1096.20 381.43 1097.76 504.77 941.64 634.54 1090.02 634.09
00002743 00000030 710.62 118.35 435.77 692.31 925.42 384.54 1095.41 382.37 1097.80 508.22 943.12 637.51 1089.88 635.63
00002744 00000031 712.41 116.66 434.51 692.86 926.46 383.86 1097.34 380.73 1098.96 507.61 946.79 637.19 1092.96 634.44
00002745 00000032 712.33 113.96 435.24 694.17 926.58 381.98 1097.90 379.81 1098.28 505.44 950.29 635.29 1094.80 632.96
00002746 00000033 711.00 114.90 436.27 691.71 925.46 381.28 1098.11 380.42 1097.22 503.55 950.57 632.77 1095.70 631.25
00002747 00000034 709.16 114.61 437.82 690.85 922.65 379.73 1096.32 378.72 1093.44 499.48 952.24 631.32 1097.07 629.32
00002748 00000035 706.78 113.49 439.90 689.12 917.82 375.98 1094.26 377.67 1087.14 493.65 949.69 626.11 1097.56 626.01
00002749 00000036 704.80 113.75 440.10 683.27 911.76 374.26 1090.62 377.07 1079.05 490.96 942.76 621.88 1092.64 622.52
00002750 00000037 707.64 110.77 439.06 687.37 898.22 375.62 1092.36 372.45 1070.85 483.17 945.41 625.39 1101.13 622.49
00002751 00000038 697.93 121.32 442.67 671.04 900.54 380.38 1095.16 378.34 1074.35 492.18 938.13 633.86 1094.43 631.72
00002752 00000039 697.24 118.87 441.32 678.53 899.12 381.58 1092.35 378.48 1069.44 496.41 935.08 636.44 1090.61 633.44
00002753 00000040 696.87 120.92 440.71 679.41 895.82 385.73 1087.39 379.18 1063.36 500.64 931.42 638.98 1087.92 633.01
00002754 00000041 697.06 124.41 439.42 677.60 893.03 388.52 1084.67 381.64 1060.09 504.07 923.27 639.87 1082.59 634.19
00002755 00000042 696.56 124.35 439.88 681.70 890.68 392.88 1083.05 383.37 1056.34 510.94 920.94 645.07 1080.81 637.32
00002756 00000043 687.40 129.05 445.31 677.45 891.26 398.09 1078.41 386.84 1055.12 516.65 920.18 644.30 1076.06 635.44
00002757 00000044 685.93 132.20 444.81 674.17 883.84 400.29 1076.42 388.89 1046.58 520.01 917.52 649.04 1074.59 639.25
00002758 00000045 683.44 134.70 447.65 672.62 881.15 401.26 1075.19 389.77 1043.93 522.02 917.21 652.10 1073.87 641.88
00002759 00000046 685.74 135.48 445.71 675.52 884.10 405.78 1077.37 393.83 1047.99 528.07 926.40 663.03 1075.84 652.18
00002760 00000047 686.62 145.78 440.07 671.04 879.57 415.82 1076.93 404.62 1044.55 541.71 924.21 674.34 1073.60 663.69
00002761 00000048 687.26 147.36 440.07 679.07 876.39 428.94 1071.30 416.30 1034.05 559.37 913.12 680.70 1065.15 669.51
00002762 00000049 687.65 147.63 440.76 675.79 875.01 429.52 1071.04 415.90 1031.08 559.68 911.61 678.21 1066.28 666.04
00002763 00000050 688.20 147.39 444.28 666.34 877.70 421.94 1081.35 409.59 1043.02 549.47 917.57 672.31 1076.47 660.90
00002764 00000051 697.79 141.13 440.64 680.27 884.70 423.96 1080.34 412.93 1046.65 550.22 916.50 667.88 1076.88 659.09
00002765 00000052 702.45 145.81 442.68 677.15 890.82 426.23 1084.85 415.55 1049.53 552.80 926.01 670.99 1080.42 662.63
00002766 00000053 706.70 149.02 443.72 675.13 894.88 431.10 1089.56 418.53 1053.55 557.47 934.24 678.36 1084.52 668.46
00002767 00000054 708.33 146.54 449.54 676.08 905.85 439.14 1099.37 422.54 1061.65 560.66 941.33 681.03 1089.30 667.87
00002768 00000055 713.37 149.67 447.18 674.86 916.14 448.19 1105.41 429.21 1072.32 566.54 949.70 687.38 1093.41 672.63
00002769 00000056 718.86 162.05 444.08 675.89 931.97 460.29 1116.48 444.14 1089.90 585.66 947.08 695.00 1091.20 683.39
00002770 00000057 722.30 172.61 445.43 678.48 938.29 467.76 1122.88 451.19 1098.88 595.31 946.97 702.09 1094.77 690.82
00002771 00000058 726.89 172.67 441.11 679.27 944.57 470.27 1126.17 449.68 1106.88 595.00 951.83 701.08 1100.80 686.59
00002772 00000059 719.06 169.49 449.86 680.63 946.55 467.20 1131.58 450.76 1119.98 596.01 944.87 695.44 1100.55 684.91
00002773 00000060 723.47 171.66 444.76 680.09 946.81 474.56 1126.40 454.65 1107.69 599.40 952.08 704.00 1098.23 690.05
00002774 00000061 723.17 172.72 444.75 675.97 944.82 476.23 1127.23 455.26 1105.88 599.81 962.30 710.68 1102.87 695.43
00002775 00000062 713.00 165.13 452.88 676.22 943.01 464.87 1127.43 445.85 1116.35 587.38 966.98 700.94 1107.46 686.55
00002776 00000063 718.42 160.85 445.73 677.76 945.13 458.98 1117.93 435.97 1106.68 576.61 970.15 696.88 1102.76 679.89
00002777 00000064 712.78 152.35 450.24 685.67 933.39 447.19 1113.91 430.40 1097.80 570.65 953.39 691.03 1096.65 678.84
00002778 00000065 705.00 145.92 449.89 690.71 922.31 433.89 1103.37 418.66 1089.25 560.36 943.12 684.00 1090.39 673.01
00002779 00000066 694.65 137.34 445.12 691.22 906.15 419.95 1091.82 405.26 1079.35 548.53 930.01 672.16 1085.65 660.75
00002780 00000067 681.68 141.69 452.93 668.59 896.52 408.01 1089.47 391.54 1071.11 533.24 921.58 659.67 1080.70 647.27
00002781 00000068 674.95 139.85 449.16 669.14 886.83 403.65 1074.96 388.21 1057.48 525.16 914.97 652.78 1071.56 640.46
00002782 00000069 674.63 132.13 441.29 683.07 877.70 402.68 1065.02 383.07 1049.23 530.03 905.93 657.28 1063.46 641.29
00002783 00000070 670.87 132.29 441.70 685.82 873.92 401.68 1060.48 383.65 1046.14 528.91 903.70 658.64 1060.61 643.87
00002784 00000071 671.78 133.50 441.02 686.16 875.95 403.91 1061.57 384.67 1047.68 532.28 905.62 660.23 1061.86 644.30
00002785 00000072 667.77 140.49 447.25 676.92 881.36 408.11 1067.88 388.45 1053.59 531.48 914.27 661.19 1065.90 645.14
00002786 00000073 673.77 138.00 445.35 676.46 886.22 409.34 1071.76 388.32 1057.62 533.02 921.86 662.32 1071.85 645.03
00002787 00000074 676.24 138.45 446.42 671.21 887.57 410.99 1074.41 388.84 1059.73 533.95 923.65 662.69 1076.40 644.67
00002788 00000075 678.65 137.86 445.23 672.41 889.74 409.85 1076.48 389.33 1061.59 534.37 926.41 662.99 1079.05 646.41
00002789 00000076 681.12 136.82 444.07 678.15 890.77 407.72 1079.32 390.38 1062.33 534.83 929.56 668.39 1079.55 654.24
00002790 00000077 679.74 135.88 445.00 679.89 891.48 408.26 1080.20 393.54 1062.56 537.14 929.05 669.83 1077.37 657.64
00002791 00000078 677.40 135.29 445.38 684.07 891.99 408.12 1078.20 394.91 1062.38 535.98 928.25 669.81 1073.96 658.98
00002792 00000079 674.26 135.20 446.51 687.16 892.00 409.46 1078.11 396.56 1063.14 537.19 924.54 669.95 1070.11 659.61
00002793 00000080 672.53 134.05 447.34 685.22 891.29 408.13 1077.62 395.79 1062.03 535.67 925.58 669.20 1070.16 659.09
00002794 00000081 671.53 135.01 446.67 678.35 891.76 407.71 1076.54 393.69 1063.84 535.66 926.39 667.43 1070.42 655.86
00002795 00000082 670.64 134.50 446.58 679.33 891.09 406.83 1074.86 392.24 1062.60 535.34 927.31 668.06 1069.84 655.95
00002796 00000083 668.74 133.88 447.69 684.72 889.78 406.49 1075.22 393.10 1062.34 536.46 925.39 670.72 1070.00 659.60
00002797 00000084 666.16 135.95 448.37 687.63 889.84 408.15 1075.77 397.79 1062.67 540.95 919.60 671.71 1065.17 663.11
00002798 00000085 661.48 140.03 450.34 692.97 891.06 411.65 1073.05 399.42 1065.50 545.04 916.89 675.71 1059.05 665.82
00002799 00000086 659.67 140.69 450.60 697.86 889.79 409.54 1070.37 400.00 1063.08 542.15 912.16 673.20 1055.81 665.70
00002800 00000087 659.30 138.02 450.45 701.63 888.98 403.87 1068.21 397.33 1061.13 537.32 904.85 665.40 1052.87 660.66
00002801 00000088 662.37 124.73 448.39 701.96 881.59 400.83 1062.94 383.62 1057.42 536.52 896.11 660.34 1053.75 647.25
00002802 00000089 662.35 126.04 447.44 696.08 880.19 398.80 1061.30 384.30 1053.15 533.98 898.37 658.64 1053.65 647.35
00002803 00000090 652.01 136.15 455.44 692.24 879.97 401.07 1066.44 395.16 1051.14 536.67 897.60 661.97 1050.23 657.30
00002804 00000091 648.58 137.78 454.55 698.59 877.10 401.06 1061.89 398.10 1049.69 535.35 896.28 664.69 1047.24 661.74
00002805 00000092 645.57 140.32 454.38 691.82 873.62 400.23 1059.65 397.57 1046.66 532.59 893.55 662.70 1045.11 659.62
00002806 00000093 646.68 131.96 445.73 687.37 869.03 402.36 1043.29 389.10 1039.92 534.88 886.06 657.67 1035.87 647.26
00002807 00000094 643.72 128.91 445.94 684.29 866.32 399.61 1040.83 387.61 1035.42 532.84 883.74 652.18 1033.80 642.82
00002808 00000095 637.51 124.89 448.87 691.27 863.60 399.30 1036.79 388.54 1033.13 532.81 878.62 651.77 1029.44 643.29
00002809 00000096 635.39 121.71 449.26 706.37 859.66 396.59 1033.76 390.78 1034.02 529.03 868.91 654.82 1024.74 650.53
00002810 00000097 632.50 122.00 449.11 709.14 857.56 394.63 1031.70 389.12 1034.21 528.47 864.07 656.07 1020.47 652.25
00002811 00000098 631.25 120.48 448.89 710.55 857.00 393.58 1030.79 388.85 1032.66 527.51 864.43 656.22 1018.91 652.84
00002812 00000099 628.45 118.87 449.60 702.90 855.02 395.37 1031.14 387.98 1027.84 529.15 871.09 654.66 1021.00 648.45
00002813 00000100 632.90 111.32 450.03 698.31 845.64 398.27 1037.02 385.60 1022.00 520.67 879.04 647.93 1033.39 637.90
00002814 00000101 628.80 110.74 450.82 698.61 843.25 397.33 1033.61 385.21 1019.38 520.59 875.95 647.24 1029.58 637.55
00002815 00000102 627.09 112.90 449.11 696.94 840.10 397.10 1031.51 386.33 1014.49 520.69 873.09 647.06 1027.01 638.41
00002816 00000103 623.96 110.82 452.84 700.18 836.51 396.57 1029.65 386.09 1011.10 519.86 868.42 647.56 1022.95 639.25
00002817 00000104 620.39 112.02 449.54 699.83 832.74 396.68 1025.03 386.93 1007.84 520.04 861.59 645.52 1017.96 637.77
00002818 00000105 615.62 125.52 448.00 685.25 832.55 400.50 1019.33 386.68 1004.28 527.86 854.29 654.09 1008.87 643.69
00002819 00000106 609.54 130.19 449.74 682.32 830.56 401.28 1015.76 390.83 1002.07 530.00 848.99 653.23 1003.91 646.51
00002820 00000107 608.04 134.92 448.83 680.25 827.75 405.37 1014.52 392.99 1001.48 534.32 849.88 659.13 1003.97 650.46
00002821 00000108 607.43 136.11 447.97 679.28 824.82 407.43 1013.04 395.43 998.18 536.51 850.59 662.71 1003.71 653.91
00002822 00000109 604.64 137.35 447.41 671.07 822.18 409.34 1010.02 396.56 994.66 538.37 850.39 661.63 1001.41 651.75
00002823 00000110 603.49 137.22 448.38 673.01 819.99 408.85 1006.90 395.69 990.68 536.49 850.76 661.18 1002.15 650.65
00002824 00000111 599.76 138.55 449.43 676.32 813.96 405.45 1002.38 396.60 982.79 533.65 847.25 663.58 996.35 656.26
00002825 00000112 590.42 142.05 451.56 680.56 807.97 403.70 995.20 398.68 974.91 533.70 835.63 663.18 984.06 658.80
00002826 00000113 591.12 136.86 445.30 690.83 803.03 406.20 983.63 397.71 969.58 539.48 826.36 666.23 974.53 659.33
00002827 00000114 587.36 135.14 442.83 692.38 798.21 407.38 978.23 399.23 964.54 539.35 823.35 668.03 968.66 661.41
00002828 00000115 580.12 134.17 443.69 691.62 793.09 407.30 971.39 397.85 959.77 538.08 817.42 664.34 962.29 656.49
00002829 00000116 573.82 130.13 446.41 691.42 790.27 404.02 967.57 396.17 956.05 535.50 814.91 659.49 959.81 652.70
00002830 00000117 566.05 126.48 449.98 689.72 785.58 400.21 962.54 395.15 950.20 533.87 806.17 652.77 954.06 648.35
00002831 00000118 558.63 124.05 453.37 688.74 780.20 393.85 961.16 389.82 944.99 529.52 798.23 647.79 951.73 644.04
00002832 00000119 556.14 121.94 450.58 688.18 775.17 389.26 955.30 385.52 936.85 523.56 793.00 642.51 946.81 638.65
00002833 00000120 550.87 117.77 450.37 694.45 768.49 385.21 948.81 382.67 931.03 519.47 784.44 641.25 939.94 638.31
00002834 00000121 548.95 116.20 451.40 697.74 764.77 384.97 945.31 380.16 927.47 518.81 782.28 642.69 937.93 637.87
00002835 00000122 546.01 113.06 451.42 699.47 762.88 387.71 945.71 381.45 925.86 520.17 788.42 646.13 939.32 639.59
00002836 00000123 554.59 110.73 448.39 695.92 757.22 391.25 952.73 376.88 926.51 512.82 808.40 647.45 956.98 634.73
00002837 00000124 556.39 109.77 447.25 698.67 757.35 393.19 953.84 377.87 928.09 513.22 815.13 653.01 961.52 639.13
00002838 00000125 548.52 111.01 446.83 704.34 764.25 390.97 945.17 381.15 929.05 521.15 816.58 661.94 950.76 651.60
00002839 00000126 548.85 114.18 445.31 705.07 762.83 392.58 943.73 381.45 929.75 524.23 813.84 666.61 948.87 655.53
00002840 00000127 547.95 121.29 446.97 702.48 760.92 399.95 943.51 385.96 929.86 535.30 799.92 669.75 942.47 657.31
00002841 00000128 545.17 123.50 451.12 698.12 760.26 403.07 944.47 387.24 929.84 537.83 795.56 667.28 942.04 653.49
00002842 00000129 545.30 123.35 449.72 694.59 759.64 401.17 943.50 384.55 928.86 534.64 791.38 661.61 941.46 647.05
00002843 00000130 544.53 121.76 450.29 691.75 757.98 396.86 944.20 382.13 927.16 529.65 786.22 655.06 940.63 642.07
00002844 00000131 545.45 125.00 451.71 676.11 758.03 393.98 950.96 377.55 930.09 522.52 791.78 650.69 945.40 637.47
00002845 00000132 545.63 122.63 452.50 676.14 758.85 393.35 951.39 377.97 930.35 520.19 793.55 648.63 946.77 636.08
00002846 00000133 550.75 114.14 449.56 693.19 755.57 395.20 950.05 380.06 928.11 518.85 795.92 645.84 949.38 633.33
00002847 00000134 547.84 120.20 446.82 693.30 760.04 399.17 944.29 384.51 926.85 531.72 794.00 658.94 942.60 645.86
00002848 00000135 550.29 122.73 446.02 692.77 762.67 400.46 944.84 387.51 929.25 533.42 799.28 661.92 944.01 650.26
00002849 00000136 553.16 121.05 444.79 693.34 765.32 398.87 947.48 385.88 931.97 529.06 804.91 659.95 948.30 647.97
00002850 00000137 555.57 115.57 444.43 694.26 771.30 393.26 950.57 382.79 934.50 525.40 812.12 654.87 951.73 644.41
00002851 00000138 565.17 114.83 443.39 684.98 769.22 392.35 958.03 376.30 937.34 511.42 820.69 644.07 963.74 630.56
00002852 00000139 565.64 114.65 444.92 680.79 771.42 390.96 959.81 376.20 939.18 510.29 818.70 639.92 961.84 627.81
00002853 00000140 567.18 114.26 445.22 685.40 774.07 392.61 961.11 379.51 942.57 513.82 811.00 640.38 958.87 630.02
00002854 00000141 559.55 121.80 443.16 692.88 776.80 389.22 952.18 384.09 943.61 528.75 797.49 651.84 941.21 647.31
00002855 00000142 563.77 123.47 441.33 699.12 778.11 390.71 950.96 385.06 948.30 527.16 789.59 653.19 939.73 648.84
00002856 00000143 564.87 123.13 442.37 700.89 779.10 386.86 953.68 382.25 953.03 524.13 785.88 651.26 939.79 648.25
00002857 00000144 566.15 120.14 442.26 701.92 780.33 382.83 955.69 381.43 954.95 518.75 784.86 645.61 941.60 645.01
00002858 00000145 566.43 114.56 443.00 703.28 781.64 378.00 957.26 380.16 955.12 510.94 786.81 636.86 944.69 638.79
00002859 00000146 569.13 107.01 447.57 695.95 777.66 381.81 962.84 376.71 948.92 501.57 800.98 625.77 958.22 622.63
00002860 00000147 569.70 107.60 446.73 685.90 776.28 384.00 964.14 376.66 945.40 503.48 800.95 623.41 959.56 618.01
00002861 00000148 570.26 111.38 445.05 681.23 775.76 387.43 963.19 377.06 942.69 506.59 807.42 627.67 960.93 619.61
00002862 00000149 562.76 123.13 443.34 680.47 770.47 392.05 954.37 386.53 932.10 522.79 793.11 641.22 945.65 635.83
00002863 00000150 561.59 127.78 441.71 686.59 752.92 403.76 938.52 390.70 916.23 526.77 782.57 653.18 938.11 642.24
00002864 00000151 557.27 121.81 440.34 698.04 733.72 411.63 927.51 393.57 897.01 534.43 769.43 660.08 934.29 644.99
00002865 00000152 544.19 136.62 446.79 676.38 717.06 422.02 924.85 397.97 879.41 539.91 761.70 669.53 928.00 647.72
00002866 00000153 541.13 138.09 442.23 682.40 707.39 430.69 910.34 409.78 857.59 555.70 746.71 677.45 907.99 659.10
00002867 00000154 534.51 141.29 450.01 683.33 692.53 435.81 903.96 413.53 842.38 564.30 728.46 677.48 901.99 658.85
00002868 00000155 532.44 142.81 452.19 685.38 686.62 437.88 899.97 417.56 834.50 565.61 719.22 674.88 899.30 658.11
00002869 00000156 534.97 144.42 452.39 685.57 688.06 439.10 902.37 422.40 833.31 568.98 719.12 678.49 896.94 664.44
00002870 DELETE   540.26 146.94 454.46 688.18 700.72 445.65 912.61 431.12 841.80 573.83 730.24 682.67 906.75 669.94
00002871 DELETE   552.36 148.28 451.45 688.61 710.08 452.55 928.22 440.38 856.22 574.37 738.63 681.42 917.90 672.13
00002872 00000159 560.58 147.73 448.05 697.70 717.06 453.12 934.91 439.91 866.62 575.92 747.70 688.22 926.16 678.09
00002873 DELETE   566.78 153.03 450.03 693.21 727.54 450.91 939.85 437.75 877.05 567.89 764.31 689.53 933.85 679.33
00002874 00000161 570.84 149.08 449.90 686.53 734.49 441.77 939.95 429.36 880.78 556.21 773.70 680.90 935.37 671.34
00002875 DELETE   571.82 141.23 449.44 690.59 736.45 429.99 939.70 420.47 884.29 546.00 774.86 674.48 936.51 667.17
00002876 00000163 574.22 135.07 448.31 698.14 741.13 422.80 943.41 413.35 892.02 541.16 775.86 670.30 942.27 662.67
00002877 00000164 575.03 133.11 450.62 706.31 751.02 420.68 950.83 408.26 909.37 540.71 779.13 669.98 948.89 660.23
00002878 00000165 578.18 132.45 451.24 706.21 763.94 424.48 958.66 412.60 923.01 545.36 785.69 671.14 952.41 662.17
00002879 00000166 582.52 141.35 451.89 697.37 778.86 435.24 966.65 419.89 933.29 558.25 797.89 677.47 956.06 665.92
00002880 00000167 587.45 147.21 450.39 692.29 793.55 440.50 975.82 424.86 951.03 561.60 811.81 679.90 965.21 667.97
