Video ID: 	6ry651I1StM
H: 	1080
W: 	1920
FPS: 	23.976023976023978

FRAME INDEX X0 Y0 W H [Landmarks (5 Points)]

00001156 00000000 820.44 216.64 371.00 544.06 917.59 425.12 1091.68 423.01 1011.58 534.70 934.67 619.05 1086.25 617.20
00001157 00000001 822.51 211.06 372.69 550.41 921.05 422.49 1095.00 418.13 1016.27 528.42 940.17 618.60 1088.57 614.81
00001158 00000002 822.24 207.96 374.37 537.94 927.02 410.61 1100.07 409.33 1020.06 520.84 948.86 609.66 1093.33 609.61
00001159 00000003 820.80 203.56 374.01 523.67 927.81 404.73 1096.16 401.82 1021.44 510.91 951.02 598.51 1091.12 597.65
00001160 00000004 822.13 199.04 374.20 532.08 929.99 397.10 1095.50 398.12 1020.76 500.16 949.25 591.62 1089.14 594.07
00001161 00000005 823.94 198.21 373.07 534.06 930.23 395.50 1097.54 396.11 1021.20 498.86 950.71 593.50 1090.52 595.62
00001162 00000006 823.74 198.72 373.57 531.44 930.41 397.26 1097.55 397.82 1022.09 503.10 951.64 594.39 1091.27 596.44
00001163 DELETE   824.13 202.50 376.37 538.81 932.22 404.93 1104.07 405.48 1022.87 508.93 950.66 600.76 1096.77 602.38
00001164 00000008 825.91 201.63 374.92 550.18 937.04 413.64 1105.74 416.72 1027.45 516.71 951.68 605.78 1096.88 609.23
00001165 00000009 826.52 204.83 373.78 551.36 937.60 421.16 1106.33 422.58 1029.36 526.89 954.73 615.18 1096.95 617.16
00001166 00000010 826.37 208.14 375.05 555.93 936.29 422.89 1107.42 421.20 1030.42 529.06 955.00 620.32 1100.21 619.39
00001167 00000011 825.59 206.12 376.10 558.58 935.14 420.64 1106.73 418.82 1030.00 527.17 953.83 619.17 1100.37 618.20
00001168 00000012 823.32 207.00 376.36 543.09 934.76 417.76 1104.32 417.54 1028.96 523.26 953.56 610.08 1098.97 610.68
00001169 00000013 823.47 204.52 377.35 550.64 935.28 414.36 1104.25 415.38 1028.80 519.42 953.40 609.44 1099.22 611.04
00001170 00000014 823.04 204.42 375.45 550.16 934.16 411.00 1103.00 412.05 1028.16 512.97 953.10 607.27 1099.06 608.86
00001171 00000015 823.50 203.84 375.22 557.11 934.40 408.83 1104.55 410.56 1029.01 511.36 954.12 610.20 1099.81 612.27
00001172 00000016 823.39 203.18 375.13 558.36 934.08 408.48 1104.30 410.06 1028.77 511.57 954.38 610.98 1099.63 612.91
00001173 00000017 822.26 204.23 376.16 550.90 933.91 408.51 1103.18 410.59 1028.67 511.18 954.41 607.86 1098.25 610.24
00001174 00000018 821.56 204.12 374.86 541.39 933.40 407.22 1100.84 409.76 1027.06 511.05 951.59 601.27 1095.39 604.23
00001175 00000019 819.52 202.54 375.82 540.94 930.69 409.10 1099.79 411.87 1023.90 514.47 948.20 601.96 1093.82 605.15
00001176 00000020 819.45 205.79 375.98 541.21 929.54 411.30 1099.75 413.60 1022.90 518.30 947.07 605.43 1092.35 608.25
00001177 00000021 818.21 205.58 376.56 543.67 927.80 412.82 1097.85 415.48 1020.66 520.10 944.35 606.53 1090.07 609.69
00001178 00000022 817.59 206.19 376.70 542.50 925.91 413.89 1097.67 415.44 1019.30 521.34 943.64 607.59 1090.63 609.81
00001179 00000023 816.42 205.51 376.86 543.02 924.65 412.51 1096.11 413.99 1017.48 518.29 941.55 604.31 1090.67 606.45
00001180 00000024 814.74 202.51 376.89 544.34 923.77 409.27 1093.73 412.35 1015.06 513.11 939.17 600.57 1087.43 604.01
00001181 00000025 816.05 202.90 376.18 550.24 924.41 405.90 1093.02 410.65 1013.96 509.88 938.48 599.65 1086.90 604.45
00001182 00000026 817.68 199.58 375.40 556.96 925.33 403.82 1093.44 408.58 1014.97 508.26 939.33 601.69 1086.24 606.61
00001183 00000027 818.66 199.33 375.44 562.23 923.95 404.58 1096.42 408.91 1014.57 509.29 940.43 607.55 1089.00 611.97
00001184 00000028 818.51 201.56 376.97 563.13 924.30 407.47 1098.42 411.46 1016.08 511.90 941.24 609.92 1092.19 613.85
00001185 00000029 819.03 202.62 377.50 555.39 927.16 408.65 1099.29 412.05 1019.38 515.08 945.63 609.72 1091.26 613.23
00001186 00000030 818.65 202.73 377.65 547.50 926.75 410.94 1099.05 414.28 1018.94 517.13 945.70 608.42 1089.94 612.01
00001187 00000031 818.53 203.72 377.08 545.33 926.51 411.88 1098.24 415.43 1018.16 518.48 944.77 608.21 1088.38 612.06
00001188 00000032 817.00 203.20 377.53 546.24 925.22 409.41 1096.72 414.00 1016.48 515.11 941.06 604.53 1087.35 609.23
00001189 00000033 815.80 200.99 376.43 550.82 923.79 406.46 1095.73 411.61 1014.86 510.67 938.32 602.03 1087.93 607.27
00001190 00000034 815.48 199.21 376.33 554.39 922.51 402.95 1094.92 408.31 1013.49 505.80 937.19 601.23 1087.00 606.80
00001191 00000035 814.31 196.03 376.81 558.04 920.84 399.45 1093.12 403.68 1013.24 503.85 937.57 601.39 1086.14 605.96
00001192 00000036 813.52 192.85 376.89 560.13 920.15 399.25 1091.97 403.32 1012.36 502.32 937.10 601.13 1084.41 605.61
00001193 00000037 812.68 191.65 377.91 559.21 920.19 402.60 1093.12 406.80 1009.89 503.03 934.87 600.95 1083.51 605.61
00001194 00000038 811.83 191.75 378.28 557.40 921.25 405.49 1094.01 410.99 1011.04 502.70 934.10 600.05 1082.61 605.86
00001195 00000039 810.60 192.46 378.30 550.22 920.14 406.31 1092.97 411.09 1011.32 505.15 934.75 600.60 1080.70 606.11
00001196 00000040 809.58 193.77 378.74 543.39 917.99 404.39 1091.02 408.68 1009.27 507.01 932.86 600.37 1076.46 605.72
00001197 00000041 809.19 195.28 377.67 535.64 917.36 405.57 1086.10 407.65 1007.93 507.62 935.11 598.81 1074.31 602.36
00001198 00000042 809.35 195.41 376.48 532.45 917.32 405.62 1085.42 407.61 1008.34 507.88 935.18 598.06 1073.27 601.62
00001199 00000043 809.97 194.64 376.26 535.09 917.02 403.84 1086.31 406.49 1008.74 506.51 935.29 598.92 1073.99 603.02
00001200 00000044 810.52 194.16 377.05 537.12 917.51 401.42 1086.62 404.49 1009.07 504.60 936.51 599.73 1073.03 604.18
00001201 00000045 810.67 190.32 377.08 538.66 918.25 399.36 1087.42 403.50 1009.81 504.38 936.92 600.34 1070.76 605.68
00001202 00000046 811.41 191.27 377.03 545.31 916.71 398.72 1089.00 402.99 1009.92 502.36 936.70 603.13 1074.53 608.45
00001203 00000047 815.21 192.00 373.82 565.80 919.13 396.84 1092.91 400.90 1010.72 500.71 937.08 606.93 1082.03 611.54
00001204 00000048 816.52 190.73 373.10 570.92 919.90 395.44 1094.78 400.80 1010.39 498.95 935.01 606.98 1081.73 612.65
00001205 00000049 817.49 193.19 373.40 562.27 922.34 397.81 1098.55 403.95 1010.70 497.61 932.92 602.54 1082.77 609.30
00001206 00000050 817.00 193.47 374.56 556.64 921.80 391.76 1098.37 398.47 1009.71 495.27 932.37 597.73 1081.78 604.89
00001207 00000051 817.75 187.23 373.65 570.12 922.76 383.66 1096.31 391.84 1005.87 490.84 929.21 595.14 1077.31 603.07
00001208 00000052 817.50 179.62 373.36 577.48 923.41 381.17 1091.44 388.73 1003.57 486.32 927.23 591.97 1073.69 599.26
00001209 00000053 814.97 178.44 377.26 557.29 920.79 380.35 1089.54 386.96 1002.31 486.43 927.86 587.10 1069.23 594.12
00001210 00000054 814.83 177.39 375.93 547.64 918.67 378.70 1086.14 384.91 998.85 485.05 927.99 579.91 1067.98 586.30
00001211 00000055 815.54 177.38 375.84 547.21 918.02 376.71 1083.49 384.50 996.10 483.28 926.12 574.71 1065.38 582.15
00001212 00000056 815.97 177.08 376.06 549.16 918.86 376.23 1082.97 384.43 996.01 483.26 925.75 573.33 1065.81 581.05
00001213 00000057 816.18 177.98 375.74 546.66 918.95 376.14 1082.60 384.55 995.21 484.12 924.91 573.18 1063.77 581.16
00001214 00000058 816.92 178.30 375.82 548.75 919.91 377.53 1083.56 384.86 996.31 484.92 927.33 576.27 1063.64 583.36
00001215 00000059 817.50 180.97 375.20 546.63 920.04 377.93 1083.80 384.64 996.05 485.41 926.98 578.50 1062.37 585.37
00001216 00000060 818.32 182.25 374.82 544.21 920.68 378.96 1085.40 385.18 996.91 486.46 928.57 579.05 1064.38 585.55
00001217 00000061 818.22 183.22 373.98 537.14 920.93 380.20 1085.80 386.89 997.59 485.55 927.33 577.85 1063.81 584.99
00001218 00000062 819.81 180.19 374.69 538.28 921.96 380.12 1087.74 386.38 1000.06 486.82 931.04 580.07 1065.45 586.90
00001219 00000063 819.32 181.97 378.34 549.89 922.39 381.60 1091.85 386.50 1004.08 489.97 935.93 589.95 1071.92 595.40
00001220 00000064 823.29 180.60 378.84 568.89 925.85 377.70 1096.59 389.09 1014.58 487.02 935.57 595.31 1071.72 606.32
00001221 00000065 825.53 182.53 379.09 572.60 929.69 380.92 1099.85 390.79 1022.44 487.52 942.13 596.70 1086.59 605.88
00001222 00000066 827.57 184.09 380.33 575.73 933.02 382.64 1101.78 391.97 1026.03 489.27 945.99 598.03 1089.31 606.67
00001223 00000067 828.41 183.78 380.39 570.70 933.55 382.80 1106.68 393.34 1029.68 489.95 946.70 599.46 1092.89 609.00
00001224 00000068 828.32 191.93 375.02 555.11 932.67 388.27 1108.56 392.75 1023.39 488.69 948.86 599.53 1092.80 604.35
00001225 00000069 826.92 192.09 377.91 536.85 932.40 389.53 1106.56 391.39 1023.29 492.38 953.17 595.65 1091.15 598.54
00001226 00000070 827.07 189.99 377.85 543.42 932.93 388.55 1106.69 391.55 1023.27 491.68 953.13 596.07 1091.16 599.72
00001227 00000071 827.00 192.21 377.60 540.86 932.76 389.41 1105.36 391.69 1022.55 492.72 953.74 595.79 1090.55 598.87
00001228 00000072 825.65 192.69 378.10 540.68 932.11 390.05 1105.49 394.12 1022.20 493.04 952.08 596.39 1089.82 601.04
00001229 00000073 823.08 195.54 378.69 539.72 929.68 391.70 1104.20 396.51 1019.40 494.22 949.54 598.07 1088.10 603.39
00001230 00000074 821.94 195.72 379.21 547.24 929.69 400.75 1102.04 406.20 1017.70 500.88 947.18 602.66 1085.86 608.56
00001231 00000075 819.66 198.48 379.70 543.95 928.26 406.39 1099.89 409.87 1015.28 507.94 946.05 607.28 1081.32 611.72
00001232 00000076 818.84 199.13 379.87 545.01 925.80 409.06 1099.51 412.58 1013.68 514.63 945.04 611.70 1081.99 615.96
00001233 00000077 818.70 200.75 379.13 544.04 923.32 413.46 1096.91 416.62 1009.55 521.54 943.68 616.62 1079.26 620.78
00001234 00000078 818.70 202.94 378.14 552.71 920.90 417.74 1096.96 420.00 1008.62 526.10 943.04 625.31 1080.69 628.78
00001235 00000079 820.25 202.42 376.81 563.47 919.22 421.92 1097.51 421.16 1013.30 526.50 938.12 627.77 1083.71 627.57
00001236 00000080 819.45 203.50 377.10 563.16 918.30 422.82 1097.63 423.63 1013.00 529.30 935.62 627.76 1084.34 628.93
00001237 00000081 818.46 205.64 377.20 559.44 918.12 424.58 1097.90 426.90 1013.29 532.91 933.09 627.78 1084.41 630.36
00001238 00000082 816.62 205.08 378.31 567.53 918.42 427.66 1097.23 432.73 1013.72 536.26 931.14 630.48 1083.47 635.03
00001239 00000083 813.56 204.26 380.43 579.42 917.71 430.82 1096.30 436.58 1013.26 539.84 932.14 638.40 1081.68 643.02
00001240 00000084 810.11 211.78 384.34 582.04 915.75 431.68 1094.26 436.26 1013.41 542.42 931.84 643.61 1081.21 647.19
00001241 00000085 809.86 214.61 382.97 576.91 913.29 435.19 1091.08 436.64 1011.76 547.40 932.19 647.10 1081.88 648.20
00001242 00000086 809.60 212.84 382.04 571.54 913.15 436.13 1089.01 437.35 1009.65 547.59 931.84 642.51 1079.21 643.52
00001243 00000087 809.02 212.36 381.51 567.06 915.52 433.38 1089.01 435.92 1012.96 545.39 933.08 636.24 1078.69 638.33
00001244 00000088 810.79 208.39 379.84 555.74 913.69 428.33 1090.56 432.03 1010.46 539.76 931.22 628.15 1078.74 630.76
00001245 00000089 810.40 205.13 381.39 544.79 918.10 419.03 1095.18 422.37 1011.60 532.54 937.27 615.82 1084.59 619.55
00001246 00000090 813.11 199.57 383.30 549.02 921.31 414.00 1097.60 417.57 1013.86 524.52 939.89 611.85 1086.71 615.80
00001247 00000091 813.93 196.57 382.80 551.39 923.15 407.49 1098.18 411.92 1015.65 515.75 943.23 608.82 1086.63 613.31
00001248 00000092 813.30 192.71 382.38 555.88 921.92 401.28 1095.63 406.62 1013.70 507.36 940.71 603.64 1084.12 609.03
00001249 00000093 812.82 189.90 381.40 562.52 919.49 398.81 1093.63 403.78 1011.06 503.23 936.60 601.93 1083.52 607.17
00001250 00000094 811.91 188.78 381.74 565.26 918.46 396.27 1092.50 401.45 1010.01 499.87 932.57 598.59 1084.01 603.98
00001251 00000095 812.79 183.82 381.20 558.36 918.73 394.14 1092.40 398.52 1009.82 496.87 936.07 595.89 1082.72 600.83
00001252 00000096 813.87 181.75 380.29 546.98 919.77 395.32 1092.24 398.62 1010.32 498.37 939.42 596.77 1080.41 600.98
00001253 00000097 815.92 181.61 379.91 548.70 920.58 394.77 1095.27 397.08 1011.91 496.71 941.90 599.86 1084.06 603.10
00001254 00000098 818.02 184.53 379.93 552.33 925.48 394.92 1097.82 395.76 1018.41 495.60 947.10 597.85 1091.11 599.70
00001255 00000099 819.98 185.00 380.31 552.53 928.97 394.91 1102.66 396.01 1024.70 495.00 950.57 598.24 1096.45 600.15
00001256 00000100 823.56 190.85 379.20 549.29 932.68 397.50 1105.90 397.84 1028.85 495.70 953.88 597.99 1100.99 599.28
00001257 00000101 826.10 184.92 384.71 565.70 936.63 392.34 1111.26 400.52 1037.42 499.66 953.15 601.47 1104.92 608.33
CROP_BBOX: 532 0 1434 922
