Video ID: 	-oLpnrBpBYg
H: 	1080
W: 	1920
FPS: 	25.0

FRAME INDEX X0 Y0 W H [Landmarks (5 Points)]

00054043 00000000 1139.29 115.35 379.88 565.88 1165.74 368.74 1294.74 362.48 1176.60 460.02 1197.38 560.77 1294.63 554.96
00054044 00000001 1140.63 116.46 379.81 566.06 1165.85 368.96 1295.06 362.25 1176.49 460.56 1197.64 562.65 1294.18 556.46
00054045 00000002 1141.34 118.49 379.52 565.94 1166.34 366.72 1295.33 360.01 1175.92 459.45 1198.51 564.82 1293.46 558.56
00054046 00000003 1141.09 125.99 378.52 561.97 1167.18 364.72 1295.05 357.23 1174.79 456.06 1199.85 564.84 1290.03 557.70
00054047 00000004 1137.18 120.87 380.18 567.44 1171.80 362.56 1297.46 348.23 1168.84 449.74 1203.76 566.38 1294.78 553.70
00054048 00000005 1137.91 123.78 382.98 569.41 1165.50 364.15 1291.23 354.70 1172.37 453.34 1199.16 567.56 1286.93 558.93
00054049 00000006 1137.37 122.80 383.50 564.68 1163.13 375.22 1291.01 362.38 1170.29 460.54 1196.33 571.63 1289.52 560.09
00054050 00000007 1137.34 115.70 384.76 568.70 1163.39 380.72 1290.15 367.65 1169.78 463.30 1195.26 572.88 1292.36 561.21
00054051 00000008 1137.35 120.91 383.15 563.25 1163.09 382.63 1287.23 370.87 1168.17 465.14 1192.02 572.32 1287.89 561.56
00054052 00000009 1137.36 124.08 385.61 562.60 1163.88 385.31 1288.28 372.80 1169.22 466.91 1191.89 571.40 1290.26 560.14
00054053 00000010 1139.11 126.42 383.43 559.75 1165.48 383.75 1289.83 373.29 1171.80 467.38 1192.17 569.52 1290.39 559.95
00054054 00000011 1142.57 124.82 380.44 563.63 1167.48 385.23 1291.82 373.02 1171.95 468.34 1193.76 572.57 1292.87 561.71
00054055 00000012 1145.94 125.96 379.68 565.71 1169.02 386.76 1295.11 374.03 1174.49 467.87 1195.02 576.74 1293.43 565.52
00054056 00000013 1151.25 124.87 377.67 572.45 1174.10 386.06 1300.41 376.73 1182.81 474.83 1201.12 578.99 1299.04 570.80
00054057 DELETE   1150.45 131.17 383.68 569.79 1175.40 389.58 1307.93 379.48 1193.36 480.41 1208.63 584.59 1307.73 575.53
00054058 DELETE   1151.14 136.22 384.68 563.15 1188.10 387.10 1325.37 373.12 1203.26 478.43 1221.64 589.99 1323.57 577.51
00054059 00000016 1153.03 147.27 383.35 549.14 1188.91 389.58 1329.23 375.69 1208.70 480.23 1219.78 588.16 1325.59 575.97
00054060 00000017 1154.14 152.15 380.66 541.75 1189.29 391.04 1331.58 379.44 1211.98 482.14 1218.70 586.70 1325.45 576.60
00054061 00000018 1153.19 152.06 381.76 543.60 1188.83 391.05 1331.03 379.53 1211.14 482.37 1218.26 586.98 1325.13 576.95
00054062 00000019 1152.22 154.59 383.57 544.28 1188.27 391.97 1330.90 378.86 1211.73 484.14 1220.43 590.67 1326.85 578.99
00054063 00000020 1151.17 153.94 384.87 549.92 1186.80 394.07 1330.18 377.69 1212.65 487.13 1224.98 596.70 1332.09 581.95
00054064 00000021 1150.64 150.05 386.46 559.44 1187.57 394.08 1329.27 375.78 1212.85 485.00 1226.32 597.88 1334.31 581.33
00054065 00000022 1150.92 151.48 387.32 560.83 1188.70 393.27 1328.14 373.95 1212.89 483.01 1228.97 597.60 1336.90 579.72
00054066 00000023 1151.09 147.46 387.34 565.16 1188.96 392.61 1328.52 373.40 1212.96 482.84 1229.35 597.01 1337.27 579.22
00054067 00000024 1150.38 148.21 388.58 562.48 1187.78 392.80 1328.64 374.55 1211.76 484.54 1227.84 596.31 1336.82 579.36
00054068 00000025 1149.89 145.80 387.95 561.85 1187.46 391.96 1328.15 375.38 1210.51 484.42 1225.16 593.57 1333.95 578.27
00054069 00000026 1150.90 145.23 387.57 560.95 1188.54 391.34 1328.85 374.20 1211.47 484.26 1226.34 593.37 1334.96 577.69
00054070 00000027 1153.03 139.39 388.64 568.55 1190.65 390.01 1331.64 373.28 1212.87 482.60 1228.74 593.19 1337.17 577.84
00054071 00000028 1154.07 139.50 391.22 568.55 1192.19 390.41 1334.41 373.62 1215.67 482.97 1231.70 596.11 1338.55 580.64
00054072 00000029 1155.78 142.15 389.92 563.84 1192.98 390.71 1336.80 374.30 1218.73 484.90 1233.92 598.21 1339.74 583.10
00054073 00000030 1156.47 148.19 388.28 558.34 1193.26 392.62 1337.31 376.04 1219.24 486.96 1233.97 599.30 1340.05 584.02
00054074 00000031 1156.29 149.34 387.37 556.95 1192.79 395.02 1337.76 377.56 1219.98 488.52 1233.98 602.00 1339.67 586.09
00054075 00000032 1156.70 149.57 388.07 558.31 1193.16 395.74 1337.79 378.10 1220.16 489.72 1235.38 602.45 1341.26 586.15
00054076 00000033 1156.69 150.79 388.60 558.74 1193.08 395.62 1338.29 377.64 1220.58 490.32 1236.66 603.80 1342.52 587.14
00054077 00000034 1156.47 149.45 387.95 561.59 1192.71 395.78 1337.67 377.52 1220.40 489.50 1235.61 603.53 1341.88 586.76
00054078 00000035 1154.08 150.55 387.69 559.20 1190.44 394.06 1335.49 377.13 1218.40 490.44 1233.88 603.09 1340.46 587.45
00054079 00000036 1150.35 150.77 387.13 558.71 1186.51 397.28 1330.74 376.84 1215.91 491.59 1232.58 605.56 1338.27 587.06
00054080 00000037 1147.83 152.27 388.27 556.75 1185.11 399.42 1327.86 378.56 1215.11 493.86 1232.51 606.45 1337.22 587.58
00054081 00000038 1148.10 150.42 386.22 557.68 1185.58 401.86 1327.15 379.90 1214.97 494.86 1232.26 606.98 1335.89 587.38
00054082 00000039 1149.71 150.27 386.29 553.62 1185.83 400.48 1327.75 378.79 1214.56 494.76 1232.33 605.41 1336.03 586.07
00054083 00000040 1151.83 151.33 387.11 549.67 1186.09 399.61 1328.63 377.95 1213.72 493.80 1231.76 603.06 1337.46 583.59
00054084 00000041 1154.75 152.34 386.28 544.06 1187.44 396.99 1330.78 376.41 1214.75 491.51 1232.52 601.40 1338.49 582.76
00054085 00000042 1156.17 149.09 387.44 547.22 1188.73 396.41 1331.81 376.38 1215.28 491.64 1233.35 599.54 1339.51 581.41
00054086 00000043 1158.31 149.77 388.24 548.32 1191.11 397.00 1335.41 376.84 1217.30 491.54 1234.84 600.06 1341.98 581.80
00054087 00000044 1160.41 151.81 387.40 547.52 1192.77 399.23 1336.70 378.49 1219.14 493.58 1236.42 601.58 1343.38 582.86
00054088 00000045 1161.97 149.23 387.01 551.71 1194.20 398.94 1338.14 378.58 1220.45 493.18 1238.30 601.93 1345.00 583.71
00054089 00000046 1164.08 148.83 389.72 556.26 1195.47 398.26 1339.19 379.24 1220.64 494.82 1240.74 602.48 1347.73 585.04
00054090 00000047 1165.91 147.88 390.42 557.36 1198.88 396.87 1341.65 380.67 1223.28 496.56 1243.55 601.00 1349.62 585.80
00054091 00000048 1167.19 150.60 390.77 553.88 1200.18 396.28 1343.09 381.96 1224.51 497.50 1243.83 599.75 1350.04 585.94
00054092 00000049 1167.21 152.49 390.21 551.85 1200.30 396.56 1343.58 382.94 1225.11 498.74 1243.66 599.75 1350.31 586.45
00054093 00000050 1166.44 150.51 389.20 553.33 1199.60 398.01 1342.76 383.30 1225.48 499.40 1243.59 600.23 1350.03 586.16
00054094 00000051 1165.63 156.51 388.10 546.83 1198.55 400.14 1341.06 385.80 1224.54 502.69 1243.08 600.66 1350.41 586.75
00054095 00000052 1163.72 157.79 386.99 547.12 1197.26 402.49 1339.92 387.59 1224.15 504.32 1242.10 601.99 1350.39 587.68
00054096 00000053 1160.80 157.48 385.53 547.99 1194.79 402.80 1337.48 387.94 1223.21 504.96 1240.92 603.00 1347.71 588.78
00054097 00000054 1156.21 159.43 386.07 545.29 1190.81 403.00 1334.43 387.55 1220.96 504.10 1238.05 604.46 1345.06 589.53
00054098 00000055 1153.53 159.84 385.42 544.84 1188.76 404.84 1331.20 390.32 1218.50 505.60 1236.03 604.79 1342.64 590.60
00054099 00000056 1152.09 160.18 384.96 546.75 1188.66 404.84 1329.53 393.04 1216.66 505.76 1234.28 601.27 1341.49 589.09
00054100 00000057 1153.20 158.62 383.58 548.15 1190.14 406.62 1328.65 394.89 1217.22 505.49 1234.87 599.02 1342.36 586.70
00054101 00000058 1155.04 159.80 382.55 546.06 1191.07 405.08 1330.06 395.23 1216.76 506.24 1234.61 597.68 1342.50 586.80
00054102 00000059 1155.57 163.09 385.69 541.92 1190.88 404.97 1332.02 393.36 1218.23 507.01 1236.10 599.64 1344.34 587.24
00054103 00000060 1157.21 162.56 387.24 537.02 1191.40 404.98 1334.28 391.98 1220.28 507.33 1237.92 599.45 1346.90 586.10
00054104 00000061 1160.21 163.08 386.76 534.03 1191.86 404.26 1336.27 391.46 1220.52 507.76 1237.71 598.86 1347.38 585.76
00054105 00000062 1160.64 162.59 387.36 535.26 1192.52 403.85 1336.71 391.57 1220.55 507.43 1237.95 598.65 1347.40 586.02
00054106 00000063 1160.28 160.96 387.86 535.84 1192.46 401.94 1334.89 389.05 1219.78 504.59 1237.30 596.80 1345.50 583.59
00054107 00000064 1156.45 154.37 386.19 543.30 1191.53 405.90 1333.77 394.20 1219.23 502.76 1235.99 595.53 1345.66 583.33
00054108 00000065 1153.65 151.43 386.62 545.92 1191.92 408.05 1333.14 394.09 1221.03 499.90 1234.84 595.38 1344.39 581.52
00054109 00000066 1150.51 151.85 387.28 549.90 1190.41 407.95 1332.59 392.56 1220.89 500.10 1234.04 599.94 1343.08 585.02
00054110 00000067 1149.19 153.94 387.92 547.71 1189.22 401.22 1330.64 388.51 1218.62 500.85 1232.85 599.19 1339.65 586.48
00054111 00000068 1148.90 152.96 389.25 545.96 1187.35 400.91 1329.00 385.77 1215.88 499.45 1231.53 598.99 1337.45 584.45
00054112 00000069 1144.65 150.01 390.05 550.13 1184.37 398.89 1325.40 380.95 1213.00 494.25 1230.52 597.30 1336.39 580.53
00054113 00000070 1140.19 151.61 392.82 550.07 1174.55 400.14 1312.69 382.22 1206.21 497.17 1225.74 593.36 1327.89 577.66
00054114 00000071 1135.50 155.08 394.84 550.64 1171.46 399.35 1309.89 382.42 1201.13 497.45 1221.94 593.66 1327.70 578.59
00054115 DELETE   1130.60 156.58 395.35 545.33 1166.06 401.48 1304.18 384.91 1195.03 499.50 1215.41 593.16 1323.29 578.16
00054116 00000073 1127.90 162.29 395.85 538.65 1165.98 406.47 1297.01 384.61 1188.86 498.21 1214.58 592.14 1321.00 573.00
00054117 00000074 1125.98 161.81 396.20 538.49 1164.61 408.07 1295.02 387.23 1186.61 498.59 1212.39 590.68 1319.55 572.20
00054118 00000075 1124.64 162.61 397.22 538.69 1163.64 407.96 1293.90 387.38 1186.37 500.55 1213.05 592.37 1319.87 574.03
00054119 00000076 1123.48 163.47 397.86 539.79 1163.70 406.64 1293.64 386.58 1186.07 500.47 1212.68 592.79 1318.31 574.83
00054120 00000077 1121.25 161.94 397.94 538.94 1157.66 403.55 1293.91 384.92 1184.92 501.59 1204.80 595.12 1310.41 578.09
00054121 00000078 1118.36 156.37 399.10 545.29 1155.74 401.69 1291.76 384.48 1183.17 499.88 1202.48 595.48 1307.34 579.48
00054122 00000079 1116.48 153.74 397.07 548.41 1155.64 401.38 1291.02 383.84 1182.79 498.30 1202.81 595.51 1305.34 579.28
00054123 00000080 1115.31 157.27 396.04 544.92 1155.02 401.47 1289.18 383.93 1182.36 498.98 1202.92 596.17 1304.01 579.82
00054124 00000081 1113.05 160.20 393.87 544.79 1154.51 401.72 1289.15 383.95 1183.26 497.67 1202.87 596.61 1303.99 579.93
00054125 00000082 1110.78 155.92 395.30 551.06 1154.45 401.36 1288.40 384.11 1183.77 497.21 1202.45 595.98 1302.64 579.81
00054126 00000083 1109.76 159.08 396.15 548.00 1152.86 401.65 1287.49 383.45 1181.80 497.90 1200.51 597.29 1301.11 580.37
00054127 00000084 1109.29 159.93 398.01 546.13 1151.84 402.19 1287.42 383.91 1180.57 499.53 1198.98 597.70 1300.58 580.73
00054128 00000085 1109.23 158.45 398.20 545.77 1151.97 402.58 1287.83 385.14 1180.10 499.43 1197.90 596.66 1300.27 580.35
00054129 00000086 1110.97 160.33 397.15 542.47 1152.48 402.08 1287.85 386.36 1179.97 500.17 1197.20 594.68 1299.96 579.70
00054130 00000087 1112.31 162.94 396.81 539.26 1152.35 401.77 1287.86 385.93 1180.29 499.55 1195.96 594.76 1299.72 579.70
00054131 00000088 1113.34 160.01 397.22 538.47 1152.15 401.06 1288.61 387.02 1180.10 500.05 1194.09 590.12 1300.69 576.62
00054132 00000089 1112.93 158.74 399.15 540.01 1152.21 400.80 1289.68 387.28 1180.83 498.35 1193.20 588.53 1300.28 575.55
00054133 00000090 1112.76 159.76 397.94 540.55 1151.46 400.27 1290.46 385.70 1180.86 498.44 1193.51 588.53 1303.67 574.65
00054134 00000091 1111.78 156.07 398.52 545.26 1150.89 400.93 1288.11 385.17 1180.50 498.93 1195.70 589.48 1303.56 574.70
00054135 00000092 1110.82 158.02 399.23 544.00 1150.97 401.80 1288.10 387.41 1179.71 502.18 1196.41 590.98 1303.80 577.18
00054136 00000093 1110.68 158.89 399.72 542.75 1150.73 402.84 1287.72 387.97 1178.91 502.87 1195.37 591.13 1303.15 576.98
00054137 00000094 1110.53 158.60 399.64 541.41 1149.76 402.14 1286.36 387.25 1178.08 502.18 1194.69 590.75 1301.70 576.46
00054138 00000095 1110.37 158.39 399.98 539.56 1149.01 402.30 1286.23 386.40 1178.06 501.25 1193.86 590.91 1300.26 575.82
00054139 00000096 1109.68 157.18 399.44 540.18 1147.66 401.50 1284.93 385.80 1176.41 500.55 1192.12 590.55 1298.45 575.58
00054140 00000097 1108.15 154.50 400.76 543.98 1146.40 401.54 1284.15 385.86 1174.94 499.86 1189.32 590.14 1296.65 575.30
00054141 00000098 1107.43 157.44 400.16 543.23 1145.79 400.89 1283.77 385.74 1174.32 500.85 1189.37 591.99 1295.56 577.49
00054142 00000099 1106.89 154.33 398.91 547.85 1144.92 403.29 1282.77 386.29 1173.91 500.24 1189.80 594.83 1295.36 578.90
00054143 00000100 1106.35 157.03 396.30 544.94 1143.60 405.36 1282.93 388.50 1173.73 499.99 1188.48 596.32 1293.48 580.40
00054144 00000101 1105.51 155.41 396.02 549.15 1144.26 409.57 1283.53 390.13 1174.41 499.24 1188.39 599.19 1294.43 581.25
00054145 00000102 1105.17 157.33 394.25 548.98 1144.69 409.56 1283.75 389.34 1174.95 498.52 1189.86 600.51 1294.77 581.87
00054146 00000103 1104.50 155.44 395.09 552.21 1145.22 408.06 1283.25 387.04 1175.43 498.25 1192.22 600.36 1296.70 581.11
00054147 00000104 1102.88 148.03 395.98 558.17 1143.90 417.64 1285.53 396.92 1174.89 496.69 1188.49 601.37 1297.76 582.46
00054148 00000105 1102.10 140.94 398.31 561.20 1143.34 420.21 1286.64 401.48 1175.32 495.26 1185.54 600.40 1294.49 583.40
00054149 00000106 1102.15 143.79 397.13 556.17 1141.64 419.31 1286.43 401.47 1173.59 496.15 1183.56 597.98 1295.22 581.53
CROP_BBOX: 875 0 1755 838
