Video ID: 	686C7q8wc9E
H: 	2160
W: 	3840
FPS: 	60.0

FRAME INDEX X0 Y0 W H [Landmarks (5 Points)]

00006185 00000000 1712.06 506.22 531.28 627.13 1951.08 728.84 2167.69 718.99 2109.96 865.01 1928.79 945.89 2141.13 938.12
00006186 00000001 1712.14 505.82 531.06 627.48 1951.14 728.87 2167.70 718.99 2109.98 865.09 1928.94 945.91 2141.12 938.10
00006187 DELETE   1712.18 505.89 530.95 627.44 1951.15 728.90 2167.66 718.98 2109.99 865.13 1928.92 945.91 2141.08 938.09
00006188 00000003 1697.67 518.94 529.35 622.38 1927.12 738.24 2144.54 722.21 2087.92 867.16 1915.94 953.17 2127.66 939.10
00006189 00000004 1697.77 518.70 529.09 622.51 1927.14 738.50 2144.44 722.30 2087.96 867.19 1915.99 953.30 2127.67 939.12
00006190 00000005 1697.69 518.93 529.19 622.32 1927.16 738.30 2144.51 722.25 2087.96 867.17 1915.90 953.19 2127.65 939.13
00006191 DELETE   1697.65 518.99 529.28 622.33 1927.10 738.26 2144.53 722.23 2087.92 867.16 1915.86 953.16 2127.67 939.10
00006192 00000007 1697.65 518.98 529.30 622.33 1927.10 738.27 2144.54 722.22 2087.94 867.16 1915.86 953.16 2127.69 939.08
00006193 00000008 1714.85 507.50 522.28 630.39 1947.89 736.37 2162.36 720.62 2105.90 873.22 1931.12 952.29 2139.14 939.14
00006194 00000009 1715.40 507.69 521.97 630.28 1947.66 736.35 2162.10 720.53 2105.60 873.28 1931.28 952.44 2139.39 939.14
00006195 00000010 1715.54 507.20 521.82 630.76 1947.70 736.49 2162.14 720.43 2105.81 873.41 1931.06 952.32 2139.44 938.87
00006196 00000011 1715.49 507.83 521.78 630.03 1947.56 736.55 2162.08 720.50 2105.55 873.32 1931.09 952.31 2139.58 938.81
00006197 00000012 1730.96 508.25 517.32 631.56 1969.75 733.42 2176.00 723.92 2123.30 871.23 1944.44 950.28 2149.64 942.65
00006198 00000013 1731.18 507.98 517.13 631.73 1969.66 733.27 2176.14 723.76 2123.31 871.16 1944.46 950.21 2150.03 942.55
00006199 00000014 1731.23 507.80 516.77 631.91 1969.62 733.26 2176.02 723.77 2123.27 871.11 1944.43 950.23 2150.00 942.58
00006200 00000015 1712.76 515.12 514.06 618.48 1952.11 731.09 2157.61 722.67 2104.92 868.62 1920.50 942.50 2127.45 936.38
00006201 00000016 1712.67 514.68 513.99 618.80 1951.80 731.26 2157.50 722.68 2104.71 868.51 1920.45 942.53 2127.57 936.31
00006202 00000017 1712.70 514.64 513.95 618.91 1951.74 731.26 2157.37 722.80 2104.44 868.52 1920.42 942.43 2127.55 936.27
00006203 00000018 1712.82 514.65 513.82 618.86 1951.76 731.30 2157.35 722.83 2104.44 868.53 1920.46 942.45 2127.54 936.29
00006204 00000019 1712.51 514.87 514.08 618.68 1951.71 731.38 2157.33 722.82 2104.51 868.25 1920.41 942.44 2127.46 936.23
00006205 00000020 1711.06 514.14 508.17 611.14 1951.94 718.30 2155.41 722.37 2099.90 852.56 1917.22 931.49 2121.83 935.79
00006206 00000021 1710.95 514.17 508.00 611.02 1951.88 718.42 2155.19 722.35 2099.78 852.57 1917.23 931.54 2121.79 935.71
00006207 00000022 1711.03 513.70 507.96 611.43 1951.84 718.32 2155.19 722.20 2099.78 852.53 1917.24 931.54 2121.77 935.67
00006208 00000023 1729.19 505.63 509.48 619.49 1972.03 707.09 2172.35 717.52 2116.36 847.10 1932.02 926.20 2130.74 936.38
00006209 00000024 1729.20 505.71 509.43 619.39 1972.10 707.04 2172.27 717.41 2116.47 847.12 1932.00 926.24 2130.70 936.40
00006210 00000025 1729.27 505.51 509.28 619.52 1972.16 707.08 2172.28 717.47 2116.47 847.12 1932.05 926.23 2130.68 936.40
00006211 00000026 1729.31 505.49 509.09 619.58 1972.23 707.09 2172.23 717.38 2116.68 847.14 1932.01 926.23 2130.56 936.36
00006212 00000027 1696.47 512.28 519.33 622.31 1940.55 722.35 2144.47 735.20 2083.55 862.58 1905.28 939.85 2104.20 950.51
00006213 00000028 1696.68 511.81 518.90 622.82 1940.55 722.45 2144.44 735.23 2083.65 862.51 1905.35 939.94 2104.19 950.56
00006214 00000029 1696.45 511.94 519.20 622.63 1940.44 722.38 2144.39 735.23 2083.53 862.30 1905.40 940.06 2104.18 950.72
00006215 00000030 1696.48 511.91 519.21 622.69 1940.48 722.40 2144.34 735.11 2083.58 862.40 1905.36 939.97 2104.17 950.54
00006216 00000031 1696.44 511.94 519.35 622.68 1940.45 722.36 2144.44 735.12 2083.56 862.39 1905.33 939.95 2104.21 950.55
00006217 00000032 1662.40 517.01 518.99 642.07 1914.01 728.73 2115.96 748.90 2061.08 872.56 1880.90 956.83 2079.17 971.99
00006218 00000033 1662.39 516.60 518.94 642.32 1914.02 728.91 2115.89 748.97 2061.20 872.54 1880.86 956.89 2079.16 971.98
00006219 00000034 1662.34 516.49 519.00 642.34 1914.01 728.93 2115.88 748.91 2061.23 872.50 1880.83 956.95 2079.19 971.97
00006220 00000035 1682.83 559.97 507.91 627.61 1915.37 755.43 2120.90 768.06 2059.75 898.80 1889.63 989.19 2087.58 997.51
00006221 00000036 1682.89 560.10 507.97 627.51 1915.37 755.32 2120.87 768.14 2059.61 898.75 1889.56 989.20 2087.46 997.66
00006222 00000037 1682.87 559.90 508.02 627.63 1915.24 755.22 2120.83 768.05 2059.53 898.63 1889.60 989.24 2087.47 997.69
00006223 00000038 1682.79 560.07 508.00 627.48 1915.27 755.29 2120.83 768.09 2059.58 898.72 1889.55 989.18 2087.49 997.62
00006224 00000039 1665.65 577.25 511.51 620.19 1903.20 782.39 2108.04 793.89 2049.68 926.93 1881.45 1016.13 2072.60 1024.55
00006225 00000040 1665.41 578.14 511.82 619.20 1903.37 782.28 2108.03 793.65 2049.79 926.86 1881.54 1016.12 2072.64 1024.42
00006226 00000041 1665.53 578.19 511.61 619.00 1903.47 782.18 2108.02 793.50 2049.91 926.85 1881.58 1016.19 2072.65 1024.44
00006227 00000042 1665.38 578.50 512.28 618.81 1903.44 782.08 2108.22 793.25 2050.05 926.71 1881.62 1016.30 2072.92 1024.45
00006228 00000043 1665.56 578.18 512.08 619.10 1903.50 782.21 2108.21 793.48 2050.00 926.73 1881.69 1016.26 2072.91 1024.49
00006229 00000044 1662.71 583.56 493.89 633.57 1895.55 809.84 2100.30 821.49 2045.41 943.23 1887.70 1040.78 2072.03 1048.06
00006230 00000045 1662.72 584.27 493.66 632.72 1895.51 809.87 2100.16 821.49 2045.46 943.29 1887.63 1040.82 2072.04 1048.07
00006231 00000046 1662.87 584.63 493.53 632.24 1895.64 809.95 2100.19 821.78 2045.43 943.29 1887.56 1040.64 2072.01 1048.06
00006232 00000047 1647.45 626.50 503.14 613.78 1883.78 826.68 2086.46 831.22 2033.40 962.53 1879.52 1066.15 2061.66 1066.94
00006233 00000048 1647.62 626.70 502.77 613.55 1883.86 826.67 2086.38 831.17 2033.46 962.49 1879.47 1066.10 2061.69 1066.87
00006234 00000049 1647.57 626.92 502.76 613.48 1883.98 826.74 2086.31 831.25 2033.39 962.73 1879.51 1066.22 2061.46 1066.98
00006235 00000050 1647.53 627.11 502.84 613.25 1883.97 826.72 2086.29 831.28 2033.31 962.76 1879.52 1066.17 2061.41 1066.97
00006236 00000051 1628.07 648.16 506.20 606.86 1862.99 838.16 2066.94 843.39 2006.74 971.04 1859.81 1075.01 2034.93 1077.28
00006237 00000052 1627.86 648.03 506.46 607.06 1862.87 838.20 2066.93 843.40 2006.75 970.92 1859.69 1074.89 2035.10 1077.15
00006238 00000053 1627.78 648.32 506.65 606.79 1862.88 838.25 2067.03 843.33 2006.85 970.98 1859.73 1074.91 2035.16 1077.09
00006239 00000054 1627.82 648.28 506.70 606.80 1862.87 838.17 2067.05 843.12 2006.91 970.98 1859.93 1075.10 2035.08 1077.15
00006240 00000055 1627.91 648.03 506.19 607.05 1862.81 838.30 2066.87 843.29 2006.66 971.16 1859.82 1075.15 2034.91 1077.23
00006241 00000056 1615.83 662.69 506.82 595.47 1852.09 848.95 2055.73 853.89 1998.80 978.19 1846.06 1081.32 2016.82 1083.99
00006242 00000057 1616.05 662.38 506.65 595.85 1852.17 849.14 2055.67 853.80 1998.91 978.24 1846.09 1081.40 2016.91 1083.88
00006243 00000058 1616.03 662.35 506.60 595.78 1852.16 849.14 2055.66 853.84 1998.90 978.25 1846.05 1081.35 2016.92 1083.86
00006244 00000059 1625.31 651.67 502.86 600.67 1859.70 839.50 2060.76 846.44 2002.22 970.28 1855.43 1071.46 2028.95 1075.12
00006245 00000060 1625.16 651.35 502.80 600.92 1859.53 839.16 2060.71 846.41 2002.21 970.22 1854.95 1071.29 2028.87 1075.21
00006246 00000061 1625.15 651.22 502.78 600.96 1859.50 839.18 2060.67 846.43 2002.16 970.19 1854.96 1071.27 2028.87 1075.19
00006247 00000062 1625.02 651.03 503.01 601.17 1859.48 839.09 2060.73 846.30 2002.15 970.19 1855.03 1071.27 2028.92 1075.16
00006248 00000063 1628.81 628.15 511.67 609.57 1867.29 828.73 2069.87 835.17 2012.36 959.25 1868.83 1063.53 2036.33 1064.78
00006249 00000064 1628.88 628.30 511.61 609.29 1867.17 828.51 2069.79 834.96 2012.21 959.30 1868.81 1063.62 2036.28 1064.84
00006250 00000065 1628.85 628.09 511.59 609.54 1867.17 828.53 2069.73 835.04 2012.20 959.32 1868.78 1063.59 2036.30 1064.85
00006251 00000066 1628.83 628.08 511.64 609.55 1867.14 828.56 2069.77 835.01 2012.21 959.32 1868.76 1063.60 2036.31 1064.83
00006252 00000067 1631.72 596.61 496.09 608.43 1860.37 800.03 2066.74 814.79 2003.61 931.41 1855.45 1024.21 2028.59 1032.65
00006253 00000068 1631.48 596.95 496.61 608.10 1860.29 800.05 2066.92 814.72 2003.67 931.41 1855.51 1024.28 2028.63 1032.63
00006254 00000069 1631.61 596.83 496.51 608.12 1860.35 800.12 2066.99 814.77 2003.71 931.48 1855.50 1024.25 2028.77 1032.59
00006255 00000070 1631.52 597.09 496.52 607.96 1860.34 800.06 2066.90 814.78 2003.67 931.43 1855.34 1024.30 2028.58 1032.72
00006256 00000071 1641.85 579.49 510.11 617.39 1876.89 779.09 2086.17 792.05 2022.53 920.31 1865.24 1012.87 2048.30 1022.00
00006257 00000072 1641.69 580.22 510.49 616.78 1876.77 779.04 2086.18 791.86 2022.52 920.48 1865.05 1012.66 2048.79 1021.64
00006258 00000073 1641.52 580.40 510.46 616.12 1876.76 778.92 2085.99 791.56 2022.48 920.46 1865.02 1012.70 2048.62 1021.55
00006259 00000074 1641.65 579.90 510.12 615.83 1877.02 778.72 2085.99 791.90 2022.25 919.84 1865.48 1012.53 2048.18 1021.79
00006260 00000075 1580.96 582.71 521.19 601.40 1819.82 772.13 2027.86 787.15 1960.96 907.65 1804.47 1000.69 1986.10 1012.02
00006261 00000076 1580.75 582.44 520.51 600.88 1820.04 772.61 2027.39 787.28 1961.23 908.18 1804.62 1000.83 1986.00 1011.80
00006262 00000077 1580.79 582.56 520.61 600.79 1820.08 772.67 2027.42 787.26 1961.24 908.15 1804.69 1000.86 1985.99 1011.78
00006263 00000078 1580.88 582.39 520.52 600.89 1820.11 772.68 2027.45 787.24 1961.25 908.15 1804.72 1000.86 1986.01 1011.74
00006264 00000079 1572.55 606.26 509.13 607.92 1807.49 807.46 2011.46 815.42 1953.40 943.69 1795.55 1031.61 1973.30 1036.86
00006265 00000080 1572.42 606.78 509.29 607.43 1807.44 807.46 2011.51 815.53 1953.39 943.68 1795.50 1031.57 1973.41 1036.89
00006266 00000081 1572.46 607.13 509.36 607.00 1807.39 807.56 2011.62 815.43 1953.42 943.68 1795.43 1031.50 1973.36 1036.71
00006267 00000082 1572.44 606.84 509.31 607.33 1807.46 807.53 2011.51 815.44 1953.46 943.71 1795.46 1031.60 1973.40 1036.81
00006268 00000083 1615.44 590.60 504.32 604.89 1843.74 785.33 2047.80 803.44 1982.32 926.93 1827.80 1012.08 2006.36 1024.72
00006269 00000084 1615.56 589.87 504.86 605.61 1843.86 785.71 2048.01 803.86 1982.43 927.00 1828.10 1012.30 2006.06 1024.99
00006270 00000085 1615.78 590.29 504.67 605.20 1843.84 785.52 2048.01 803.71 1982.30 927.00 1828.00 1012.23 2006.17 1024.93
00006271 00000086 1615.27 589.76 505.09 605.88 1843.90 785.71 2047.98 803.89 1982.56 927.13 1828.13 1012.49 2006.02 1025.18
00006272 00000087 1599.73 584.48 511.17 593.53 1840.99 772.61 2044.15 784.40 1984.84 911.25 1817.55 995.73 2006.42 1004.49
00006273 00000088 1599.72 584.48 511.52 593.41 1841.08 772.46 2044.27 784.26 1984.91 911.08 1817.47 995.61 2006.36 1004.39
00006274 00000089 1599.79 584.64 511.48 593.18 1841.18 772.44 2044.27 784.30 1984.89 911.13 1817.52 995.54 2006.26 1004.38
00006275 00000090 1599.72 584.61 511.65 593.22 1841.22 772.40 2044.32 784.29 1985.03 911.07 1817.66 995.64 2006.27 1004.48
00006276 00000091 1592.81 578.65 507.66 594.72 1833.78 767.49 2034.24 779.65 1975.02 907.84 1805.60 988.79 2000.05 997.87
00006277 00000092 1592.52 578.59 508.00 594.64 1833.68 767.46 2034.26 779.69 1974.99 907.75 1805.61 988.76 1999.94 997.89
00006278 00000093 1592.82 578.57 507.72 594.79 1833.74 767.50 2034.28 779.75 1974.94 907.76 1805.64 988.75 1999.98 997.92
00006279 00000094 1592.74 578.50 507.83 594.92 1833.60 767.56 2034.21 779.77 1974.81 907.82 1805.53 988.78 2000.04 997.92
00006280 00000095 1565.93 574.54 509.38 607.12 1803.41 768.93 2007.48 777.73 1945.98 912.24 1778.24 993.08 1977.75 999.56
00006281 00000096 1566.24 574.59 509.15 607.47 1803.07 769.03 2007.52 777.67 1945.56 912.38 1778.45 993.31 1977.73 999.65
00006282 00000097 1566.19 574.58 509.13 607.44 1803.11 769.12 2007.50 777.72 1945.72 912.33 1778.45 993.35 1977.77 999.67
00006283 00000098 1566.42 574.57 508.88 607.45 1803.06 769.29 2007.44 777.46 1945.69 912.42 1778.58 993.45 1977.98 999.41
00006284 00000099 1567.39 588.13 507.65 604.91 1799.00 781.12 2007.59 788.83 1943.60 921.11 1780.51 1006.81 1977.14 1012.58
00006285 00000100 1567.53 587.98 507.36 604.55 1799.11 782.02 2007.36 789.68 1943.57 921.34 1780.65 1006.74 1976.93 1012.51
00006286 00000101 1567.57 587.93 507.29 604.56 1799.10 781.85 2007.40 789.27 1943.66 921.31 1780.69 1006.90 1977.16 1012.48
00006287 00000102 1567.73 587.26 507.02 605.16 1799.17 782.01 2007.42 789.59 1943.56 921.50 1780.77 1006.91 1976.86 1012.60
00006288 00000103 1581.71 591.78 508.98 614.39 1820.92 793.38 2022.10 810.56 1962.49 934.03 1797.68 1019.68 1984.84 1032.30
00006289 00000104 1581.72 591.54 508.95 614.99 1820.72 793.27 2021.97 810.12 1962.37 933.82 1798.02 1019.86 1984.73 1032.21
00006290 00000105 1581.70 591.58 509.00 614.95 1820.76 793.25 2021.98 810.12 1962.41 933.82 1798.01 1019.85 1984.71 1032.22
00006291 00000106 1581.61 591.57 509.15 615.17 1820.67 793.45 2021.97 810.09 1962.48 933.96 1797.91 1019.89 1984.73 1032.10
00006292 00000107 1578.51 623.61 517.15 607.94 1817.32 818.26 2020.26 835.94 1958.15 954.42 1801.95 1045.34 1983.08 1057.74
00006293 00000108 1578.57 623.43 516.96 608.32 1817.08 818.57 2020.22 835.96 1958.31 954.10 1801.98 1045.38 1983.61 1057.57
00006294 00000109 1578.72 623.51 516.75 608.20 1817.11 818.56 2020.16 835.99 1958.26 954.12 1801.93 1045.41 1983.51 1057.63
00006295 00000110 1578.55 623.25 517.10 608.37 1817.11 818.27 2020.12 835.97 1958.03 954.09 1801.62 1045.30 1983.32 1057.72
00006296 00000111 1579.04 648.18 513.96 603.06 1815.69 837.71 2026.33 853.61 1958.97 967.57 1794.32 1059.34 1991.53 1071.91
00006297 00000112 1578.82 648.21 514.23 603.19 1815.64 837.65 2026.32 853.41 1958.91 967.69 1794.42 1059.35 1991.56 1071.77
00006298 00000113 1578.87 648.57 514.17 602.74 1815.61 837.61 2026.29 853.54 1958.75 967.64 1794.30 1059.32 1991.51 1071.88
00006299 00000114 1578.96 648.45 513.91 602.71 1815.72 837.56 2026.28 853.50 1958.82 967.47 1794.42 1059.28 1991.49 1071.86
00006300 00000115 1611.67 674.75 511.33 590.58 1842.15 847.77 2053.15 861.56 1988.56 984.37 1825.98 1077.84 2011.05 1088.09
00006301 00000116 1611.59 674.62 511.39 590.92 1842.14 847.86 2053.16 861.74 1988.54 984.51 1825.89 1077.83 2011.03 1088.14
00006302 00000117 1611.61 674.81 511.42 590.73 1842.11 847.86 2053.16 861.72 1988.51 984.49 1825.87 1077.82 2011.03 1088.13
00006303 00000118 1611.48 674.92 511.68 590.66 1842.09 847.86 2053.19 861.69 1988.53 984.51 1825.84 1077.83 2011.04 1088.12
00006304 00000119 1617.93 662.93 509.19 609.75 1846.16 859.89 2052.08 875.34 1987.01 998.24 1827.61 1087.90 2010.01 1098.89
00006305 00000120 1617.94 662.46 509.55 610.49 1846.11 859.77 2052.28 875.51 1986.92 998.21 1827.33 1087.77 2009.97 1099.05
00006306 00000121 1617.89 662.44 509.57 610.54 1846.11 859.78 2052.30 875.56 1986.93 998.21 1827.30 1087.73 2009.97 1099.03
00006307 00000122 1617.93 662.59 509.53 610.34 1846.14 859.73 2052.33 875.55 1986.96 998.22 1827.31 1087.73 2009.96 1099.08
00006308 00000123 1609.23 668.30 509.42 607.36 1836.98 862.87 2042.74 877.89 1972.41 1002.06 1813.57 1088.57 1995.56 1099.33
00006309 00000124 1609.23 668.34 509.33 607.23 1836.97 862.85 2042.71 877.95 1972.38 1002.07 1813.50 1088.54 1995.55 1099.35
00006310 00000125 1609.18 668.76 509.19 606.90 1836.97 862.87 2042.58 877.86 1972.39 1002.01 1813.49 1088.53 1995.55 1099.23
00006311 00000126 1609.22 668.32 509.36 607.24 1836.95 862.83 2042.71 877.91 1972.36 1002.10 1813.48 1088.55 1995.55 1099.34
00006312 00000127 1619.62 662.56 507.71 609.67 1841.28 864.13 2050.15 876.01 1982.78 999.87 1828.96 1090.95 2014.65 1098.75
00006313 00000128 1619.75 662.45 508.06 610.01 1841.46 863.91 2050.49 876.06 1983.00 999.93 1828.74 1090.67 2014.59 1098.69
00006314 00000129 1619.81 662.81 508.30 609.54 1841.36 863.99 2050.70 876.00 1983.00 1000.02 1829.02 1090.81 2014.65 1098.73
00006315 00000130 1619.77 662.82 508.30 609.25 1841.41 864.07 2050.70 875.83 1983.17 1000.14 1829.26 1090.95 2014.89 1098.65
00006316 00000131 1650.11 664.71 510.36 601.05 1879.93 847.50 2092.93 861.67 2026.29 986.81 1861.67 1081.13 2056.36 1092.26
00006317 00000132 1650.54 663.11 509.67 603.12 1879.81 847.02 2092.77 861.47 2026.21 986.45 1861.85 1080.96 2056.56 1092.27
00006318 00000133 1650.52 663.09 509.62 603.31 1879.74 846.91 2092.74 861.26 2026.25 986.27 1861.88 1080.94 2056.66 1092.18
00006319 00000134 1650.60 663.37 509.57 602.91 1879.91 847.00 2092.63 861.17 2026.26 986.71 1861.89 1081.10 2056.42 1092.18
00006320 00000135 1661.94 642.70 512.05 605.14 1895.62 832.68 2108.90 847.77 2043.52 967.51 1876.91 1059.00 2078.53 1070.22
00006321 00000136 1661.98 642.68 511.97 605.24 1895.58 832.65 2108.85 847.72 2043.45 967.41 1876.70 1059.02 2078.43 1070.24
00006322 00000137 1661.97 642.64 512.06 605.12 1895.65 832.61 2108.80 847.73 2043.48 967.51 1876.74 1058.98 2078.37 1070.23
00006323 00000138 1661.97 642.63 512.03 605.17 1895.67 832.61 2108.82 847.71 2043.51 967.56 1876.76 1059.01 2078.35 1070.25
00006324 00000139 1661.09 620.26 497.58 612.53 1878.89 827.99 2094.64 836.66 2027.08 960.44 1868.34 1054.32 2070.00 1059.94
00006325 00000140 1660.97 621.74 497.80 611.54 1878.77 828.33 2094.80 836.64 2027.19 960.78 1868.25 1054.64 2069.94 1060.02
00006326 00000141 1661.09 621.58 497.62 611.57 1878.74 828.24 2094.81 836.59 2027.11 960.80 1868.34 1054.63 2069.90 1060.04
00006327 00000142 1661.41 621.99 497.20 610.85 1878.74 828.27 2094.84 836.61 2027.15 960.80 1868.40 1054.42 2070.31 1059.78
00006328 00000143 1696.13 633.31 506.44 603.73 1916.91 824.40 2127.37 833.25 2062.15 960.93 1898.87 1052.28 2097.42 1058.82
00006329 00000144 1696.06 633.14 506.38 603.84 1916.92 824.45 2127.25 833.30 2062.10 960.84 1898.76 1052.31 2097.36 1058.87
00006330 00000145 1696.04 633.03 506.34 604.14 1916.90 824.40 2127.20 833.26 2062.09 960.86 1898.71 1052.28 2097.44 1058.83
00006331 00000146 1695.99 633.08 506.45 604.08 1916.88 824.37 2127.24 833.21 2062.10 960.90 1898.69 1052.29 2097.44 1058.83
00006332 00000147 1692.96 629.55 509.02 600.56 1920.13 820.14 2126.41 835.89 2060.98 954.98 1896.07 1043.93 2087.37 1056.18
00006333 00000148 1692.84 629.35 509.18 600.36 1920.14 819.88 2126.74 835.79 2061.24 954.63 1896.23 1043.97 2087.39 1056.36
00006334 00000149 1692.78 629.40 509.33 600.36 1920.14 819.88 2126.80 835.78 2061.29 954.63 1896.24 1043.98 2087.43 1056.35
00006335 00000150 1692.66 629.68 509.46 600.37 1920.13 819.96 2126.67 835.83 2061.25 954.68 1896.07 1044.03 2087.31 1056.42
00006336 00000151 1694.12 634.56 506.49 591.69 1919.02 820.54 2127.34 840.52 2060.50 954.13 1897.90 1044.82 2090.06 1060.02
00006337 00000152 1693.95 634.43 506.65 591.99 1919.23 820.51 2127.37 840.26 2060.94 954.04 1897.75 1044.89 2090.06 1059.96
00006338 00000153 1693.91 634.32 506.77 592.12 1919.17 820.29 2127.47 840.16 2060.90 953.93 1897.80 1044.88 2090.12 1060.03
00006339 00000154 1693.96 634.35 506.69 592.01 1919.21 820.33 2127.46 840.22 2060.97 953.95 1897.78 1044.83 2090.20 1060.00
00006340 00000155 1722.33 618.55 504.34 594.93 1960.97 809.45 2156.06 831.56 2096.92 947.80 1928.45 1025.03 2114.21 1042.45
00006341 00000156 1722.42 618.46 504.27 594.92 1961.06 809.48 2156.08 831.55 2097.01 947.86 1928.42 1025.00 2114.28 1042.40
00006342 00000157 1722.40 618.50 504.28 594.93 1961.03 809.48 2156.06 831.61 2097.00 947.83 1928.42 1025.03 2114.27 1042.46
00006343 00000158 1722.48 618.28 504.21 595.16 1961.04 809.53 2156.08 831.59 2096.96 947.85 1928.46 1025.00 2114.38 1042.37
00006344 00000159 1725.57 608.41 509.76 597.03 1967.26 802.51 2164.47 827.06 2102.58 941.82 1931.66 1018.96 2117.91 1038.70
00006345 00000160 1725.61 608.32 509.49 597.27 1966.83 802.46 2164.30 827.13 2102.18 941.78 1931.43 1019.10 2117.94 1038.94
