Video ID: 	IJMMNqvnwaQ
H: 	1080
W: 	1920
FPS: 	29.97002997002997

FRAME INDEX X0 Y0 W H [Landmarks (5 Points)]

00004780 00000000 831.35 100.62 335.86 502.74 965.82 308.43 1116.56 314.52 1086.01 379.62 980.25 471.84 1110.52 479.30
00004781 00000001 830.57 102.82 338.09 502.31 966.20 311.39 1118.16 317.90 1086.25 381.13 980.23 474.18 1111.58 481.90
00004782 00000002 829.21 105.24 337.75 502.19 963.97 312.76 1116.66 320.80 1082.70 382.17 976.28 474.39 1110.23 483.50
00004783 00000003 825.12 104.52 339.96 504.08 959.62 314.04 1112.64 322.26 1077.76 382.91 973.32 475.96 1106.91 484.77
00004784 00000004 819.50 107.25 342.70 503.03 953.93 312.64 1108.80 323.37 1071.21 381.95 968.59 476.75 1102.56 487.32
00004785 DELETE   816.35 111.21 342.11 501.55 950.29 310.68 1105.37 322.50 1066.03 381.00 964.99 478.46 1097.26 489.99
00004786 DELETE   810.00 111.44 338.72 504.02 947.15 309.21 1096.48 320.43 1063.01 381.57 965.78 482.63 1088.52 493.49
00004787 DELETE   806.16 116.35 337.29 513.03 941.67 310.57 1088.95 320.14 1057.10 387.26 962.53 490.55 1081.44 499.91
00004788 00000008 804.37 120.81 333.83 514.17 939.84 315.44 1086.99 323.64 1052.52 401.80 961.67 502.24 1072.29 510.48
00004789 DELETE   797.41 127.65 334.57 509.84 936.85 331.12 1084.27 337.44 1047.39 413.71 956.32 509.17 1067.61 515.83
00004790 00000010 789.71 130.44 336.21 512.25 930.68 338.61 1080.33 343.47 1042.86 425.23 955.33 524.39 1060.73 529.51
00004791 00000011 784.03 127.11 339.59 526.51 926.72 336.63 1078.87 340.20 1039.87 426.77 951.30 532.52 1055.03 536.46
00004792 DELETE   784.62 128.84 337.27 525.49 927.48 330.15 1077.33 335.89 1040.71 423.14 951.02 532.18 1050.13 537.78
00004793 00000013 783.91 127.99 337.68 509.75 932.89 322.08 1075.38 331.52 1042.33 414.68 951.29 511.57 1051.35 520.11
00004794 DELETE   780.53 120.30 341.50 507.25 926.26 313.61 1072.48 328.08 1038.88 398.38 946.44 496.75 1056.03 509.81
00004795 DELETE   780.19 111.18 339.84 513.77 923.92 314.59 1075.87 328.11 1040.47 398.67 936.65 495.95 1059.57 509.17
00004796 00000016 778.56 112.48 337.23 518.67 917.83 320.59 1069.28 327.60 1035.67 408.33 932.70 502.96 1055.47 511.09
00004797 00000017 777.61 115.74 339.29 527.01 915.74 324.08 1068.16 333.11 1032.72 411.13 928.18 507.67 1053.58 517.14
00004798 00000018 780.95 120.02 334.41 534.77 919.17 315.90 1068.67 328.85 1033.83 404.29 922.21 501.61 1053.05 514.61
00004799 00000019 780.33 113.91 338.57 538.20 922.88 311.19 1072.20 325.73 1037.67 398.83 921.33 494.25 1057.18 508.95
00004800 00000020 780.42 106.67 342.32 536.37 921.51 308.10 1074.30 321.70 1039.73 391.57 922.69 489.44 1061.06 503.60
00004801 00000021 780.11 103.07 343.18 530.01 922.79 308.32 1075.07 320.69 1042.76 388.81 928.94 488.69 1062.42 501.77
00004802 00000022 778.63 102.60 342.32 522.12 922.31 305.65 1067.18 313.35 1033.60 388.54 945.16 490.81 1054.34 498.65
00004803 00000023 779.88 101.87 341.33 519.90 923.29 308.21 1066.20 313.32 1033.51 389.92 950.94 493.29 1054.85 498.62
00004804 00000024 781.47 101.46 339.84 520.68 924.40 309.78 1065.67 313.07 1034.39 390.90 953.49 494.74 1055.08 498.66
00004805 00000025 782.60 103.23 336.91 520.02 922.87 312.05 1065.59 314.45 1033.92 392.57 954.23 497.93 1056.23 501.03
00004806 00000026 782.25 102.93 336.36 525.61 922.96 311.64 1065.34 316.11 1034.22 394.68 953.45 501.93 1053.42 506.68
00004807 00000027 779.83 104.56 336.34 529.72 921.06 310.40 1064.04 316.40 1032.67 399.29 951.02 508.28 1046.70 514.03
00004808 00000028 780.39 107.94 335.72 530.00 922.98 312.53 1064.49 317.43 1033.06 402.69 950.33 509.66 1045.97 514.66
00004809 00000029 781.04 109.43 335.12 527.86 920.47 318.27 1065.34 322.81 1031.55 404.27 946.23 509.39 1047.20 514.49
00004810 00000030 779.88 112.25 337.17 523.98 920.87 332.37 1063.55 335.79 1029.53 405.57 944.34 509.21 1049.80 514.10
00004811 DELETE   780.44 114.54 335.40 518.84 919.57 337.67 1064.21 342.06 1027.66 407.91 941.32 509.47 1050.38 515.52
00004812 00000032 780.21 114.53 336.23 518.27 919.18 334.01 1063.98 337.44 1028.18 408.42 941.12 510.09 1049.99 515.13
00004813 00000033 780.12 113.68 337.44 521.16 917.86 331.54 1062.75 331.58 1027.20 409.41 943.27 513.88 1048.05 515.70
00004814 00000034 784.01 113.84 333.75 523.50 918.65 328.07 1062.93 327.42 1027.62 409.46 947.58 516.96 1047.39 518.05
00004815 00000035 786.80 112.18 332.27 525.13 917.86 326.64 1062.98 324.41 1026.72 409.76 948.68 517.84 1047.40 517.70
00004816 00000036 791.35 112.39 327.58 526.87 917.12 322.47 1062.44 319.73 1026.89 410.26 948.07 517.67 1046.59 517.34
00004817 00000037 789.93 110.28 328.82 532.59 914.12 318.37 1060.32 318.65 1021.78 404.99 947.30 515.15 1047.33 517.06
00004818 00000038 790.94 113.64 328.90 528.69 911.76 318.27 1061.09 317.58 1021.63 401.48 941.80 509.27 1051.96 510.68
00004819 00000039 789.46 113.95 332.28 521.44 911.73 320.44 1061.39 318.10 1021.15 400.90 939.98 504.52 1054.37 504.54
00004820 00000040 784.27 112.42 336.96 520.11 910.77 325.78 1061.38 325.14 1021.73 402.58 934.60 503.01 1055.97 504.33
00004821 00000041 780.79 113.28 339.65 515.90 908.52 329.60 1059.79 331.42 1017.64 404.45 933.08 503.46 1053.76 506.74
00004822 00000042 783.18 109.90 336.97 524.40 907.24 328.96 1060.97 329.76 1019.96 406.18 925.55 503.94 1055.66 507.01
00004823 00000043 784.82 116.97 334.30 532.15 906.12 325.80 1060.67 330.60 1015.97 402.90 919.94 506.19 1053.35 512.40
00004824 00000044 784.07 114.14 331.85 537.50 903.20 322.83 1059.61 329.35 1012.89 400.60 913.83 504.70 1051.07 512.48
00004825 00000045 781.59 109.57 331.89 529.75 902.61 321.77 1055.51 326.46 1011.60 400.97 914.34 498.50 1047.71 504.85
00004826 00000046 777.69 108.84 332.43 516.01 896.87 318.50 1054.46 322.82 1007.05 396.17 911.30 493.37 1046.32 499.57
00004827 00000047 772.51 107.01 333.53 512.87 890.79 317.46 1048.01 321.54 1002.45 394.03 908.63 491.77 1041.28 497.55
00004828 00000048 768.56 105.54 334.38 515.44 885.40 316.90 1040.14 319.39 996.33 392.57 904.04 490.84 1035.63 495.47
00004829 DELETE   758.58 107.17 336.60 519.22 872.39 318.51 1026.05 317.08 983.05 389.27 893.86 492.09 1025.85 492.95
00004830 DELETE   746.58 111.44 337.45 523.63 859.11 313.26 1014.38 311.74 963.35 384.83 878.88 494.06 1010.35 495.04
00004831 DELETE   733.90 109.66 338.07 524.58 848.71 300.96 1005.05 302.42 951.30 373.80 867.50 487.31 994.76 490.97
00004832 00000052 729.18 101.07 338.82 511.78 847.77 291.42 1005.21 293.34 955.85 369.51 870.84 477.57 993.07 481.05
00004833 DELETE   725.29 94.65 342.77 505.39 851.33 285.47 1000.49 286.02 958.00 354.98 884.90 466.72 993.70 467.73
00004834 DELETE   720.95 80.14 339.63 509.52 846.50 287.73 1002.32 288.47 954.66 352.38 879.57 463.62 996.31 465.02
00004835 00000055 718.61 76.75 338.58 501.26 838.98 285.23 999.97 283.75 948.61 346.38 874.96 459.60 994.47 459.36
00004836 00000056 717.33 74.95 339.05 499.52 834.78 283.42 996.72 280.97 944.24 343.89 870.97 456.64 991.47 455.69
00004837 DELETE   721.21 76.66 340.81 499.81 838.31 285.97 1002.25 283.66 946.15 346.01 874.43 458.83 996.71 458.03
00004838 00000058 727.33 78.31 342.82 505.37 846.83 290.98 1008.51 289.41 952.04 350.18 881.52 462.41 1003.03 462.13
00004839 DELETE   734.86 82.60 344.95 508.60 855.12 294.45 1016.02 292.02 961.98 355.62 888.45 466.98 1014.12 465.53
00004840 DELETE   740.98 85.05 345.23 508.36 861.92 296.48 1021.64 293.67 971.57 357.52 894.87 469.32 1020.86 467.36
00004841 00000061 748.42 89.22 342.71 502.84 868.63 296.57 1024.65 295.16 978.80 357.99 900.86 468.08 1025.92 467.14
00004842 00000062 753.03 93.75 342.83 500.70 873.49 296.71 1028.31 295.62 985.52 358.88 905.39 468.83 1029.71 468.29
00004843 DELETE   760.29 94.11 340.49 503.58 875.07 291.87 1036.43 289.85 992.02 361.70 903.86 472.78 1033.62 472.31
00004844 00000064 763.75 93.97 341.37 509.42 880.92 299.88 1038.47 297.74 992.14 364.39 910.51 473.79 1042.99 472.01
00004845 00000065 771.58 93.59 337.17 508.02 884.19 298.30 1046.65 297.83 999.45 370.59 910.67 477.98 1043.43 479.38
00004846 00000066 773.40 96.67 339.26 513.28 888.35 302.78 1051.02 300.43 1004.96 376.94 916.40 486.48 1049.02 486.59
00004847 00000067 776.64 98.55 340.08 523.15 892.53 305.11 1053.63 305.21 1006.87 380.20 916.64 490.46 1049.85 492.99
00004848 00000068 779.36 101.99 339.49 527.03 896.97 307.55 1056.25 309.49 1010.42 382.75 918.09 492.61 1051.52 496.90
00004849 00000069 782.17 104.84 339.62 525.99 899.81 309.61 1060.24 314.35 1011.32 384.86 917.37 492.83 1053.05 499.35
00004850 00000070 782.04 105.10 341.29 522.11 902.23 311.57 1062.75 315.56 1015.33 389.22 919.72 493.00 1055.20 498.96
00004851 00000071 783.64 107.32 339.12 513.05 903.95 313.99 1064.77 317.13 1017.16 392.73 922.37 493.21 1056.04 498.54
00004852 00000072 784.26 109.13 338.83 511.06 906.47 315.03 1066.71 318.74 1019.56 395.52 924.73 494.87 1056.68 500.86
00004853 00000073 782.79 109.63 340.80 512.22 905.37 316.06 1066.16 318.68 1018.77 397.13 926.60 498.62 1056.52 503.61
00004854 00000074 782.81 109.86 340.67 515.41 902.98 318.02 1063.90 320.81 1015.52 397.46 925.95 502.26 1054.29 507.19
00004855 00000075 780.26 110.47 343.14 514.35 900.57 318.94 1063.45 322.26 1012.23 400.64 925.18 505.26 1051.85 510.38
00004856 00000076 779.53 112.23 343.36 512.72 899.56 320.69 1062.77 324.52 1010.23 402.47 923.76 506.82 1050.06 512.31
00004857 00000077 779.83 110.85 343.65 515.26 900.25 321.47 1062.99 324.24 1011.63 403.49 924.41 507.21 1051.47 511.72
00004858 00000078 780.01 110.59 343.12 518.22 900.86 322.06 1063.12 324.95 1013.09 403.25 925.71 507.62 1052.74 512.10
00004859 00000079 781.64 112.04 341.62 519.07 900.07 321.53 1061.01 326.00 1009.73 402.02 923.87 508.15 1048.62 513.98
00004860 00000080 783.16 115.16 340.18 530.07 898.52 320.16 1057.88 324.94 1006.58 398.49 924.35 513.93 1047.31 519.83
00004861 00000081 784.59 117.10 338.68 543.33 895.57 320.20 1057.13 324.57 1003.16 398.28 919.81 519.87 1047.01 525.26
00004862 00000082 784.29 116.34 339.75 541.39 896.86 321.06 1060.28 325.58 1005.20 400.28 919.19 518.65 1049.62 524.21
00004863 00000083 783.51 113.05 340.91 528.45 900.61 323.18 1062.02 324.88 1009.20 403.28 921.59 509.55 1052.60 513.01
00004864 00000084 783.86 112.36 340.39 524.87 900.96 323.56 1063.50 324.91 1010.20 404.29 921.36 508.02 1053.92 511.22
00004865 00000085 781.96 111.87 342.63 525.00 899.42 324.32 1060.86 327.87 1007.23 406.55 920.44 509.75 1049.05 514.64
00004866 00000086 781.27 112.74 342.95 522.58 899.03 324.98 1060.53 329.48 1006.67 410.56 920.96 511.87 1046.82 517.45
00004867 00000087 781.02 113.42 342.54 520.69 898.19 327.54 1059.20 330.82 1006.35 412.09 921.05 512.35 1047.05 516.84
00004868 00000088 779.35 113.33 342.94 520.88 895.80 328.26 1057.31 331.08 1003.50 412.60 918.39 512.09 1046.41 516.33
00004869 00000089 778.88 116.31 340.89 521.21 891.03 326.36 1052.05 329.79 995.28 416.35 912.34 513.47 1038.49 518.18
00004870 00000090 774.33 116.11 342.36 522.09 884.69 327.18 1049.36 330.65 988.92 419.21 906.36 515.86 1035.22 520.42
00004871 00000091 773.79 117.61 342.16 522.44 882.38 330.02 1049.07 331.40 986.25 421.41 904.99 517.67 1036.86 520.57
00004872 00000092 776.90 118.83 342.82 519.49 886.29 331.55 1051.09 330.60 990.40 418.15 910.60 516.59 1041.49 517.36
00004873 00000093 783.53 116.63 341.21 515.33 892.12 327.24 1055.76 328.56 995.81 409.92 914.85 511.06 1042.28 513.83
00004874 00000094 787.94 112.66 338.39 508.90 895.61 318.93 1061.44 321.81 997.18 398.39 915.43 501.71 1045.90 505.81
00004875 00000095 787.80 109.03 338.80 506.69 897.52 313.90 1062.36 318.77 998.51 393.42 914.69 495.34 1045.87 501.29
00004876 00000096 788.59 107.49 338.01 508.52 896.81 312.06 1062.07 316.76 997.25 393.01 914.42 495.05 1045.96 500.77
00004877 00000097 788.47 109.61 338.77 515.85 895.96 312.51 1058.89 316.95 996.25 392.32 914.62 497.98 1045.01 503.56
00004878 00000098 786.59 110.02 339.13 511.62 892.67 316.72 1057.72 319.18 993.92 396.83 909.59 497.05 1045.16 501.12
00004879 00000099 787.46 111.83 337.71 508.40 890.22 320.74 1057.31 321.99 990.10 400.76 906.90 497.91 1045.76 500.96
00004880 00000100 783.79 112.01 339.50 507.82 888.94 321.49 1055.84 323.22 989.60 401.84 904.88 498.12 1043.84 501.77
00004881 00000101 781.95 111.18 340.57 507.61 889.99 317.92 1054.18 319.40 991.53 395.23 906.91 494.82 1042.71 498.44
00004882 00000102 783.32 108.12 337.76 500.50 888.81 316.35 1052.92 315.83 990.26 389.62 909.79 491.70 1042.63 493.51
00004883 00000103 784.40 105.38 333.81 495.34 888.41 314.60 1051.60 314.83 988.66 385.45 908.49 486.02 1041.33 488.44
00004884 00000104 782.69 106.07 334.19 492.15 886.77 315.18 1050.86 313.55 987.70 383.77 907.28 484.66 1041.63 485.66
00004885 00000105 781.85 107.40 334.81 495.29 885.81 316.16 1049.33 314.84 985.71 388.26 904.64 487.84 1038.62 489.41
00004886 00000106 776.50 111.41 339.28 510.68 882.96 316.47 1045.08 316.66 983.77 397.54 901.43 497.37 1033.32 500.10
00004887 00000107 775.65 116.55 338.10 516.79 882.00 319.98 1041.51 321.29 981.15 406.99 901.90 508.38 1026.52 511.75
00004888 00000108 772.28 121.55 340.89 514.26 882.12 322.21 1042.20 323.57 982.83 410.67 902.79 512.76 1024.42 516.01
00004889 00000109 774.94 119.70 338.28 508.99 881.01 323.27 1044.11 324.06 981.51 408.92 901.30 508.47 1028.93 511.31
00004890 00000110 775.39 117.44 337.91 502.56 880.05 322.10 1046.58 321.78 980.12 405.60 899.48 503.69 1032.65 505.64
00004891 00000111 777.38 115.13 335.97 503.07 881.00 319.58 1046.36 319.41 979.77 399.78 900.38 500.67 1033.35 502.76
00004892 00000112 778.72 115.44 337.15 509.16 883.67 317.62 1047.37 318.60 981.45 400.41 900.47 500.52 1033.27 503.50
00004893 00000113 780.34 115.62 337.71 515.59 884.79 316.90 1047.28 317.37 982.66 401.55 903.45 502.61 1035.18 505.03
00004894 00000114 781.86 113.97 339.47 516.55 885.45 317.55 1049.92 317.05 984.20 401.64 904.19 502.75 1038.26 504.24
00004895 00000115 784.17 111.84 338.23 512.97 886.19 318.37 1054.52 317.76 985.59 399.43 904.02 499.51 1044.09 500.82
00004896 00000116 788.61 109.83 336.96 513.25 889.32 316.23 1058.10 315.40 989.81 396.03 907.79 497.08 1049.47 498.00
00004897 00000117 789.71 108.78 338.54 518.38 893.02 313.28 1058.92 311.89 994.33 395.18 911.79 497.13 1050.60 497.63
00004898 00000118 794.41 107.89 336.52 525.80 896.09 313.79 1061.10 311.67 996.53 394.33 914.33 499.71 1053.55 499.47
00004899 00000119 795.23 109.25 336.01 529.45 899.91 310.33 1061.71 310.33 1000.19 395.26 922.78 500.05 1054.88 501.76
00004900 00000120 797.32 110.85 340.00 534.54 903.88 311.47 1066.44 313.84 1004.54 398.13 924.76 502.53 1058.99 506.19
00004901 00000121 801.18 107.91 340.65 540.24 908.16 309.89 1071.62 313.27 1008.14 395.81 927.85 502.81 1063.39 507.26
00004902 00000122 808.05 105.69 337.07 540.30 911.10 306.32 1077.32 307.45 1011.31 389.53 929.55 501.30 1067.43 504.56
00004903 00000123 814.05 104.89 336.42 535.11 915.60 303.96 1082.86 301.39 1017.63 380.85 937.45 499.25 1073.53 499.69
00004904 00000124 818.37 101.84 339.46 519.96 923.02 302.78 1086.75 298.64 1027.20 379.31 951.18 493.13 1079.19 491.24
00004905 00000125 826.85 99.62 340.47 514.00 930.00 306.30 1095.16 297.88 1035.40 380.20 960.09 492.77 1091.34 487.11
00004906 00000126 836.56 98.80 338.86 511.28 936.89 308.55 1104.40 298.82 1043.23 383.66 966.54 494.27 1100.25 488.06
00004907 00000127 839.24 100.15 344.09 513.86 943.02 311.05 1108.03 302.09 1050.76 389.34 973.50 497.43 1104.32 491.76
CROP_BBOX: 537 0 1379 795
