Video ID: 	NYvSd32c8nI
H: 	1440
W: 	2560
FPS: 	30.0

FRAME INDEX X0 Y0 W H [Landmarks (5 Points)]

00006135 00000000 853.80 257.05 478.86 641.15 944.46 462.39 1172.57 418.20 1078.90 608.52 1010.17 718.66 1205.03 680.27
00006136 DELETE   831.21 239.33 486.47 648.28 926.27 473.10 1148.43 415.75 1049.40 615.46 999.54 718.95 1197.00 668.78
00006137 00000002 824.02 233.24 483.86 648.52 918.42 470.22 1135.89 413.73 1038.96 609.30 990.28 714.97 1181.21 666.66
00006138 DELETE   818.24 227.17 488.42 653.74 913.75 463.34 1130.06 408.90 1034.05 603.64 982.71 706.12 1176.53 659.28
00006139 00000004 811.31 229.86 487.99 645.86 906.94 457.41 1123.89 401.12 1025.53 595.02 973.62 700.23 1166.28 651.45
00006140 00000005 810.33 238.00 487.20 644.65 903.61 459.34 1119.16 400.94 1019.81 593.01 977.56 710.47 1164.89 660.12
00006141 00000006 806.00 235.23 492.99 654.89 901.68 457.75 1117.50 403.37 1017.89 598.51 975.30 715.70 1159.13 669.16
00006142 00000007 805.02 219.49 500.46 698.97 898.44 465.68 1114.34 403.05 1017.66 599.55 980.17 726.72 1169.78 672.58
00006143 00000008 807.94 212.98 496.97 707.88 898.03 470.57 1110.48 406.38 1012.11 600.53 984.35 735.35 1168.10 679.78
00006144 00000009 808.58 212.98 498.45 707.12 898.66 469.87 1110.75 404.99 1013.86 600.01 986.75 734.32 1169.88 678.16
00006145 00000010 809.71 218.14 498.17 699.44 900.31 467.45 1112.50 402.59 1015.04 598.68 984.71 728.97 1170.31 673.07
00006146 00000011 817.56 224.87 490.72 683.56 903.45 455.10 1118.53 395.34 1015.12 591.41 984.69 720.72 1171.85 669.23
00006147 00000012 817.03 221.99 493.18 685.14 902.87 455.88 1117.93 394.00 1014.97 589.33 984.38 719.42 1172.79 666.06
00006148 00000013 819.47 216.35 493.58 684.79 903.43 458.93 1116.01 393.17 1013.74 588.11 988.84 720.66 1171.73 663.54
00006149 00000014 828.71 216.18 483.22 683.08 907.45 463.80 1119.24 395.31 1017.84 595.56 996.04 724.78 1178.21 664.73
00006150 00000015 832.77 218.69 487.28 683.18 912.50 468.90 1123.41 400.68 1022.41 598.78 1001.18 726.77 1182.61 666.75
00006151 00000016 833.37 205.61 504.17 692.65 916.46 457.49 1120.41 403.89 1011.02 601.08 997.88 715.70 1179.20 667.60
00006152 00000017 845.00 200.53 497.84 697.96 923.67 456.49 1123.12 401.30 1013.82 601.49 1004.01 714.83 1184.63 665.61
00006153 00000018 848.12 201.49 494.85 692.85 928.46 455.69 1125.77 398.76 1020.53 598.66 1010.70 712.19 1188.45 661.75
00006154 00000019 855.01 204.65 491.82 689.88 935.93 451.71 1132.80 395.70 1027.58 590.01 1015.83 710.51 1194.19 660.87
00006155 00000020 860.42 207.04 492.12 683.62 943.23 455.81 1136.39 399.00 1036.96 591.41 1022.94 708.34 1198.56 658.56
00006156 00000021 855.44 213.34 497.61 676.79 942.41 459.47 1140.03 402.28 1038.63 594.75 1024.22 710.05 1201.09 659.72
00006157 00000022 867.13 220.25 491.99 676.72 953.48 468.37 1149.54 412.12 1053.88 596.59 1031.85 712.80 1210.76 663.38
00006158 00000023 874.83 211.22 491.87 696.13 966.84 467.50 1168.09 413.09 1070.61 591.72 1035.38 719.02 1214.75 671.69
00006159 00000024 869.96 205.31 498.56 692.63 963.42 470.06 1161.23 413.50 1069.32 601.26 1043.82 713.30 1223.62 663.50
00006160 00000025 880.93 209.76 492.62 696.61 972.24 463.45 1176.18 414.20 1077.72 594.10 1037.95 718.05 1218.08 675.51
00006161 00000026 887.31 210.47 490.58 696.42 976.58 464.75 1183.46 416.15 1084.07 596.10 1042.16 718.69 1225.51 676.68
00006162 00000027 888.50 211.24 492.64 696.51 976.81 465.45 1185.01 416.77 1084.80 598.68 1043.78 719.67 1227.20 677.66
00006163 00000028 890.61 206.67 495.38 701.74 979.12 466.50 1193.69 417.38 1090.85 602.92 1048.77 723.46 1234.57 681.42
00006164 00000029 894.02 201.26 496.82 705.94 980.98 470.41 1199.27 419.41 1093.65 605.86 1053.01 726.61 1242.13 682.58
00006165 00000030 897.53 203.19 494.22 702.60 983.85 471.75 1201.77 420.24 1096.20 607.15 1055.64 726.18 1244.68 681.85
00006166 00000031 900.19 204.93 492.31 702.57 987.77 470.56 1204.69 420.25 1099.19 608.72 1059.44 725.82 1248.34 682.63
00006167 00000032 901.30 206.12 489.51 700.65 985.74 474.72 1199.49 423.67 1094.70 610.33 1057.81 729.22 1244.28 685.88
00006168 00000033 899.21 207.44 491.21 702.64 984.46 475.38 1198.51 424.71 1093.04 610.89 1054.51 729.05 1243.63 685.98
00006169 00000034 896.48 214.37 485.83 699.34 978.05 474.96 1184.50 423.55 1082.15 608.17 1050.29 733.69 1231.18 690.68
00006170 00000035 893.13 213.93 484.57 699.13 971.02 478.80 1177.32 430.73 1069.64 610.66 1041.25 734.61 1221.49 694.24
00006171 00000036 888.82 218.72 484.52 696.36 965.72 482.06 1171.83 432.87 1064.20 613.69 1037.86 736.94 1217.41 695.97
00006172 00000037 884.61 234.07 484.65 681.96 964.76 481.19 1168.11 435.60 1060.62 615.34 1037.49 739.30 1210.99 701.71
00006173 00000038 884.66 236.84 484.83 681.66 964.77 482.83 1170.21 436.92 1062.21 617.05 1037.10 740.32 1215.06 702.30
00006174 00000039 883.96 234.34 487.33 685.40 965.41 482.61 1170.82 436.41 1063.66 616.68 1039.46 739.85 1216.24 701.44
00006175 00000040 887.50 234.62 491.83 684.01 972.57 483.44 1178.23 435.15 1075.14 616.46 1048.64 740.64 1222.79 700.32
00006176 00000041 896.84 234.81 487.11 684.08 983.87 485.74 1188.23 436.13 1087.39 618.18 1058.90 741.65 1232.83 700.42
00006177 00000042 900.03 233.72 486.37 681.71 988.79 484.80 1197.80 431.81 1096.96 618.96 1065.83 743.20 1241.66 699.48
00006178 00000043 902.65 225.40 488.81 689.58 991.27 481.82 1206.57 429.31 1103.12 624.22 1068.08 738.62 1252.91 694.92
00006179 00000044 904.88 220.13 487.52 695.48 993.87 480.61 1208.10 428.51 1105.20 623.64 1072.35 738.99 1254.75 695.40
00006180 00000045 906.52 229.69 486.91 685.73 996.13 481.00 1209.17 430.34 1106.47 621.49 1073.33 740.46 1253.52 698.24
00006181 00000046 909.07 236.05 485.17 682.66 996.61 483.21 1209.58 431.07 1106.02 622.17 1074.21 745.36 1253.81 701.94
00006182 00000047 910.36 238.72 486.26 681.16 999.23 483.40 1212.96 433.13 1108.60 621.85 1078.71 747.54 1257.10 705.32
00006183 00000048 912.47 240.39 486.62 679.71 1000.86 485.02 1213.44 433.37 1108.84 622.78 1081.97 748.68 1259.26 705.03
00006184 00000049 912.73 251.59 493.17 670.34 1006.92 495.48 1215.97 440.16 1116.39 627.26 1092.14 753.94 1266.26 707.04
00006185 00000050 913.70 260.73 500.46 662.18 1014.27 499.12 1224.40 440.21 1130.22 628.12 1098.23 750.65 1278.03 701.30
00006186 00000051 916.51 256.19 499.45 663.33 1016.80 496.41 1225.78 438.09 1133.51 625.16 1102.08 750.33 1277.82 701.23
00006187 00000052 920.65 257.39 503.43 662.29 1020.75 496.59 1226.60 436.81 1136.86 624.19 1106.82 750.06 1278.11 698.95
00006188 00000053 933.20 254.29 499.37 667.21 1022.19 471.40 1231.31 436.79 1127.50 621.67 1099.96 736.26 1272.18 706.54
00006189 00000054 935.01 253.60 497.85 668.35 1024.73 472.61 1235.64 436.85 1132.92 623.36 1102.95 740.29 1274.47 709.76
00006190 00000055 935.10 250.23 500.99 675.29 1026.11 472.84 1239.67 437.16 1135.78 626.71 1103.44 743.70 1277.21 713.34
00006191 00000056 937.83 253.37 499.38 675.65 1026.37 471.11 1241.62 437.18 1136.36 629.34 1102.28 744.97 1277.17 716.37
00006192 00000057 938.07 255.83 498.45 674.30 1026.75 468.47 1242.96 436.29 1137.23 627.95 1102.26 744.65 1275.85 717.57
00006193 00000058 942.92 257.64 494.81 676.29 1031.56 471.39 1247.05 437.57 1140.68 629.01 1104.35 747.13 1279.63 718.78
00006194 00000059 946.17 256.25 491.46 677.11 1032.53 472.22 1246.53 438.68 1139.35 630.25 1104.10 747.36 1279.33 719.35
00006195 00000060 947.32 259.17 491.33 674.95 1033.39 472.96 1248.47 439.27 1140.73 629.81 1103.97 747.26 1280.79 719.13
00006196 00000061 947.58 254.03 493.24 679.73 1035.81 475.81 1248.73 440.76 1142.75 630.41 1106.50 748.04 1282.57 718.81
00006197 00000062 949.74 248.42 493.90 686.49 1037.96 472.54 1252.37 438.99 1146.57 629.61 1108.95 747.06 1285.35 719.29
00006198 00000063 950.74 246.98 493.77 688.46 1038.55 473.34 1252.61 438.21 1147.18 629.21 1109.99 747.28 1287.15 718.26
00006199 00000064 954.53 244.83 491.50 692.96 1041.66 478.35 1253.80 439.81 1149.48 631.71 1114.06 748.82 1292.46 716.87
00006200 00000065 954.60 245.57 492.89 693.14 1042.15 480.00 1255.17 440.69 1150.60 633.77 1115.07 751.02 1294.81 718.36
00006201 00000066 953.49 240.73 494.28 698.71 1041.55 480.62 1255.18 441.54 1150.86 634.26 1114.36 750.31 1295.88 717.73
00006202 00000067 955.06 242.43 492.30 697.06 1042.38 480.45 1254.85 442.74 1150.53 634.36 1113.93 749.65 1294.35 718.21
00006203 00000068 954.40 245.62 492.06 694.36 1041.60 479.38 1254.03 441.60 1149.49 633.19 1112.04 749.33 1293.69 717.84
00006204 00000069 953.59 248.87 490.39 690.16 1040.81 478.67 1253.10 440.60 1148.68 632.30 1111.04 748.80 1292.14 717.05
00006205 00000070 949.74 243.80 492.95 695.42 1036.17 478.75 1246.68 441.77 1141.98 635.70 1106.03 748.49 1288.63 717.64
00006206 00000071 946.84 241.68 490.64 696.87 1032.02 480.18 1241.07 446.33 1136.57 641.17 1102.53 749.02 1282.24 720.86
00006207 00000072 943.82 240.09 494.19 700.06 1031.44 482.58 1240.80 450.60 1135.91 643.47 1100.56 747.55 1281.08 721.10
00006208 00000073 938.15 244.33 498.74 693.02 1026.52 483.14 1236.37 452.96 1132.11 643.93 1098.00 746.97 1276.98 721.75
00006209 00000074 933.73 245.16 500.68 698.51 1024.31 483.46 1233.16 452.64 1129.78 644.64 1096.58 749.18 1275.20 723.22
00006210 00000075 934.29 245.95 498.38 702.45 1024.72 482.38 1233.83 450.29 1130.47 643.00 1097.12 751.60 1276.72 724.54
00006211 00000076 929.45 250.06 503.29 700.06 1022.06 485.38 1236.09 449.69 1133.19 641.38 1094.93 755.14 1280.61 725.10
00006212 00000077 933.91 250.03 498.48 703.24 1024.52 495.79 1240.85 456.37 1137.44 646.00 1096.57 759.15 1286.00 725.82
00006213 00000078 934.45 257.81 495.61 695.05 1025.09 498.97 1240.89 460.00 1138.07 650.12 1097.03 761.86 1285.02 728.91
00006214 00000079 918.32 279.38 501.84 671.98 1014.48 511.46 1231.49 468.68 1128.00 660.34 1090.48 769.59 1273.75 733.42
00006215 00000080 911.55 288.57 500.81 666.12 1013.68 523.38 1235.56 471.95 1136.71 676.99 1089.57 780.31 1279.57 736.88
00006216 00000081 905.39 288.88 500.88 660.87 1008.93 526.82 1228.69 474.07 1132.71 677.52 1081.43 777.63 1273.36 733.45
00006217 00000082 902.00 272.45 494.46 671.10 998.55 515.15 1221.54 463.05 1118.79 670.19 1072.39 773.86 1266.62 729.46
00006218 00000083 896.14 261.78 491.27 682.37 990.05 513.17 1211.86 461.69 1106.07 671.10 1060.84 772.33 1255.86 728.49
00006219 00000084 892.78 268.61 495.74 679.16 986.71 517.45 1207.01 467.05 1100.78 671.82 1055.29 772.59 1250.82 729.86
00006220 00000085 884.17 280.82 497.30 668.81 979.47 522.24 1199.76 473.20 1097.82 677.19 1048.45 779.36 1238.78 738.54
00006221 00000086 880.47 285.12 494.83 665.79 976.73 525.43 1193.39 476.73 1094.51 677.65 1043.44 779.82 1230.97 739.62
00006222 00000087 879.37 279.25 495.62 668.12 978.13 524.93 1191.89 478.17 1094.11 676.44 1043.36 778.04 1227.42 739.97
00006223 00000088 877.81 273.05 488.08 670.26 975.01 517.91 1188.99 472.79 1087.16 668.27 1038.52 772.47 1223.17 735.80
00006224 00000089 869.21 274.74 487.67 669.20 967.19 516.46 1178.76 471.42 1078.94 665.80 1032.19 769.60 1217.05 733.44
00006225 00000090 865.57 278.76 489.62 665.58 962.67 518.96 1172.24 473.49 1074.02 666.02 1028.04 771.51 1211.65 735.31
00006226 00000091 854.21 282.51 490.25 669.81 948.76 528.30 1162.74 477.18 1066.01 672.31 1024.00 781.58 1209.83 739.87
00006227 00000092 841.97 283.17 494.27 670.60 935.60 532.21 1150.11 479.33 1051.49 676.89 1017.82 785.73 1201.85 741.67
00006228 00000093 834.80 285.91 495.99 665.53 930.43 531.81 1144.05 480.56 1045.88 672.29 1013.71 782.35 1194.08 739.19
00006229 00000094 818.99 281.52 510.07 670.93 918.84 531.14 1135.21 477.93 1036.07 669.67 1004.75 779.77 1191.85 733.84
00006230 00000095 808.30 290.46 510.64 673.99 915.47 530.49 1135.09 475.74 1039.11 686.14 1001.40 789.15 1186.82 742.13
00006231 00000096 807.46 297.64 506.95 664.90 908.79 534.23 1125.37 480.32 1035.21 684.54 993.64 790.31 1168.59 743.28
00006232 00000097 805.28 272.27 502.81 681.85 898.67 542.48 1117.40 474.77 1020.95 691.83 996.67 797.54 1176.08 740.06
00006233 00000098 801.76 261.23 500.63 695.32 894.25 543.62 1110.53 487.19 1013.16 700.92 991.87 796.74 1170.79 748.65
00006234 00000099 798.25 273.20 503.90 691.81 892.06 544.74 1108.63 488.58 1007.34 702.58 985.77 795.94 1171.75 747.74
00006235 00000100 798.07 299.00 506.07 675.24 884.99 555.52 1098.73 501.16 999.32 706.58 980.51 811.58 1153.66 763.07
00006236 DELETE   794.89 323.69 493.46 669.80 877.67 561.89 1077.79 508.47 979.65 708.63 974.04 819.37 1141.35 771.73
00006237 DELETE   797.96 339.27 484.73 660.46 872.53 564.66 1062.82 516.36 964.20 709.44 963.81 820.59 1130.55 778.61
00006238 DELETE   800.78 344.89 469.61 660.86 859.20 561.75 1041.19 518.86 932.82 711.03 947.50 818.96 1115.26 780.89
00006239 00000104 785.47 334.95 472.02 651.05 847.71 558.80 1021.12 519.26 914.16 712.29 933.72 812.28 1084.58 775.92
00006240 00000105 784.74 335.22 473.54 647.35 843.28 560.44 1019.23 519.01 911.65 707.29 924.89 810.21 1078.35 773.23
00006241 00000106 783.58 333.15 471.03 642.82 840.56 558.84 1019.63 520.94 907.90 701.80 917.50 806.71 1071.46 773.47
00006242 00000107 783.70 337.11 469.39 641.77 840.66 554.81 1018.01 526.01 901.68 700.30 910.02 805.22 1059.67 779.87
CROP_BBOX: 420 0 1685 1263
