Video ID: 	RlQx8rh70ew
H: 	1080
W: 	1920
FPS: 	25.0

FRAME INDEX X0 Y0 W H [Landmarks (5 Points)]

00004910 00000000 434.97 125.00 494.04 703.85 743.23 380.49 891.84 389.38 920.72 510.19 758.65 645.74 874.15 654.19
00004911 00000001 429.63 114.27 494.48 709.09 743.85 374.03 885.35 383.97 920.72 499.49 759.78 637.52 871.42 647.33
00004912 00000002 438.65 120.85 489.90 697.82 741.93 366.82 886.25 376.15 919.51 489.36 761.31 631.48 875.40 641.50
00004913 00000003 450.97 99.56 480.34 706.74 748.77 341.64 912.18 368.14 926.79 490.95 750.08 612.55 884.93 634.89
00004914 00000004 438.21 83.21 494.53 715.79 737.93 338.58 915.82 361.60 924.32 468.93 743.98 611.70 883.85 631.44
00004915 00000005 430.67 77.14 501.47 722.26 732.44 337.33 913.04 354.05 920.70 472.59 732.73 608.08 878.23 623.60
00004916 DELETE   421.16 86.75 503.54 712.48 726.69 339.88 907.40 357.74 913.57 479.33 720.82 605.50 868.25 622.49
00004917 00000007 419.59 89.40 501.01 710.27 724.20 338.12 902.01 357.04 908.53 479.05 712.53 601.56 859.26 619.79
00004918 00000008 416.93 92.84 501.00 708.53 722.59 336.24 895.99 359.69 905.43 474.68 703.22 593.48 852.47 615.56
00004919 00000009 415.13 95.53 498.91 706.60 722.70 338.57 890.89 355.88 907.30 479.65 696.66 592.08 845.23 609.60
00004920 00000010 420.45 96.27 496.24 707.22 725.81 340.62 894.54 362.11 907.79 485.67 696.13 592.95 846.85 613.69
00004921 00000011 418.10 107.85 498.45 707.78 725.83 347.56 879.99 369.74 906.84 482.25 695.79 593.55 837.76 616.95
00004922 00000012 425.44 100.57 489.86 706.33 727.48 342.00 891.67 361.41 908.94 487.57 691.48 593.00 843.21 612.63
00004923 00000013 421.67 108.90 497.10 706.79 729.97 348.97 883.30 368.21 910.14 484.44 697.23 594.51 839.98 615.84
00004924 00000014 430.22 112.34 495.02 704.88 734.50 346.12 884.77 365.06 914.51 477.26 704.35 592.64 846.74 613.71
00004925 00000015 434.70 109.19 493.77 706.96 742.31 342.16 888.43 364.08 920.19 474.32 711.88 591.51 847.44 615.29
00004926 00000016 442.54 109.19 483.81 697.54 747.00 340.98 899.76 362.80 922.40 480.46 711.33 591.00 853.61 612.15
00004927 00000017 445.43 107.20 480.62 699.84 745.30 342.00 896.83 360.37 921.54 478.06 709.95 590.66 852.72 609.22
00004928 00000018 440.15 96.12 486.20 709.50 744.01 338.42 897.00 356.34 923.49 471.98 712.42 588.61 854.41 606.83
00004929 00000019 441.06 104.41 487.60 701.81 745.04 339.88 899.57 360.67 920.66 475.36 710.58 589.78 854.55 610.19
00004930 00000020 443.07 102.80 486.92 704.28 747.38 339.97 901.65 357.52 924.78 480.42 711.96 593.16 853.52 611.66
00004931 00000021 452.13 105.99 480.41 699.39 753.45 337.46 906.12 362.97 935.47 487.13 707.32 591.14 855.60 614.01
00004932 00000022 457.66 112.02 477.91 693.36 754.52 337.20 908.96 364.28 936.65 487.88 707.92 589.73 858.58 614.38
00004933 00000023 441.69 106.94 492.82 711.49 747.56 343.57 893.70 364.09 924.15 474.80 719.05 593.67 853.79 615.80
00004934 00000024 455.67 103.23 470.33 698.99 746.64 333.20 895.54 355.70 930.56 476.42 704.38 585.58 850.93 606.00
00004935 00000025 444.72 105.30 480.35 703.39 741.05 336.58 891.60 353.57 918.29 470.74 710.37 589.01 849.95 605.99
00004936 00000026 436.31 110.74 487.98 709.70 736.86 342.33 879.61 362.57 916.02 466.53 711.56 591.20 844.75 613.33
00004937 00000027 435.37 113.55 488.22 702.18 736.77 338.90 879.60 361.51 916.72 463.58 711.90 587.88 842.85 611.86
00004938 00000028 451.20 117.64 469.15 689.60 740.56 337.37 886.69 354.58 913.83 470.63 711.16 590.48 845.24 607.95
00004939 00000029 458.51 118.72 467.07 688.51 748.02 339.05 891.56 361.10 918.70 470.23 718.09 588.34 849.49 609.37
00004940 00000030 465.50 118.71 465.37 689.38 752.73 338.14 895.03 361.18 922.81 470.43 723.10 590.16 851.53 612.52
00004941 00000031 477.45 117.46 455.30 677.14 757.21 329.01 894.12 365.65 936.14 468.90 722.39 574.53 850.22 606.91
00004942 00000032 467.58 114.19 463.29 690.25 756.51 338.55 896.63 360.96 925.44 466.97 736.63 592.54 858.40 613.27
00004943 00000033 458.69 108.73 472.29 693.06 757.77 334.46 896.70 354.92 929.93 463.48 743.39 591.47 862.58 609.88
00004944 00000034 464.91 116.70 467.48 678.71 766.48 339.27 888.59 363.04 936.69 474.36 744.44 585.83 855.30 607.87
00004945 00000035 466.07 108.36 470.39 684.18 772.41 341.35 892.32 368.69 936.36 473.62 754.25 583.91 860.35 608.12
00004946 00000036 483.93 112.74 459.15 680.84 781.64 340.87 898.86 367.59 945.24 474.40 766.86 585.48 869.07 609.20
00004947 00000037 484.28 117.39 462.27 672.97 787.17 343.07 905.46 368.03 947.89 475.12 772.41 586.90 874.47 609.35
00004948 00000038 484.74 117.12 463.43 675.02 785.19 343.95 908.16 366.19 949.81 475.66 775.21 590.61 880.18 610.75
00004949 00000039 482.96 119.92 466.83 673.31 788.17 342.36 911.78 367.66 953.03 476.95 776.26 590.53 880.81 613.29
00004950 00000040 485.91 124.67 467.98 672.22 792.27 348.50 912.14 368.44 953.20 480.48 775.77 592.98 879.99 611.90
00004951 00000041 485.98 135.23 475.18 672.82 802.39 358.08 913.17 377.91 960.36 488.02 792.32 602.69 886.84 622.40
00004952 00000042 493.63 134.87 481.35 677.97 808.56 360.81 931.70 387.18 969.66 486.17 797.57 603.78 903.12 628.08
00004953 00000043 507.50 132.34 482.17 682.70 820.76 363.83 943.97 391.03 981.22 487.35 807.87 608.02 913.18 632.94
00004954 00000044 519.57 133.71 478.42 679.24 827.17 359.31 953.18 385.83 989.70 487.00 815.67 608.41 920.62 632.50
00004955 00000045 533.84 142.35 474.16 668.00 838.47 359.12 962.53 384.57 999.01 498.19 813.94 608.23 918.53 632.42
00004956 00000046 538.06 140.57 470.46 670.96 840.36 356.09 964.57 386.34 1003.10 496.35 813.85 606.93 919.48 635.31
00004957 00000047 538.23 141.83 472.41 672.93 840.51 359.37 965.96 390.94 1002.68 500.27 810.41 609.16 918.10 638.34
00004958 00000048 537.55 142.44 472.76 672.60 838.62 358.12 965.55 389.76 1002.14 498.61 809.93 609.34 917.76 638.50
00004959 00000049 533.67 139.95 474.74 672.91 836.40 357.59 965.63 388.19 999.58 495.81 808.95 607.22 919.17 635.55
00004960 00000050 533.62 130.41 469.69 675.23 833.78 358.56 968.24 386.04 995.42 492.11 814.43 607.91 926.28 631.45
00004961 00000051 532.37 127.60 469.28 673.06 831.33 362.38 966.03 386.50 991.92 496.51 821.65 611.75 929.43 632.35
00004962 00000052 531.26 130.49 470.25 671.92 832.15 363.27 966.41 388.55 991.92 499.94 822.92 614.56 928.43 636.23
00004963 00000053 527.91 126.44 472.30 680.15 832.50 359.80 965.56 389.07 992.37 498.16 822.35 614.15 926.38 638.67
00004964 00000054 517.10 129.60 484.07 689.87 830.99 359.46 957.63 388.50 991.96 489.35 823.16 616.59 923.82 642.21
00004965 00000055 514.00 129.86 485.16 688.43 830.81 360.02 955.42 386.79 993.97 486.93 823.49 614.61 923.55 638.23
00004966 00000056 512.99 124.94 484.57 691.75 829.20 360.38 954.51 385.29 994.42 487.90 824.86 615.78 924.92 638.00
00004967 00000057 510.91 120.95 486.13 694.34 828.08 358.23 951.50 379.60 992.48 485.90 822.66 611.46 922.64 631.21
00004968 00000058 509.49 115.16 486.81 700.23 828.63 358.45 949.24 381.20 991.46 485.95 819.20 608.62 919.21 629.80
00004969 00000059 506.31 117.83 487.91 696.06 826.24 360.14 948.95 383.38 989.54 486.01 815.25 609.29 916.59 630.81
00004970 00000060 509.67 117.21 484.13 697.28 826.85 359.79 949.38 385.11 989.70 486.28 813.12 609.22 914.04 632.73
00004971 00000061 511.07 117.13 484.13 699.12 828.56 358.58 952.18 384.10 992.20 486.19 814.57 609.50 916.44 633.13
00004972 00000062 512.96 115.39 483.02 700.44 827.53 357.18 953.50 386.22 992.10 482.97 813.21 606.99 918.66 633.68
00004973 00000063 513.90 125.45 481.91 688.69 827.61 357.78 954.20 385.78 990.61 485.37 812.53 606.69 917.94 632.46
00004974 00000064 517.51 126.78 484.57 690.13 829.46 359.09 960.33 389.49 991.61 490.84 810.18 609.79 918.72 637.29
00004975 00000065 528.16 142.32 477.04 667.47 833.43 357.77 966.51 392.86 990.28 501.95 803.77 608.26 914.04 640.01
00004976 00000066 528.73 139.69 477.70 673.84 837.37 361.52 967.62 398.57 991.00 509.79 806.55 612.39 913.20 645.40
00004977 00000067 531.73 136.14 477.38 679.56 840.20 367.67 971.48 406.57 996.21 513.53 813.04 618.18 918.41 652.49
00004978 00000068 534.65 134.78 476.38 678.15 846.63 369.22 976.97 405.37 1001.48 517.21 819.05 619.48 923.58 651.96
00004979 00000069 542.11 125.74 472.20 689.59 848.17 372.94 973.28 410.55 1004.73 521.12 821.16 618.05 927.94 651.95
00004980 00000070 533.71 138.28 477.68 679.30 846.36 371.69 978.22 408.41 1006.09 517.00 820.64 624.20 924.94 656.77
00004981 00000071 531.38 138.69 478.63 681.84 841.32 370.80 976.92 411.44 999.94 518.32 813.05 625.66 920.01 661.22
00004982 00000072 526.97 135.99 482.04 678.81 833.30 370.54 976.59 402.99 995.46 514.09 811.11 624.51 924.56 653.18
00004983 00000073 522.65 138.67 485.20 673.49 831.12 368.90 974.49 399.90 995.16 512.54 808.41 623.02 922.42 650.47
00004984 00000074 524.35 136.41 482.83 673.32 830.64 366.99 973.82 398.03 994.18 510.77 808.60 619.83 922.71 647.53
00004985 00000075 520.88 141.67 486.05 675.42 830.17 366.87 972.46 397.76 995.43 512.67 809.61 625.82 920.96 653.12
00004986 00000076 519.83 141.49 487.99 677.09 831.09 368.78 971.64 399.97 995.79 514.67 810.05 627.94 919.57 655.43
00004987 00000077 530.15 138.51 482.54 680.77 837.62 366.90 973.34 400.09 998.78 513.30 810.95 623.23 918.86 652.99
00004988 00000078 534.84 138.85 479.08 682.31 843.13 369.00 974.68 405.44 1004.38 515.43 816.53 623.82 921.34 656.49
00004989 00000079 540.92 134.54 474.02 682.59 845.59 370.08 975.64 405.17 1005.85 513.13 821.91 620.00 926.71 651.69
00004990 00000080 538.83 133.86 477.17 676.69 842.92 372.63 978.18 399.97 1001.84 512.30 823.63 616.92 934.26 642.05
00004991 00000081 535.08 130.18 480.12 679.02 839.54 370.55 977.44 395.57 999.15 510.96 819.46 615.84 933.01 639.05
00004992 00000082 529.27 136.02 482.53 674.19 833.62 368.45 976.62 397.20 995.35 511.31 813.24 618.44 929.53 644.46
00004993 00000083 529.74 136.15 483.53 675.81 832.59 367.77 977.21 396.60 995.64 509.59 813.51 618.11 930.97 644.20
00004994 00000084 529.89 136.50 482.56 675.86 832.62 367.33 976.76 397.55 995.16 509.60 811.33 617.64 928.76 644.93
00004995 00000085 537.22 139.77 475.21 675.09 834.43 367.14 973.80 399.20 998.05 508.54 808.25 617.06 924.68 646.49
00004996 00000086 539.59 137.15 475.55 676.22 838.31 367.22 978.50 405.16 1000.51 508.04 811.08 613.89 928.44 648.01
00004997 00000087 542.16 127.62 474.16 677.53 842.97 365.77 980.57 403.44 1003.18 506.17 814.97 607.79 929.51 642.09
00004998 00000088 539.70 137.65 475.93 670.34 841.98 368.01 981.11 404.62 1000.03 510.78 815.65 611.93 929.91 644.97
00004999 00000089 536.23 136.33 479.14 675.09 840.08 369.19 977.21 403.30 998.10 512.34 813.29 615.12 926.73 645.97
00005000 00000090 536.22 135.93 479.10 674.72 841.09 370.54 976.58 401.59 997.70 512.91 815.84 614.47 928.19 642.86
00005001 00000091 539.23 130.75 477.71 676.51 847.41 370.01 977.66 399.50 1001.19 512.28 820.87 610.82 929.72 638.15
00005002 00000092 536.05 130.69 479.34 674.21 845.58 369.52 975.83 397.72 1002.22 511.82 825.12 615.27 930.67 641.57
00005003 00000093 531.81 129.75 482.99 675.34 841.78 370.28 977.02 394.00 1001.23 515.76 824.91 620.47 933.27 642.83
00005004 00000094 529.85 132.99 482.89 675.76 841.80 370.56 976.50 396.40 1000.88 514.43 825.88 622.47 931.45 646.13
00005005 00000095 533.12 129.02 482.48 679.20 845.41 373.06 978.02 398.16 1001.84 515.75 830.30 621.35 935.00 644.30
00005006 00000096 536.38 128.60 478.93 680.89 849.84 374.14 978.18 401.74 1005.43 515.31 832.49 619.98 934.83 645.15
00005007 00000097 533.13 132.30 482.86 680.06 847.20 379.76 979.63 409.15 1004.27 517.38 833.75 623.96 937.86 649.97
00005008 00000098 535.11 128.20 481.23 683.98 846.83 378.44 977.69 403.44 1007.28 512.87 834.11 620.79 939.96 643.84
00005009 00000099 548.44 123.43 469.55 687.54 849.16 373.36 980.61 399.66 1007.98 512.36 834.30 618.21 942.81 641.97
00005010 00000100 550.63 125.99 469.37 680.29 850.96 368.91 979.99 394.82 1007.27 507.46 839.61 614.84 946.21 638.32
00005011 00000101 538.30 134.88 480.65 672.78 846.98 371.37 976.26 397.47 1005.80 506.70 836.60 617.03 939.32 641.14
00005012 00000102 540.76 140.86 477.82 671.96 842.79 371.84 977.00 400.93 1002.37 508.26 828.54 616.50 937.69 642.78
00005013 00000103 538.79 138.53 479.96 675.45 842.66 372.86 979.92 401.97 1004.41 508.14 826.29 616.54 938.51 642.84
00005014 00000104 539.48 136.82 480.16 677.86 843.70 370.98 981.25 401.59 1005.68 509.54 826.87 619.93 937.73 647.71
00005015 00000105 548.36 139.46 477.07 682.76 853.16 378.03 990.75 413.78 1017.72 512.16 837.90 627.66 948.51 659.28
00005016 00000106 543.29 141.12 483.43 676.90 856.49 371.87 990.82 407.62 1017.63 511.00 836.14 621.38 945.80 653.44
00005017 00000107 550.39 141.03 481.27 672.43 861.18 370.17 997.79 403.82 1023.82 508.10 841.66 618.46 953.32 648.97
00005018 00000108 554.49 137.44 478.48 674.26 860.32 369.18 998.40 402.70 1023.88 506.68 842.42 617.24 955.11 647.71
00005019 DELETE   546.95 147.28 482.71 666.49 858.76 372.07 995.95 404.55 1022.92 509.26 841.58 621.87 952.51 651.20
CROP_BBOX: 197 0 1250 979
