Video ID: 	BwlyuJ5sSME
H: 	1080
W: 	1920
FPS: 	25.0

FRAME INDEX X0 Y0 W H [Landmarks (5 Points)]

00118680 00000000 415.79 35.90 268.91 369.46
00118681 00000001 414.33 36.46 269.29 369.92
00118682 00000002 412.88 37.02 269.68 370.38
00118683 00000003 411.42 37.58 270.07 370.83
00118684 00000004 409.96 38.15 270.46 371.29
00118685 00000005 769.50 132.69 395.47 535.77 810.97 313.67 944.42 329.61 823.24 411.32 842.72 511.83 927.09 523.94
00118686 00000006 765.13 135.46 396.68 540.76 804.68 309.56 943.70 329.30 812.64 411.37 831.45 514.18 920.47 529.43
00118687 00000007 767.55 134.20 395.57 535.77 806.64 311.68 942.14 330.50 812.18 409.70 834.07 510.19 920.03 524.22
00118688 00000008 767.10 132.55 399.81 536.49 807.81 309.73 945.63 329.48 816.24 409.45 836.82 509.79 921.76 524.52
00118689 00000009 769.61 132.39 397.14 540.51 807.26 312.08 947.77 329.09 815.76 410.34 836.83 515.52 922.21 528.10
00118690 00000010 766.46 133.42 403.05 546.22 804.60 310.54 949.42 332.72 812.01 412.11 831.20 517.73 919.18 534.41
00118691 DELETE   768.76 126.71 401.41 563.65 810.18 310.50 961.97 336.07 825.60 421.02 843.37 523.61 935.17 543.15
00118692 00000012 765.90 128.05 401.61 556.77 807.78 304.27 957.55 331.76 818.25 414.60 830.40 511.51 929.80 532.78
00118693 00000013 767.02 126.81 406.32 555.40 811.95 295.84 966.28 328.66 820.30 406.35 819.18 505.62 924.09 531.39
00118694 00000014 764.18 126.25 407.70 544.09 812.80 293.01 970.63 323.71 831.75 406.27 823.64 501.00 932.03 524.86
00118695 DELETE   762.44 125.71 408.71 541.73 814.29 292.99 980.50 320.67 843.54 410.41 828.96 502.64 942.61 523.61
00118696 00000016 764.07 118.98 411.96 559.23 823.09 294.47 986.00 315.95 849.44 404.32 839.30 504.79 955.43 519.26
00118697 00000017 760.27 118.65 412.76 576.26 826.87 295.04 995.09 315.59 857.18 404.67 838.14 514.02 960.52 527.66
00118698 00000018 774.37 111.40 407.61 594.73 838.21 294.38 995.92 313.01 881.02 405.44 858.25 514.98 976.80 528.81
00118699 00000019 771.60 111.73 413.75 584.60 845.43 298.15 1001.88 313.33 884.46 408.29 860.28 518.57 982.74 532.41
00118700 00000020 766.98 107.71 416.00 609.26 844.10 302.54 1012.79 310.11 891.56 405.31 863.95 531.47 997.04 539.16
00118701 00000021 763.32 99.63 423.86 623.49 842.51 301.23 1015.20 306.52 896.18 405.75 863.83 533.23 1003.10 538.40
00118702 00000022 763.31 99.51 425.67 617.16 845.25 298.30 1021.07 305.82 902.14 406.32 866.03 531.12 1006.57 537.82
00118703 00000023 767.49 96.31 425.13 622.04 849.87 293.37 1028.35 303.92 906.82 403.10 863.43 526.72 1013.03 535.21
00118704 00000024 771.90 97.71 420.22 611.72 850.23 296.28 1030.50 304.61 910.74 402.80 868.14 526.84 1009.71 533.80
00118705 00000025 773.27 97.61 422.37 622.79 856.87 294.70 1038.05 306.76 913.90 406.04 868.82 529.28 1015.15 539.34
00118706 00000026 773.05 99.66 421.75 621.22 857.85 297.83 1041.05 307.49 916.22 407.51 871.45 530.86 1019.39 538.81
00118707 00000027 772.38 106.51 426.04 608.00 858.04 294.92 1045.01 307.59 917.85 406.52 868.78 524.88 1017.58 535.57
00118708 00000028 773.71 104.23 428.81 606.52 861.18 298.22 1046.46 312.91 919.50 410.48 871.41 521.26 1020.94 533.79
00118709 00000029 774.37 101.36 433.01 617.09 861.07 303.34 1050.98 313.93 923.67 417.53 876.17 531.09 1028.57 539.64
00118710 00000030 784.42 98.11 421.37 613.01 865.82 304.79 1052.74 314.97 926.92 419.66 882.81 537.17 1027.41 545.49
00118711 00000031 792.00 98.16 406.63 627.85 868.96 301.56 1043.82 312.63 925.78 418.03 890.06 537.88 1025.02 546.44
00118712 00000032 794.03 93.51 411.28 633.12 869.69 303.89 1042.83 314.14 922.12 418.66 891.07 540.73 1023.97 548.56
00118713 00000033 791.12 89.71 425.10 636.00 866.72 311.55 1052.93 318.86 923.06 423.59 883.63 547.31 1031.87 553.15
00118714 00000034 794.92 95.64 411.25 632.60 865.99 307.44 1040.08 316.58 918.80 425.23 886.91 543.44 1020.34 550.56
00118715 00000035 789.97 97.88 416.40 639.10 864.13 308.25 1040.77 317.44 920.28 429.32 884.02 546.54 1023.96 553.57
00118716 00000036 792.78 94.45 414.90 655.44 871.19 305.79 1044.65 316.00 918.00 420.71 886.95 546.78 1023.89 554.32
00118717 00000037 793.81 97.88 414.06 657.42 871.32 305.62 1043.88 312.88 916.97 420.09 889.66 550.28 1025.16 555.23
00118718 00000038 789.10 94.18 427.69 657.32 869.71 305.16 1053.03 312.54 924.62 429.03 888.21 554.99 1035.29 560.85
00118719 00000039 785.78 96.25 437.31 664.39 870.62 310.28 1057.02 313.25 929.83 427.08 893.80 559.74 1040.84 562.09
00118720 00000040 786.72 97.15 431.44 652.14 870.46 305.63 1048.20 313.55 921.53 420.16 894.19 549.96 1028.27 555.93
00118721 00000041 792.40 92.93 429.11 636.91 869.17 309.88 1046.91 315.31 926.33 423.76 899.10 545.62 1025.91 549.21
00118722 00000042 795.92 90.03 427.73 651.20 870.91 319.62 1045.25 319.65 927.99 432.79 909.36 559.66 1031.31 558.84
00118723 00000043 797.44 92.73 427.37 662.76 871.22 319.15 1050.79 324.15 924.11 441.27 901.84 566.96 1034.00 571.05
00118724 00000044 794.05 98.94 437.93 659.68 873.51 327.68 1062.77 335.69 923.59 442.03 900.99 565.82 1036.21 570.12
00118725 00000045 800.52 95.09 429.94 667.23 880.03 320.68 1065.50 332.52 925.83 442.16 905.27 563.24 1041.67 570.62
00118726 00000046 803.65 92.62 430.24 655.57 883.81 318.67 1063.69 334.00 927.40 438.92 903.41 552.77 1038.01 563.03
00118727 00000047 804.99 90.20 425.90 632.08 886.02 315.78 1065.04 334.71 931.00 437.59 904.70 543.96 1039.72 557.06
00118728 00000048 806.66 93.06 429.99 654.28 887.15 316.51 1066.00 339.51 928.54 439.18 904.43 551.17 1036.36 567.68
00118729 00000049 803.14 94.36 436.71 659.80 883.96 318.51 1067.22 340.19 928.72 442.57 903.01 558.84 1038.69 574.51
00118730 00000050 800.97 96.82 441.60 666.55 884.79 320.98 1066.78 339.98 931.45 445.12 907.73 563.57 1043.06 576.84
00118731 00000051 803.90 93.36 439.69 664.82 886.14 318.48 1067.43 338.68 927.80 443.54 907.07 560.42 1037.16 574.69
00118732 00000052 807.80 93.81 437.36 655.37 886.83 315.92 1066.42 335.88 926.57 442.47 907.43 555.76 1035.35 570.21
00118733 00000053 808.53 94.90 445.01 661.11 891.72 313.55 1069.83 331.15 932.37 436.98 912.32 556.44 1044.96 569.16
00118734 00000054 800.62 96.07 450.99 667.49 883.78 310.25 1066.31 321.29 933.67 440.46 909.58 566.77 1050.08 575.38
00118735 00000055 813.78 102.35 426.65 686.99 894.73 302.35 1075.48 316.50 947.56 427.58 910.83 570.97 1055.04 580.59
00118736 00000056 810.75 106.08 429.73 685.44 895.86 302.71 1074.43 316.65 949.13 428.91 913.12 568.44 1060.12 577.33
00118737 00000057 804.80 107.13 436.90 692.30 897.80 301.42 1077.15 319.47 948.07 431.15 908.63 567.12 1057.88 579.70
00118738 00000058 794.82 104.43 450.61 701.23 892.08 301.12 1081.16 318.00 950.77 435.39 904.03 571.58 1062.61 583.47
00118739 00000059 793.92 103.78 451.58 687.60 892.17 296.45 1082.77 319.19 947.85 429.32 894.66 554.41 1057.23 571.73
00118740 00000060 798.80 111.33 444.20 641.34 892.23 304.47 1079.74 320.00 953.04 429.18 904.04 546.48 1054.33 558.86
00118741 00000061 796.16 115.43 442.44 631.09 897.99 312.18 1079.01 330.13 953.14 432.62 908.90 546.55 1052.76 560.37
00118742 00000062 799.65 120.52 443.46 625.64 897.62 318.14 1077.58 331.42 952.81 436.18 913.77 551.60 1053.31 561.43
00118743 00000063 798.39 120.12 452.23 627.63 895.84 315.15 1077.12 329.91 951.31 437.03 911.88 554.12 1048.34 565.90
00118744 00000064 801.66 117.06 451.40 635.55 895.14 315.08 1075.92 331.80 947.08 438.78 910.45 557.46 1045.90 570.69
00118745 00000065 801.42 123.32 449.41 627.22 886.85 314.14 1068.41 328.44 936.14 444.61 908.06 558.44 1040.32 570.69
00118746 00000066 802.48 106.50 449.17 628.09 884.02 309.17 1070.17 327.11 935.87 444.76 902.10 550.92 1043.83 565.46
00118747 00000067 799.62 104.66 450.40 638.71 883.04 307.84 1069.64 325.67 933.99 444.20 899.20 552.68 1039.26 567.09
00118748 00000068 800.96 99.77 459.59 670.51 893.96 307.51 1080.71 329.96 943.88 439.76 905.48 559.63 1045.99 577.50
00118749 00000069 796.64 103.60 466.88 674.02 891.99 308.86 1082.13 330.00 947.63 439.91 904.70 562.67 1048.01 579.52
00118750 00000070 802.81 102.00 454.47 674.93 894.89 309.42 1082.58 328.55 948.64 439.54 914.16 565.94 1051.01 581.16
00118751 00000071 819.41 101.42 442.79 671.01 896.84 305.72 1081.89 323.06 933.94 440.50 908.79 561.99 1051.01 576.03
00118752 00000072 807.09 104.57 455.83 681.48 893.14 288.86 1085.61 317.39 943.46 424.76 899.16 550.82 1058.14 573.04
00118753 00000073 816.30 103.20 453.16 686.77 896.95 290.57 1084.87 312.51 950.68 420.99 907.30 556.56 1063.85 573.21
00118754 00000074 815.21 100.73 455.54 687.92 899.90 291.14 1090.15 309.76 959.17 420.88 908.67 560.64 1062.76 575.40
00118755 00000075 827.86 97.39 449.30 668.53 901.01 293.23 1087.77 302.52 946.04 424.24 919.97 558.64 1062.87 565.74
00118756 00000076 820.25 95.21 458.38 657.09 902.86 295.87 1093.82 313.58 953.94 430.07 909.87 553.84 1056.22 568.49
00118757 00000077 829.53 89.01 453.65 664.67 905.68 296.11 1100.18 309.59 961.69 421.58 917.03 550.67 1067.07 562.28
00118758 00000078 831.73 89.45 457.27 645.75 909.58 294.77 1102.89 312.86 964.91 420.12 922.57 540.00 1069.97 555.34
00118759 00000079 831.72 85.66 462.26 662.60 914.44 298.28 1107.31 316.22 966.82 421.14 923.76 546.28 1070.32 561.42
00118760 00000080 826.86 86.60 470.32 665.35 915.90 296.29 1111.46 316.44 970.03 422.17 924.26 548.38 1068.94 565.82
00118761 00000081 832.61 93.46 466.09 669.71 919.36 293.48 1105.90 311.18 961.06 420.95 934.05 555.93 1072.12 569.82
00118762 00000082 825.90 81.48 471.77 677.01 913.65 296.57 1109.20 316.42 967.61 424.61 921.37 551.42 1067.40 568.49
00118763 00000083 831.41 89.14 462.15 665.89 916.68 296.02 1106.07 311.04 961.41 420.13 932.12 557.18 1070.44 568.49
00118764 00000084 829.01 86.80 466.60 665.31 911.22 299.73 1110.10 318.85 969.76 428.60 924.71 554.78 1070.69 571.20
00118765 00000085 829.37 86.84 464.76 671.13 911.74 298.84 1109.89 316.14 966.79 424.82 921.73 556.34 1071.15 571.12
00118766 00000086 833.15 88.14 464.75 669.42 917.62 292.82 1105.93 309.38 959.57 420.69 929.15 554.44 1071.11 567.70
00118767 00000087 835.58 86.38 468.59 664.65 921.10 291.28 1107.10 314.23 958.45 423.12 932.44 549.09 1074.68 567.93
00118768 00000088 836.64 86.79 467.33 662.08 923.42 291.85 1107.85 313.27 961.06 422.69 935.96 549.42 1075.85 566.93
00118769 00000089 837.71 87.39 468.20 678.14 926.04 293.50 1109.61 310.92 964.12 422.84 939.48 556.14 1077.12 570.79
00118770 00000090 840.96 89.98 463.46 679.99 929.67 294.89 1111.15 312.41 965.98 422.34 941.68 558.08 1080.59 572.62
00118771 00000091 843.82 88.89 459.62 673.72 929.70 296.25 1110.66 310.03 968.02 420.09 942.54 557.46 1079.83 568.76
00118772 00000092 850.35 90.65 453.69 659.56 931.32 296.08 1108.68 309.08 973.20 420.23 949.32 553.74 1081.50 563.50
00118773 00000093 855.50 93.74 447.60 665.92 932.26 299.85 1111.28 311.37 972.96 423.17 949.95 561.39 1080.84 570.43
00118774 00000094 853.82 93.38 443.78 665.12 932.27 299.29 1111.19 311.12 976.04 423.41 950.23 560.75 1081.01 570.29
00118775 00000095 850.31 92.81 448.55 664.00 933.18 299.63 1111.81 313.15 976.57 423.91 952.15 559.84 1081.61 570.38
00118776 00000096 847.07 96.72 452.28 648.43 932.22 296.13 1113.57 313.68 974.57 420.45 947.66 548.86 1081.11 562.31
00118777 00000097 837.34 91.24 464.39 673.82 926.36 296.15 1110.27 314.38 970.89 425.31 943.64 556.20 1079.34 571.00
00118778 00000098 819.36 92.92 478.69 679.64 914.29 307.48 1116.86 327.06 967.44 437.85 918.48 564.34 1077.08 581.17
00118779 00000099 812.73 90.26 474.60 663.24 904.33 316.00 1113.93 341.18 966.14 450.34 909.40 564.12 1067.54 586.48
00118780 00000100 818.07 94.21 472.15 656.82 899.12 316.12 1109.00 335.81 958.55 445.44 906.30 568.60 1062.54 586.41
00118781 00000101 438.82 15.64 322.39 437.22
00118782 00000102 438.10 15.67 322.33 436.88
00118783 00000103 437.38 15.70 322.27 436.55
00118784 00000104 436.67 15.73 322.21 436.21
00118785 00000105 437.55 16.45 321.95 435.74
00118786 00000106 438.44 17.16 321.68 435.28
00118787 00000107 439.32 17.87 321.42 434.81
00118788 00000108 440.21 18.59 321.16 434.35
00118789 00000109 441.09 19.30 320.90 433.88
00118790 00000110 442.00 18.78 320.53 433.81
00118791 00000111 442.91 18.26 320.17 433.74
00118792 00000112 443.82 17.74 319.80 433.67
00118793 00000113 444.73 17.22 319.43 433.60
00118794 00000114 445.65 16.70 319.06 433.53
00118795 00000115 446.03 15.92 318.68 432.93
00118796 00000116 446.42 15.14 318.30 432.33
00118797 00000117 446.81 14.36 317.92 431.74
00118798 00000118 447.20 13.58 317.54 431.14
00118799 00000119 447.58 12.80 317.16 430.54
00118800 00000120 447.04 13.34 317.34 429.87
00118801 00000121 862.16 86.16 436.20 630.01 929.89 288.31 1110.56 318.65 963.88 416.08 940.72 533.37 1070.59 556.80
00118802 00000122 861.03 83.43 437.21 633.50 930.78 290.23 1108.42 320.58 965.19 416.59 942.92 532.00 1072.70 555.03
00118803 00000123 863.40 93.83 432.66 620.12 930.31 289.58 1108.32 319.66 961.67 414.78 940.14 531.77 1069.68 554.27
00118804 00000124 864.62 89.17 430.87 627.13 930.72 290.50 1106.16 318.93 961.20 415.28 941.02 533.08 1067.57 554.59
00118805 00000125 865.37 84.12 429.16 629.41 931.26 290.05 1105.10 318.73 960.65 414.38 940.20 531.23 1066.42 553.22
00118806 00000126 859.43 77.86 440.58 639.27 930.37 290.55 1108.66 320.91 961.86 415.29 939.33 533.31 1070.27 556.36
00118807 00000127 858.46 81.17 445.00 636.93 930.53 288.53 1112.53 318.84 966.51 416.85 938.35 534.39 1070.89 557.52
00118808 00000128 858.21 85.54 447.11 634.06 929.74 292.34 1113.27 317.37 968.85 417.80 942.73 537.94 1073.56 556.75
00118809 00000129 855.18 84.49 451.97 644.92 930.31 292.03 1114.43 322.06 969.16 421.93 939.28 539.84 1073.37 563.03
00118810 00000130 855.46 82.29 457.39 658.63 934.22 290.41 1114.58 320.19 968.97 418.21 941.08 539.42 1075.99 562.45
00118811 00000131 852.41 79.41 462.86 664.05 930.56 292.26 1116.62 321.80 966.72 419.55 939.19 542.19 1079.00 565.06
00118812 00000132 852.87 80.34 463.31 661.14 931.62 293.36 1116.73 321.21 968.79 418.15 940.83 542.51 1078.65 563.97
00118813 00000133 853.32 81.71 465.97 659.63 933.52 293.63 1120.04 322.66 971.85 420.01 938.40 540.88 1080.31 563.77
00118814 00000134 854.45 82.88 461.95 663.54 936.37 292.41 1124.33 324.91 973.43 421.44 937.46 544.10 1079.43 570.46
00118815 00000135 856.98 81.21 458.16 659.07 936.94 292.61 1124.38 326.46 974.70 426.41 938.56 542.82 1081.74 570.44
00118816 00000136 858.16 88.02 450.52 650.31 938.47 291.34 1123.28 325.39 976.01 422.24 937.76 540.33 1079.69 568.03
00118817 00000137 857.06 87.91 453.12 652.47 935.95 293.09 1123.37 323.90 974.76 424.03 937.64 544.68 1078.85 569.86
00118818 00000138 860.40 92.12 448.24 634.87 939.69 293.59 1124.83 325.26 976.92 421.62 939.47 538.21 1077.97 564.23
00118819 00000139 858.49 93.40 452.34 632.31 940.11 295.63 1126.16 326.47 978.68 419.61 938.26 536.20 1076.92 561.59
00118820 00000140 858.99 93.44 458.67 634.54 940.09 296.22 1126.00 325.31 976.82 419.00 940.92 535.31 1080.33 558.81
00118821 00000141 858.64 88.83 471.42 647.63 943.54 298.06 1130.13 329.79 984.57 410.65 943.42 523.86 1095.08 549.65
00118822 00000142 857.12 84.74 474.00 654.89 945.34 294.81 1134.06 331.38 987.91 413.01 943.20 522.07 1095.64 551.85
00118823 00000143 853.77 83.58 479.56 656.40 941.70 296.19 1134.43 332.08 987.17 414.37 939.82 524.39 1092.78 553.72
00118824 00000144 858.26 84.95 474.79 654.34 942.66 297.79 1135.08 333.58 989.17 418.68 943.52 527.09 1094.99 556.22
00118825 00000145 856.11 94.93 468.54 628.31 933.34 298.47 1129.97 327.20 977.52 424.15 937.31 540.68 1078.51 563.35
00118826 00000146 856.10 85.56 464.32 637.96 936.16 294.92 1129.30 328.08 972.58 416.48 930.01 533.61 1072.30 560.58
00118827 00000147 858.21 90.74 460.17 636.27 936.58 295.72 1125.94 326.14 971.51 414.38 932.24 535.48 1070.89 560.09
00118828 00000148 859.21 90.39 460.01 632.44 939.51 293.85 1127.36 325.82 973.13 413.05 932.68 529.97 1072.79 555.90
00118829 00000149 857.47 78.66 458.57 642.93 942.53 293.96 1125.41 324.91 978.34 411.33 937.07 525.46 1075.12 550.75
00118830 00000150 854.18 86.14 466.99 642.26 937.90 294.99 1121.67 320.52 975.85 412.16 940.07 530.11 1078.26 550.53
00118831 00000151 851.62 85.12 471.48 643.59 935.54 291.85 1120.26 317.23 973.31 411.71 940.03 530.18 1077.78 550.21
00118832 00000152 848.58 90.22 475.56 646.07 933.64 293.32 1118.32 317.28 971.51 414.63 944.87 540.34 1078.14 558.61
00118833 00000153 852.46 89.60 461.18 647.17 935.47 293.87 1118.95 318.93 977.58 415.72 945.63 538.89 1079.58 558.34
00118834 00000154 848.39 83.26 469.77 650.20 933.30 293.91 1119.28 318.25 977.36 414.90 942.52 537.13 1080.12 556.14
00118835 00000155 849.12 78.52 462.27 645.88 927.02 295.64 1114.76 318.54 973.41 420.06 940.56 537.78 1078.86 555.04
00118836 00000156 850.28 80.57 459.41 639.44 926.58 293.31 1112.26 314.69 972.27 417.30 943.20 536.57 1077.59 552.37
00118837 00000157 851.12 76.47 456.61 644.53 928.61 294.09 1111.40 315.65 973.17 417.56 943.58 537.30 1076.50 553.25
00118838 00000158 848.77 78.53 464.16 647.45 932.36 292.94 1115.36 317.72 975.78 416.87 943.82 532.41 1079.01 551.71
00118839 00000159 855.84 73.61 461.59 648.75 929.68 287.64 1114.62 313.18 969.96 419.59 940.46 533.73 1077.30 553.90
00118840 00000160 858.60 61.36 470.12 681.80 935.87 290.60 1126.85 313.31 986.95 406.66 943.53 526.99 1094.66 545.23
00118841 00000161 853.71 72.19 463.27 666.14 937.48 272.94 1120.41 304.20 968.22 400.47 936.78 524.14 1078.21 548.86
00118842 00000162 858.65 64.81 451.41 670.70 935.55 273.84 1119.07 304.38 967.41 405.61 936.97 526.12 1080.28 550.34
00118843 00000163 866.75 67.75 445.05 660.55 943.28 279.66 1127.43 311.51 975.10 406.89 945.51 521.45 1088.84 546.86
00118844 00000164 861.39 62.90 457.10 673.95 932.12 286.96 1117.59 312.40 983.83 413.63 953.97 530.37 1088.07 550.38
CROP_BBOX: 525 0 1567 954
