Video ID: 	DjQ32w8k6wE
H: 	1080
W: 	1920
FPS: 	25.0

FRAME INDEX X0 Y0 W H [Landmarks (5 Points)]

00068696 00000000 599.94 73.39 418.79 554.25 691.47 278.09 874.16 303.56 735.12 329.59 663.48 457.63 817.29 480.20
00068697 00000001 598.79 75.58 416.98 553.53 687.21 280.16 869.81 304.53 730.04 331.30 659.33 460.33 814.99 481.99
00068698 00000002 594.96 66.11 415.31 554.82 671.19 283.61 864.19 298.20 711.04 350.80 654.96 472.24 823.15 485.03
00068699 00000003 593.45 67.46 414.37 553.54 668.64 283.77 859.76 298.58 707.50 353.25 652.40 471.30 819.04 484.43
00068700 DELETE   593.15 68.14 415.21 552.24 668.43 283.17 859.17 298.53 706.18 352.43 651.61 469.97 817.45 483.48
00068701 DELETE   594.11 64.01 415.27 554.74 669.82 281.45 861.12 297.35 707.44 350.90 651.63 468.49 817.91 482.42
00068702 00000006 595.36 62.72 414.42 553.30 672.94 279.56 864.29 295.91 711.59 348.29 654.67 467.26 820.09 481.67
00068703 00000007 596.98 70.52 418.20 555.81 684.87 276.94 866.65 302.57 725.32 329.58 656.56 457.11 810.87 479.83
00068704 00000008 599.15 71.91 417.88 554.14 688.20 277.42 870.29 302.91 730.49 327.88 659.99 457.05 813.15 479.72
00068705 00000009 601.69 72.20 417.42 553.72 691.30 277.63 873.54 304.80 733.18 330.35 663.01 457.55 815.28 481.48
00068706 00000010 602.34 75.77 417.61 550.39 693.56 278.57 877.58 306.79 738.09 331.48 665.13 458.25 818.92 482.89
00068707 00000011 603.52 76.63 418.86 550.04 695.51 280.44 880.28 309.27 740.77 333.06 667.33 459.29 823.15 484.23
00068708 00000012 602.35 78.14 420.20 550.33 696.17 281.27 881.54 310.20 743.93 335.82 669.71 459.14 826.84 483.83
00068709 00000013 600.85 79.56 420.91 550.40 696.21 282.10 881.70 310.63 746.84 337.00 671.21 460.23 828.11 484.53
00068710 00000014 600.29 80.23 420.88 549.48 696.30 282.47 882.73 311.46 748.64 338.49 671.34 460.30 830.44 484.79
00068711 00000015 600.97 82.37 420.41 547.24 697.87 283.03 883.89 312.03 751.19 341.09 672.91 460.79 832.32 485.16
00068712 00000016 595.74 76.14 420.77 544.74 686.04 283.76 883.12 305.61 738.61 354.80 670.81 471.18 839.31 489.71
00068713 00000017 593.72 75.73 419.53 546.54 684.00 284.97 880.55 305.61 736.85 354.93 669.09 472.58 837.76 490.02
00068714 00000018 591.15 78.75 417.74 544.46 681.68 286.23 877.41 306.29 734.74 355.85 665.88 473.67 834.16 490.75
00068715 00000019 586.60 77.89 416.68 547.48 678.38 286.54 872.47 307.95 732.97 357.10 662.06 474.87 828.69 492.79
00068716 00000020 582.90 77.27 415.13 548.86 673.93 287.21 867.25 312.11 728.66 360.67 655.74 475.29 823.78 496.03
00068717 00000021 578.85 80.62 413.89 546.40 669.61 289.16 859.95 313.04 724.26 362.83 652.05 474.95 818.51 495.15
00068718 00000022 575.88 80.72 414.39 545.26 664.56 290.11 853.35 313.13 718.81 362.87 649.15 475.52 813.64 495.33
00068719 00000023 573.60 83.10 414.87 541.73 661.64 289.25 849.19 314.07 715.35 365.61 647.06 475.62 809.37 497.05
00068720 00000024 571.89 83.54 415.60 540.55 659.27 288.77 846.01 313.68 712.96 365.61 645.40 475.75 805.93 497.25
00068721 00000025 570.58 83.93 415.81 539.13 658.20 288.32 843.71 313.80 711.85 365.24 644.27 475.50 802.67 497.61
00068722 00000026 569.81 83.57 416.10 538.42 657.20 287.87 843.23 313.37 711.29 364.13 643.33 475.10 802.03 497.25
00068723 00000027 570.17 83.36 415.60 538.26 657.39 287.44 843.09 312.84 711.08 363.65 643.26 474.63 801.87 496.75
00068724 00000028 570.10 84.15 415.87 537.64 658.13 287.38 843.52 312.85 711.61 363.36 643.77 474.75 801.96 496.98
00068725 00000029 570.86 84.29 416.86 538.35 659.16 287.80 845.14 313.34 712.23 364.32 644.79 475.30 802.91 497.51
00068726 00000030 573.29 83.52 415.94 539.29 660.18 288.40 847.04 313.04 712.63 364.36 646.07 475.69 805.67 497.15
00068727 00000031 574.49 83.25 415.04 540.04 661.76 287.89 848.95 312.44 714.14 363.62 646.69 475.50 807.12 496.97
00068728 00000032 575.96 82.54 413.99 540.97 663.03 288.46 850.27 312.27 715.01 363.12 647.55 475.90 808.36 496.72
00068729 00000033 576.78 82.49 413.88 541.40 664.27 289.05 851.04 312.09 716.50 362.98 648.94 475.81 809.91 495.96
00068730 00000034 577.05 83.00 414.49 541.20 665.31 288.73 853.43 311.47 718.47 361.79 650.24 476.25 812.23 495.98
00068731 00000035 577.72 84.18 414.20 540.57 667.24 288.48 855.56 311.57 720.31 359.73 651.98 476.35 813.50 496.29
00068732 00000036 578.35 84.74 414.65 539.94 668.93 288.93 857.21 311.93 722.00 359.67 653.22 476.79 814.42 496.58
00068733 00000037 581.83 80.56 413.14 545.00 670.28 288.82 860.30 309.93 723.74 359.14 655.27 477.71 817.57 495.73
00068734 00000038 584.08 80.10 412.85 550.61 674.03 288.96 864.56 308.35 727.43 359.23 657.85 479.96 819.60 496.55
00068735 00000039 589.09 82.48 406.81 560.79 679.51 291.57 867.28 305.69 731.79 358.06 662.86 484.89 824.64 498.09
00068736 00000040 591.04 83.00 406.58 556.42 680.58 293.15 868.55 305.97 732.26 359.71 665.05 482.93 830.53 494.63
00068737 00000041 592.51 81.11 408.92 551.53 680.10 290.63 870.66 303.02 732.71 357.52 666.60 477.50 835.95 488.76
00068738 00000042 593.37 77.50 416.18 547.59 681.45 288.46 874.40 301.97 735.15 354.69 668.95 472.46 840.07 483.98
00068739 00000043 593.82 75.67 417.60 545.04 683.91 283.52 877.50 297.62 737.31 349.27 670.86 468.08 842.20 479.91
00068740 00000044 603.43 84.78 413.81 544.56 698.30 276.28 883.85 304.34 752.72 335.44 675.14 455.33 839.42 478.11
00068741 DELETE   606.34 83.05 412.84 544.29 704.14 276.54 889.05 304.19 758.87 332.79 681.11 453.91 843.89 476.29
00068742 00000046 608.26 75.48 422.61 541.54 709.51 274.73 900.17 302.31 762.85 343.99 687.83 454.98 855.95 477.40
00068743 DELETE   614.79 72.36 424.12 540.49 715.36 272.52 907.75 302.17 768.84 339.25 693.67 450.36 863.50 474.45
00068744 DELETE   625.03 68.42 420.10 542.85 723.49 274.65 910.69 295.78 779.19 333.94 703.82 453.29 873.17 471.01
00068745 00000049 630.84 68.12 424.05 542.90 729.92 263.82 923.27 297.71 782.68 337.61 706.67 445.76 879.94 473.42
00068746 00000050 637.22 76.15 420.35 538.87 735.49 275.30 921.98 294.93 789.88 337.38 717.33 456.82 884.53 473.78
00068747 00000051 642.41 79.93 417.79 536.64 740.63 277.88 928.07 299.25 795.66 338.82 722.05 458.33 891.33 476.57
00068748 00000052 645.66 80.05 416.35 537.97 743.28 280.78 932.23 302.21 801.21 341.52 725.72 460.91 896.68 478.85
00068749 00000053 649.61 81.66 414.20 540.51 746.02 283.40 936.77 305.71 804.39 345.40 727.12 463.67 899.79 482.46
00068750 00000054 650.33 82.90 414.14 546.60 747.08 285.00 938.69 308.04 805.73 347.27 726.78 467.49 900.28 487.22
00068751 00000055 651.65 83.57 413.58 544.28 747.33 285.42 939.51 308.91 805.86 348.32 728.05 467.71 901.58 487.73
00068752 00000056 654.52 80.95 413.44 545.17 748.33 285.24 942.88 311.41 806.50 350.77 728.27 467.40 903.81 489.26
00068753 00000057 657.60 79.33 414.36 545.08 750.12 286.17 945.75 311.49 809.48 352.30 731.80 467.69 907.90 488.55
00068754 00000058 659.40 76.85 415.83 545.84 754.77 283.62 952.06 311.87 814.75 352.32 735.58 466.98 910.75 490.10
00068755 00000059 661.04 77.36 420.30 543.10 760.44 281.62 958.43 312.25 821.56 348.89 740.61 464.15 914.02 488.80
00068756 00000060 669.65 85.22 418.82 537.44 777.62 278.31 962.35 316.11 841.28 329.47 750.59 448.48 911.32 480.06
00068757 00000061 673.18 82.23 425.10 533.08 783.66 277.17 971.81 313.02 844.67 345.28 754.04 451.63 920.24 481.01
00068758 00000062 676.28 81.25 426.21 531.86 788.87 273.79 973.15 309.80 847.90 341.71 759.95 447.54 922.14 477.16
00068759 00000063 678.85 82.31 425.17 528.10 792.70 272.37 976.14 308.29 849.93 341.28 762.67 446.29 923.61 475.81
00068760 DELETE   685.02 80.49 418.81 528.23 801.74 269.93 971.28 302.46 856.27 338.77 770.69 444.11 913.47 471.39
00068761 00000065 688.15 77.99 418.71 533.35 802.88 268.57 976.96 303.53 859.86 340.05 771.81 447.56 920.44 476.82
00068762 00000066 688.57 79.33 417.84 535.09 803.19 270.06 978.21 304.09 860.99 340.50 774.24 449.67 925.41 478.17
00068763 00000067 686.95 78.40 418.21 537.86 801.50 271.04 979.57 305.77 861.17 341.49 772.64 451.07 926.97 480.16
00068764 00000068 682.51 80.24 423.86 536.52 797.98 270.98 985.85 313.56 855.08 349.39 765.00 450.25 928.62 485.39
00068765 00000069 679.64 81.31 425.58 538.07 796.12 272.62 985.24 315.29 855.62 350.56 763.72 452.15 929.18 487.34
00068766 00000070 676.41 81.80 428.87 539.50 793.08 274.80 984.36 317.82 854.60 352.06 760.15 454.11 928.00 489.55
00068767 00000071 673.26 84.40 430.57 539.64 791.08 277.63 982.28 319.65 855.03 352.86 758.10 456.46 926.11 491.11
00068768 00000072 670.39 86.33 430.01 538.60 786.59 279.33 979.05 319.37 852.51 352.40 754.30 457.76 923.77 490.83
00068769 00000073 667.47 83.82 418.27 539.30 774.07 278.22 970.92 312.58 841.56 343.87 751.59 464.81 920.34 493.76
00068770 00000074 662.64 83.78 420.29 541.81 769.77 280.96 965.99 312.85 836.81 343.65 748.31 466.13 917.90 492.50
00068771 00000075 659.32 79.84 424.18 543.44 764.97 281.51 962.03 313.96 830.45 344.06 745.99 463.81 917.94 489.78
00068772 00000076 657.97 79.41 422.19 545.62 763.36 280.78 959.65 313.50 828.50 345.51 743.62 463.07 916.83 489.54
00068773 00000077 657.03 81.30 419.62 545.29 761.92 278.77 956.51 309.15 825.41 344.89 741.05 464.30 911.27 489.48
00068774 00000078 656.68 80.52 417.25 547.15 760.71 278.06 955.49 308.33 823.02 345.79 738.39 466.40 908.38 491.80
00068775 00000079 656.86 80.53 416.12 545.03 758.87 277.46 953.72 308.17 820.42 346.72 736.07 465.21 907.08 490.77
00068776 00000080 655.84 79.90 414.87 541.09 756.55 275.40 951.78 307.23 817.98 344.05 733.35 462.97 905.63 489.39
00068777 00000081 654.30 79.28 414.52 538.31 754.99 273.60 950.08 305.32 817.27 341.96 731.92 460.60 904.62 487.02
00068778 00000082 653.20 78.65 415.01 537.83 753.95 273.01 948.69 304.14 816.88 339.88 731.05 459.68 903.42 485.62
00068779 00000083 652.26 77.87 414.10 537.28 753.99 271.32 947.80 301.54 817.50 338.70 731.54 459.12 900.71 484.36
00068780 00000084 651.98 75.73 414.06 540.65 754.36 269.34 948.09 298.44 818.35 338.91 731.84 460.13 899.08 484.66
00068781 00000085 651.38 77.10 414.61 541.29 754.80 267.05 948.44 296.07 817.91 338.78 731.89 460.70 897.34 485.20
00068782 00000086 650.70 76.15 414.52 542.91 754.47 265.73 947.15 294.35 817.18 337.74 731.97 460.91 895.52 485.22
00068783 00000087 649.74 75.34 414.88 543.54 754.47 264.64 945.79 293.44 815.61 336.08 731.57 460.74 892.59 485.37
00068784 00000088 649.24 75.39 414.64 542.73 754.43 263.26 944.64 291.75 816.03 335.37 731.93 459.93 892.09 484.32
00068785 00000089 649.15 76.34 414.84 539.31 755.15 260.83 942.56 289.93 815.21 332.64 732.15 455.72 890.23 480.72
00068786 00000090 648.22 77.33 413.96 536.60 756.28 258.70 940.72 287.14 814.32 329.35 733.39 453.20 887.97 477.77
00068787 00000091 648.69 77.98 415.28 534.27 758.14 258.78 936.78 285.22 812.53 329.42 736.13 446.24 884.17 469.27
00068788 00000092 646.67 80.14 416.30 534.35 756.69 265.36 930.72 288.85 808.57 330.34 734.86 445.31 880.76 466.01
00068789 00000093 647.77 82.65 411.66 534.28 757.93 263.38 927.68 284.47 809.07 330.84 736.10 445.93 876.19 465.15
00068790 00000094 645.58 81.58 412.71 532.35 756.91 258.11 925.48 278.49 807.91 330.08 736.00 443.86 872.97 462.40
00068791 00000095 640.85 81.53 415.44 527.13 753.67 258.06 921.74 278.92 806.61 331.29 734.78 440.20 873.49 458.81
00068792 00000096 639.31 80.01 417.20 522.23 751.13 256.57 919.52 279.25 803.20 329.85 731.07 436.48 873.32 456.05
00068793 00000097 637.56 81.05 416.16 520.18 749.48 255.99 917.04 278.74 802.50 330.18 730.39 436.45 872.97 456.08
00068794 00000098 632.59 78.35 419.43 523.57 748.67 253.46 916.88 276.10 802.77 328.23 728.62 438.09 869.25 457.41
00068795 00000099 630.90 74.09 419.59 524.67 745.53 253.44 916.64 274.72 800.27 320.61 723.74 440.23 868.05 458.23
00068796 00000100 629.52 68.95 418.49 526.80 743.68 253.36 918.42 273.50 802.16 315.38 724.39 436.94 879.61 453.95
00068797 00000101 629.79 68.99 417.91 531.55 743.41 251.00 920.18 271.06 802.43 311.28 724.07 435.33 886.47 452.29
00068798 00000102 629.99 71.75 417.86 532.15 746.83 248.98 921.86 267.13 800.80 305.20 721.01 434.43 882.56 449.79
00068799 00000103 629.55 74.06 417.81 527.65 749.10 248.08 920.72 266.63 801.91 305.36 720.25 433.67 874.89 449.28
00068800 00000104 629.17 74.55 417.78 527.20 749.67 247.43 920.49 266.63 800.74 305.38 718.00 437.78 866.57 453.79
00068801 00000105 627.75 77.55 419.58 525.82 749.35 249.30 918.70 264.92 797.92 303.89 715.72 439.56 861.61 452.74
00068802 00000106 628.20 78.40 419.26 526.54 748.36 250.71 917.17 262.13 794.68 303.32 714.71 441.18 858.36 451.14
00068803 00000107 626.45 78.45 420.48 526.33 746.34 248.22 915.39 259.08 792.12 302.02 714.16 438.71 857.88 448.15
00068804 00000108 626.70 73.46 421.11 528.16 742.89 248.34 913.69 259.20 790.17 302.36 714.91 438.40 859.13 447.70
00068805 00000109 626.08 68.64 422.47 525.35 737.93 248.33 912.51 260.92 787.73 303.18 710.42 437.51 856.90 448.08
00068806 00000110 627.91 66.58 419.37 516.68 734.00 239.06 917.80 259.41 786.18 301.42 707.43 428.11 861.82 445.43
00068807 00000111 626.82 67.28 418.98 513.05 733.01 237.93 917.22 257.52 785.48 299.75 706.39 427.07 862.25 443.76
00068808 00000112 623.89 71.47 420.78 506.82 733.12 237.47 917.31 256.89 785.66 298.52 704.02 426.59 860.84 443.05
00068809 00000113 622.36 73.87 419.09 504.01 732.67 237.98 915.60 256.59 785.10 298.92 702.61 426.37 858.08 442.14
00068810 00000114 620.11 72.59 417.91 509.84 730.34 239.01 912.66 257.88 782.70 301.14 700.30 427.27 855.87 443.34
00068811 00000115 617.43 75.04 418.86 521.63 732.56 247.92 902.55 265.33 781.08 302.59 697.67 434.97 844.68 449.59
00068812 00000116 613.65 77.01 421.07 527.23 730.54 252.72 901.70 270.48 782.18 307.62 697.05 439.26 843.26 454.08
00068813 00000117 615.75 80.78 413.93 528.92 728.42 255.68 895.52 274.70 781.91 319.28 701.47 437.76 842.57 454.28
00068814 00000118 612.82 82.97 411.54 527.22 724.89 259.76 888.23 280.95 779.07 328.16 699.83 437.14 836.18 455.83
00068815 00000119 612.49 84.96 409.58 529.14 723.02 260.89 884.27 283.59 773.41 334.33 697.65 435.58 833.11 455.71
00068816 00000120 608.35 88.75 407.63 518.89 709.08 253.60 889.49 280.38 760.65 331.55 688.09 440.29 835.12 462.78
00068817 00000121 607.08 87.84 408.54 520.10 708.17 253.08 887.38 280.95 758.47 333.15 686.71 438.67 833.80 461.94
00068818 00000122 606.98 86.69 408.26 520.72 708.45 252.56 886.90 279.67 758.61 332.61 686.68 437.19 834.26 460.05
00068819 00000123 608.85 84.56 411.41 532.90 719.21 262.78 880.22 283.28 769.69 336.48 695.76 432.84 835.73 451.41
00068820 00000124 610.73 84.18 410.13 535.73 719.74 261.70 882.77 279.34 772.22 332.65 698.57 438.32 836.50 454.71
00068821 00000125 610.54 83.15 408.27 535.08 719.52 259.35 884.39 275.66 774.38 326.77 699.63 445.27 834.72 460.39
00068822 00000126 608.51 81.04 409.81 536.99 715.76 263.06 885.40 280.00 771.40 324.47 694.71 450.66 832.14 466.12
00068823 00000127 605.70 78.46 412.87 539.97 712.49 264.38 884.36 281.41 768.58 321.03 691.66 449.88 834.41 465.27
00068824 00000128 607.54 76.24 413.24 540.71 713.55 263.87 887.83 280.56 769.38 319.21 691.47 449.87 838.85 464.57
00068825 00000129 608.31 77.33 412.63 541.03 711.26 262.61 894.54 287.43 764.97 317.69 690.28 448.25 839.63 468.85
00068826 00000130 607.14 75.69 414.00 539.91 709.85 264.21 893.10 288.41 764.80 318.73 690.46 448.21 839.28 468.32
00068827 00000131 605.24 74.52 414.20 536.53 708.78 265.21 891.01 290.22 765.27 317.74 689.68 447.28 838.02 468.08
00068828 00000132 605.27 75.31 413.88 531.02 708.94 264.39 890.08 288.39 764.84 316.66 689.62 445.64 837.14 465.65
00068829 00000133 604.43 76.03 413.55 529.78 709.51 264.42 889.13 289.23 764.31 318.60 689.40 443.24 835.96 463.80
00068830 00000134 603.14 78.36 413.82 528.04 708.04 263.82 887.60 289.07 761.04 319.15 686.43 442.81 833.19 463.78
00068831 00000135 603.78 78.19 412.32 532.82 706.10 262.82 888.20 287.95 759.91 319.88 684.35 446.76 833.72 467.74
00068832 00000136 603.64 79.78 412.16 537.71 706.85 267.32 886.28 291.01 758.25 319.28 683.82 450.19 830.47 470.11
00068833 00000137 602.56 79.78 412.49 538.48 704.20 269.17 885.55 291.72 757.72 319.40 683.21 452.57 832.33 471.59
00068834 00000138 602.16 76.32 411.92 543.08 704.12 270.43 883.71 292.52 757.03 319.39 683.55 453.41 831.62 472.21
CROP_BBOX: 285 0 1256 883
