Video ID: 	5WyHiAj98ww
H: 	1080
W: 	1920
FPS: 	25.0

FRAME INDEX X0 Y0 W H [Landmarks (5 Points)]

00000613 00000000 796.01 216.61 376.48 511.91 827.17 467.55 935.00 405.20 844.02 520.82 882.41 635.63 969.51 583.67
00000614 00000001 792.12 219.60 370.51 506.30 823.31 470.11 932.85 408.37 835.43 523.10 876.53 638.71 969.13 586.44
00000615 00000002 783.87 224.81 373.56 511.38 816.23 478.49 926.22 413.86 831.60 527.52 874.65 643.02 964.34 588.83
00000616 00000003 774.60 226.85 377.84 508.63 806.98 483.26 921.80 415.57 826.52 526.78 865.85 643.43 960.86 587.10
00000617 00000004 770.90 230.14 373.21 505.71 803.58 484.65 918.09 420.33 824.23 529.73 860.16 644.00 955.52 590.41
00000618 00000005 763.56 233.03 372.48 502.60 797.33 486.97 914.21 420.36 822.75 531.48 857.27 648.14 953.86 592.62
00000619 00000006 753.48 236.88 378.25 499.24 789.05 491.71 910.23 418.02 823.89 529.89 851.56 652.07 951.99 590.74
00000620 DELETE   746.60 233.72 380.81 497.07 786.75 494.38 906.40 417.97 823.84 524.89 847.38 648.75 949.43 584.92
00000621 00000008 744.20 223.86 382.08 503.95 788.81 492.11 905.89 424.22 821.11 523.71 845.69 642.15 947.30 585.20
00000622 00000009 741.63 217.87 386.56 511.58 788.71 487.30 910.94 423.29 825.73 521.39 848.26 639.15 950.23 585.17
00000623 00000010 740.76 215.95 392.82 524.58 787.21 487.38 918.10 425.65 826.92 521.33 845.75 641.54 954.15 589.55
00000624 00000011 745.58 219.79 391.82 529.69 791.32 486.58 924.02 434.14 827.36 524.11 844.58 644.44 952.30 600.20
00000625 00000012 748.30 219.47 395.23 539.17 793.52 492.68 930.03 441.88 830.53 531.66 844.28 651.98 954.62 609.49
00000626 00000013 751.68 222.46 396.85 543.45 794.98 496.34 933.36 447.61 831.17 539.06 844.12 656.88 957.07 616.38
00000627 00000014 754.92 221.93 396.62 548.77 797.15 495.26 938.29 449.10 832.58 541.81 844.43 657.47 960.56 619.15
00000628 00000015 756.81 222.66 396.97 553.41 799.60 492.68 942.86 446.23 836.25 543.11 849.97 662.12 965.62 623.62
00000629 00000016 757.32 221.22 398.23 556.51 800.39 486.09 944.48 441.67 835.51 543.27 852.30 661.21 969.42 624.28
00000630 DELETE   760.03 217.47 395.58 558.71 801.77 480.73 942.73 437.01 834.14 539.38 851.70 654.30 968.93 617.88
00000631 00000018 762.82 218.53 394.50 554.62 802.52 476.07 940.03 434.99 832.28 537.24 849.48 650.31 963.13 615.93
00000632 00000019 763.97 217.61 395.75 553.15 803.25 473.64 940.76 434.12 833.16 535.41 847.45 648.55 959.14 615.54
00000633 00000020 765.51 218.80 394.98 554.66 805.19 472.71 942.37 431.51 834.77 537.07 853.00 651.24 964.52 616.90
00000634 00000021 766.76 220.84 396.37 554.34 805.31 473.03 945.36 429.88 837.18 539.88 855.30 655.66 968.56 619.83
00000635 00000022 767.76 221.14 397.12 551.76 806.46 474.44 947.58 428.69 839.87 539.50 858.38 654.09 974.06 616.12
00000636 00000023 767.26 224.45 399.21 545.02 815.51 469.98 953.63 434.58 844.47 542.78 859.45 649.06 975.41 618.43
00000637 00000024 772.36 221.91 397.04 543.93 818.98 467.85 957.14 433.50 847.56 541.24 860.98 647.17 977.36 617.63
00000638 00000025 778.28 219.36 392.80 541.76 814.97 475.56 956.19 428.69 847.66 535.86 865.19 647.12 980.08 608.06
00000639 00000026 781.27 218.70 391.87 540.74 817.49 475.70 959.52 428.48 851.19 536.34 868.65 646.14 983.84 606.76
00000640 00000027 784.51 220.44 389.87 538.11 819.75 475.22 962.55 428.34 853.71 536.33 871.24 645.89 987.02 606.67
00000641 00000028 786.53 220.39 388.47 536.97 821.16 474.42 964.16 427.66 855.38 534.85 872.31 644.61 989.02 605.47
00000642 00000029 787.90 219.40 387.97 536.62 822.92 472.54 965.87 427.32 857.12 533.42 873.26 642.60 989.79 604.77
00000643 00000030 792.32 220.99 391.56 531.16 833.12 470.52 975.43 424.37 866.19 530.86 884.37 643.13 1000.82 603.30
00000644 00000031 793.41 221.17 392.66 530.74 834.61 470.95 977.32 425.35 868.46 531.41 886.32 642.83 1002.88 603.45
00000645 00000032 795.07 222.39 393.74 530.39 836.29 471.58 979.02 426.60 870.86 532.83 887.78 644.11 1003.14 605.28
00000646 00000033 796.50 223.05 393.55 531.47 836.99 471.85 980.25 427.58 871.53 534.94 887.73 646.89 1002.22 608.69
00000647 00000034 797.24 222.86 392.31 534.23 838.20 470.52 981.62 428.57 873.54 536.55 888.66 649.87 999.31 613.86
00000648 00000035 798.31 223.74 392.18 537.76 839.69 470.55 982.29 429.21 875.29 538.80 890.50 654.85 997.28 619.57
00000649 00000036 798.08 223.60 392.06 540.24 840.25 471.14 983.28 430.19 876.30 539.65 890.70 658.16 994.99 623.35
00000650 00000037 796.87 225.18 392.66 542.55 840.29 472.78 983.68 431.26 877.74 541.63 891.16 660.96 995.75 625.60
00000651 00000038 793.26 230.39 391.27 542.33 836.12 475.25 974.32 438.82 873.39 553.32 888.76 658.59 988.28 627.72
00000652 00000039 792.84 235.09 391.57 540.71 835.50 477.70 972.46 439.15 872.10 555.30 888.96 661.55 988.67 628.92
00000653 00000040 792.10 240.34 391.14 538.35 835.56 479.23 971.78 439.60 871.31 558.61 890.17 664.11 990.55 630.57
00000654 00000041 790.48 241.48 391.66 538.34 835.13 482.90 970.10 441.11 870.98 560.20 890.08 666.07 990.48 630.89
00000655 00000042 788.74 240.96 392.12 539.33 833.36 483.57 968.56 440.73 869.17 560.40 888.91 666.80 989.97 630.85
00000656 00000043 787.20 240.72 392.86 539.98 832.15 484.96 966.65 441.03 867.88 561.24 888.13 668.22 988.77 631.42
00000657 00000044 785.47 242.00 393.98 540.63 830.81 485.75 965.62 441.71 865.56 561.25 885.79 669.32 987.73 632.53
00000658 00000045 776.10 243.27 400.19 538.07 829.31 493.11 966.37 445.79 870.86 557.19 881.34 670.42 985.21 631.73
00000659 00000046 774.74 244.33 399.22 538.09 827.42 493.30 964.32 447.05 867.99 556.77 879.24 670.78 982.68 632.91
00000660 00000047 772.54 245.81 400.39 538.73 825.63 493.64 962.96 448.90 865.07 556.56 877.65 670.95 981.90 634.19
00000661 00000048 770.77 247.67 400.22 537.81 824.63 494.45 962.38 449.96 863.71 556.22 877.34 671.57 981.20 634.91
00000662 00000049 770.22 249.31 399.49 536.29 824.62 494.16 962.42 450.07 863.58 555.90 877.35 670.95 981.32 634.56
00000663 00000050 770.23 248.39 398.67 536.31 825.07 493.58 962.82 449.81 863.99 554.87 877.06 670.07 980.22 633.99
00000664 00000051 770.99 248.40 397.77 534.99 826.24 492.43 963.95 449.52 865.95 554.95 877.59 669.35 980.33 633.98
00000665 00000052 772.57 247.26 397.49 533.70 828.33 490.71 966.91 448.15 869.73 554.73 878.74 667.37 982.30 632.35
00000666 00000053 780.09 246.22 390.91 535.46 827.24 483.90 965.74 443.09 866.10 557.38 879.07 667.63 983.11 633.64
00000667 00000054 782.50 246.44 389.58 533.31 830.32 481.36 969.46 442.38 869.61 556.48 882.00 664.98 986.20 632.26
00000668 00000055 784.20 247.40 388.23 531.25 835.90 475.72 975.64 447.69 871.26 554.38 877.03 660.15 985.93 637.25
00000669 00000056 788.43 240.78 388.28 534.82 836.62 478.16 977.40 443.05 879.38 553.25 888.49 658.67 992.43 628.87
00000670 00000057 792.51 233.53 390.17 538.32 842.51 475.77 988.94 435.06 888.10 545.52 895.61 664.77 1003.05 629.66
00000671 00000058 797.14 231.34 389.78 539.83 845.57 474.78 992.27 434.16 890.01 543.20 898.06 662.84 1005.05 628.02
00000672 00000059 800.49 230.16 390.57 540.31 849.50 473.73 995.63 434.56 893.42 539.23 900.56 660.39 1006.64 626.97
00000673 00000060 805.21 228.31 389.87 541.88 853.20 473.14 1000.73 433.32 895.78 535.44 902.64 658.81 1011.43 624.85
00000674 00000061 807.83 227.15 392.48 544.73 857.19 471.55 1004.75 433.32 900.44 535.94 906.67 657.46 1017.05 624.72
00000675 00000062 811.79 227.22 392.45 544.15 861.40 469.75 1009.21 434.47 905.19 538.62 910.16 654.62 1021.06 624.47
00000676 00000063 816.77 227.29 390.20 543.20 866.27 467.71 1013.53 434.09 909.96 537.56 914.97 651.09 1025.79 622.46
00000677 00000064 820.59 223.13 388.79 546.69 871.06 466.70 1016.85 433.85 914.99 535.23 918.77 650.05 1028.59 622.19
00000678 00000065 825.02 221.40 390.06 547.63 874.98 466.03 1019.06 434.01 918.35 534.17 921.88 649.08 1030.25 622.04
00000679 00000066 828.01 218.99 393.37 548.66 879.00 466.87 1022.21 433.22 921.92 530.08 924.86 647.05 1032.64 618.77
00000680 00000067 830.77 218.18 393.39 546.97 881.56 466.44 1025.59 430.98 925.18 525.11 927.66 645.38 1036.07 615.58
00000681 00000068 835.17 217.74 391.32 543.43 885.50 462.92 1033.16 428.93 931.64 522.72 930.63 642.36 1039.39 613.77
00000682 00000069 838.58 213.31 392.22 545.66 890.31 457.82 1040.69 425.69 937.54 520.15 936.54 640.40 1044.67 613.22
00000683 00000070 842.28 209.85 393.72 545.22 895.97 452.26 1048.14 420.67 944.77 516.84 943.56 637.18 1052.12 610.39
00000684 00000071 846.91 206.29 392.32 543.92 901.14 446.54 1055.48 418.49 951.24 515.69 946.14 632.84 1056.86 609.37
00000685 00000072 850.34 204.61 391.58 543.26 905.37 442.57 1062.17 415.80 957.46 514.09 950.39 630.42 1063.41 608.12
00000686 00000073 854.19 203.54 385.27 542.23 918.18 438.08 1063.04 417.09 966.56 517.46 956.38 627.37 1069.24 610.53
00000687 00000074 859.58 199.02 384.33 545.56 923.60 436.05 1070.07 414.89 972.52 513.85 961.50 625.26 1076.03 608.61
00000688 00000075 864.14 196.68 385.45 545.18 930.75 430.85 1082.05 411.87 982.16 509.61 965.93 620.17 1084.60 605.62
00000689 00000076 869.42 193.91 385.79 542.95 937.77 424.14 1092.96 406.54 992.50 503.48 971.06 612.70 1094.13 599.33
00000690 00000077 872.29 192.10 387.16 543.59 944.03 420.85 1100.69 400.31 1002.34 498.97 976.96 609.76 1102.20 594.14
00000691 00000078 873.57 189.68 388.87 544.97 946.34 419.95 1105.01 397.44 1007.33 494.53 979.51 606.16 1107.99 588.75
00000692 00000079 874.55 185.34 391.02 544.78 948.45 416.82 1108.35 393.55 1012.13 490.27 982.02 601.59 1112.16 583.46
00000693 00000080 874.71 181.47 391.84 544.19 949.08 412.64 1110.60 390.20 1013.84 485.73 982.37 597.45 1114.38 579.80
00000694 00000081 876.42 179.74 391.50 540.67 950.44 410.06 1112.68 387.85 1014.57 480.21 982.44 592.79 1116.37 574.99
00000695 00000082 877.97 179.00 390.63 539.14 951.66 407.63 1114.01 385.22 1016.75 477.72 983.68 590.62 1118.52 572.75
00000696 00000083 878.54 179.47 390.76 538.08 952.86 407.13 1115.50 384.59 1018.40 476.66 984.03 589.58 1119.45 571.63
00000697 00000084 879.06 180.79 391.15 537.48 953.71 407.30 1116.84 384.47 1018.97 476.59 984.63 589.94 1120.43 571.80
00000698 00000085 880.04 180.24 390.72 539.62 954.94 407.87 1118.53 385.95 1020.32 478.87 985.38 591.12 1121.22 573.84
00000699 00000086 880.98 180.60 390.50 540.28 956.47 408.54 1120.46 387.79 1021.95 480.85 986.50 592.40 1122.01 576.20
00000700 00000087 882.75 180.90 388.64 539.91 958.31 409.47 1121.58 389.96 1023.65 483.32 987.81 593.49 1121.70 578.45
00000701 00000088 883.34 181.31 388.51 540.66 959.68 410.23 1121.84 391.77 1024.59 485.70 989.36 594.64 1121.74 580.52
00000702 00000089 884.12 182.20 387.89 540.62 961.35 411.28 1123.27 394.04 1026.28 488.14 990.68 596.37 1121.71 583.42
00000703 00000090 885.69 184.18 387.42 540.01 963.79 413.12 1125.60 396.72 1027.93 490.48 992.47 597.94 1122.70 585.83
00000704 00000091 886.29 185.14 387.00 539.90 963.92 414.47 1125.27 398.23 1027.13 492.41 992.57 599.21 1122.27 587.31
00000705 00000092 886.79 184.60 386.78 540.67 963.53 414.77 1124.24 399.01 1025.35 493.35 991.58 599.66 1120.47 588.17
00000706 00000093 887.53 184.39 385.58 541.90 962.97 415.64 1122.91 400.44 1022.76 493.92 989.09 600.29 1117.01 589.40
00000707 DELETE   889.06 190.00 384.13 537.45 961.36 421.30 1121.43 407.20 1017.10 495.95 985.29 602.38 1113.43 592.68
00000708 00000095 888.34 195.39 385.71 537.85 958.56 427.30 1117.14 412.15 1009.55 497.20 980.60 605.13 1107.16 594.60
00000709 00000096 889.48 197.67 384.19 541.56 953.74 432.31 1113.06 419.55 1000.03 486.78 979.89 609.53 1091.44 597.92
00000710 00000097 889.12 197.47 382.72 544.55 952.69 431.40 1108.20 419.05 995.20 491.13 977.87 612.25 1086.30 601.03
00000711 00000098 887.92 197.65 381.63 544.53 951.44 431.27 1104.58 418.00 991.84 493.54 976.80 613.80 1084.07 601.90
00000712 00000099 887.49 201.10 380.16 541.06 950.08 432.15 1102.43 417.40 989.11 494.19 975.81 615.75 1081.87 602.63
00000713 00000100 887.43 200.95 379.71 540.62 948.52 433.36 1099.86 415.93 987.06 493.85 975.24 617.12 1080.38 601.85
00000714 00000101 887.55 198.51 380.61 541.65 947.60 433.83 1098.03 414.98 985.03 493.36 974.85 616.84 1080.39 600.41
00000715 00000102 888.04 196.75 380.70 542.02 947.20 433.86 1095.56 414.14 982.92 493.51 974.74 616.79 1078.72 599.69
00000716 00000103 888.50 195.31 380.89 543.97 947.74 434.93 1095.39 414.68 982.30 493.00 974.39 616.74 1078.50 599.23
00000717 00000104 888.36 197.01 381.14 542.89 947.42 434.70 1095.22 415.01 981.98 494.11 974.09 617.20 1078.41 600.15
00000718 00000105 889.21 197.70 381.07 542.72 947.98 434.54 1095.65 416.02 981.84 495.37 973.64 617.40 1078.02 601.35
00000719 00000106 889.13 199.18 381.52 542.42 948.10 435.54 1095.40 417.15 982.14 496.50 973.90 618.49 1078.23 602.52
00000720 00000107 889.23 201.74 381.52 540.58 948.00 436.89 1094.46 418.60 981.98 498.18 973.92 619.62 1077.71 603.66
00000721 00000108 889.32 204.21 381.21 539.60 947.19 438.24 1093.38 419.81 980.42 500.00 972.63 621.22 1076.35 605.16
00000722 00000109 889.17 206.34 382.17 540.14 946.95 439.22 1093.06 421.12 979.43 501.00 972.03 623.08 1075.39 607.21
00000723 00000110 888.78 207.74 382.70 540.17 946.62 439.78 1093.15 422.32 979.66 502.85 971.70 624.90 1074.46 609.59
00000724 00000111 887.76 209.26 382.01 540.11 945.72 440.54 1092.36 423.04 979.37 504.62 971.73 627.20 1073.88 611.80
00000725 00000112 885.66 211.37 381.87 538.83 943.56 442.11 1090.55 423.80 977.37 505.92 970.09 628.98 1072.51 612.90
00000726 00000113 883.84 212.89 381.00 537.85 941.51 443.45 1088.75 424.39 976.28 506.92 969.24 630.57 1071.87 613.80
00000727 00000114 881.40 211.82 381.06 538.12 939.78 443.83 1086.63 424.37 974.52 506.78 968.32 630.49 1071.30 613.27
00000728 00000115 879.75 211.62 381.18 536.78 937.42 444.40 1084.28 424.37 971.87 506.76 966.16 630.31 1069.61 612.51
00000729 00000116 877.80 213.76 378.52 533.25 935.16 444.15 1080.94 424.87 969.38 509.07 964.23 630.81 1066.64 613.61
00000730 00000117 875.17 213.37 377.75 534.28 932.51 445.61 1077.66 425.81 966.30 511.67 961.87 632.47 1063.95 615.12
00000731 00000118 871.31 213.34 377.14 534.70 928.17 447.18 1074.39 426.31 962.74 512.92 958.43 634.17 1061.26 616.18
00000732 00000119 868.09 211.76 375.41 536.43 925.24 447.23 1072.23 426.50 960.18 514.04 955.78 635.38 1058.01 617.74
00000733 00000120 865.21 212.69 375.69 535.98 921.86 447.19 1070.77 426.37 958.76 514.59 952.78 636.12 1055.12 618.65
00000734 00000121 863.58 214.64 375.40 535.33 919.86 447.00 1069.04 426.82 956.06 515.08 949.06 636.82 1052.35 620.06
00000735 00000122 861.69 213.50 374.89 539.56 906.32 446.67 1060.22 429.59 950.05 518.86 935.99 636.10 1043.58 621.89
00000736 00000123 860.26 216.32 375.73 537.87 905.14 447.98 1058.56 430.18 948.84 520.11 935.28 637.71 1042.85 622.87
00000737 00000124 859.67 218.31 376.27 537.76 904.35 449.42 1057.15 431.32 947.85 521.86 934.63 639.10 1041.76 623.99
00000738 00000125 859.54 220.36 376.06 537.19 904.25 450.35 1057.12 432.57 947.61 522.97 934.22 639.37 1042.01 624.53
00000739 00000126 859.16 221.69 375.91 536.78 904.13 451.53 1056.48 433.44 947.22 523.67 933.71 639.73 1041.51 624.62
00000740 00000127 858.29 222.23 376.24 537.12 904.00 452.77 1056.46 434.92 947.40 524.49 933.49 640.11 1041.65 625.22
00000741 00000128 857.93 223.20 376.26 537.13 903.73 454.25 1055.57 436.07 947.22 525.51 933.31 640.52 1041.45 625.34
00000742 00000129 857.53 224.12 375.42 536.27 903.67 455.40 1055.24 436.97 946.83 525.91 932.88 640.54 1041.06 625.16
00000743 00000130 856.94 224.17 375.71 536.79 903.55 455.79 1055.43 437.32 947.01 526.17 932.95 640.71 1041.36 625.32
00000744 00000131 856.29 224.97 375.70 536.14 903.69 455.86 1055.33 437.38 947.12 526.29 933.10 640.71 1041.13 625.32
00000745 00000132 855.81 225.64 375.62 536.31 903.80 456.76 1054.98 438.49 946.79 526.46 932.61 640.85 1040.85 625.60
00000746 00000133 855.24 225.35 375.21 536.60 903.66 456.64 1054.95 438.75 947.13 526.82 932.47 640.83 1040.64 625.88
00000747 00000134 855.07 224.73 374.83 536.21 903.84 455.46 1055.19 437.71 947.87 525.57 932.73 639.99 1039.97 625.12
00000748 00000135 854.39 224.65 374.94 535.27 902.88 455.29 1054.74 436.72 947.19 524.45 931.85 640.07 1039.36 624.51
00000749 00000136 853.18 223.65 375.31 535.65 901.98 454.22 1054.08 435.64 946.35 523.28 931.15 639.88 1038.50 624.27
00000750 00000137 851.76 223.11 376.81 535.30 900.73 454.35 1053.18 435.04 945.62 522.39 930.61 639.91 1037.94 623.64
00000751 00000138 850.92 222.54 377.15 535.16 900.06 454.34 1052.68 434.34 945.23 521.71 931.09 639.90 1038.45 622.98
00000752 00000139 850.60 220.89 377.42 535.52 899.63 453.60 1051.75 433.45 944.60 520.41 930.44 638.73 1037.88 621.67
00000753 00000140 849.89 221.33 377.47 534.52 898.92 453.04 1051.44 432.49 943.58 519.07 929.54 637.86 1037.62 620.44
00000754 00000141 849.29 221.15 377.69 534.43 898.16 453.04 1050.96 432.46 942.60 518.63 928.95 637.73 1037.12 620.25
00000755 00000142 849.06 220.47 377.85 535.10 898.07 452.85 1051.00 432.34 942.39 518.09 928.57 637.40 1037.05 619.98
00000756 00000143 848.41 219.79 378.08 534.93 897.73 452.30 1051.22 431.76 941.81 516.83 928.05 636.61 1037.07 619.18
00000757 00000144 847.71 218.83 378.16 535.74 897.37 451.32 1051.26 430.58 941.51 515.81 928.10 636.04 1037.20 618.47
00000758 00000145 846.52 218.24 378.68 535.71 896.31 450.07 1050.99 429.33 940.54 514.78 927.72 635.05 1037.90 617.45
00000759 00000146 846.07 217.34 378.71 535.80 896.52 448.77 1051.05 428.27 940.32 513.87 928.30 633.99 1038.34 616.55
00000760 00000147 845.75 216.51 379.52 535.89 896.46 447.64 1050.93 427.35 940.32 512.64 928.29 632.85 1038.23 615.58
00000761 00000148 845.45 216.19 379.94 536.18 896.51 447.57 1051.02 427.09 940.67 512.13 928.65 632.79 1038.93 615.35
00000762 00000149 844.42 217.57 379.71 534.93 896.38 447.94 1050.83 427.71 941.10 512.70 928.81 633.02 1039.13 615.77
00000763 00000150 842.59 219.08 380.77 535.28 895.00 450.83 1049.05 429.60 940.51 514.19 928.15 634.56 1038.46 616.36
00000764 00000151 841.02 222.49 380.27 534.39 893.20 455.24 1047.04 432.63 939.17 516.24 926.26 637.62 1036.54 618.22
00000765 00000152 839.08 226.24 380.08 534.87 890.92 457.84 1044.45 434.66 937.99 520.00 924.80 640.19 1035.42 620.42
00000766 00000153 837.82 226.72 376.18 537.15 890.43 462.31 1041.96 437.14 936.47 521.04 924.21 641.78 1035.26 620.50
00000767 00000154 835.92 228.79 375.15 536.31 889.31 464.90 1039.09 439.65 934.92 523.96 923.16 642.30 1034.33 621.00
00000768 00000155 833.80 229.21 374.80 536.20 888.13 466.80 1037.59 441.38 934.54 524.83 922.36 642.76 1034.10 621.30
00000769 00000156 832.12 230.93 374.93 536.04 887.13 468.22 1036.96 442.32 933.25 525.61 920.90 643.54 1034.01 621.81
00000770 00000157 823.39 230.52 380.40 539.49 878.74 467.96 1037.79 433.37 935.54 528.75 924.25 653.19 1042.00 625.70
00000771 00000158 823.45 228.70 380.79 541.25 882.07 465.34 1041.92 432.46 940.30 527.25 927.19 651.89 1044.74 625.70
00000772 00000159 824.45 229.06 381.33 539.13 885.81 463.86 1044.76 431.70 945.58 526.06 931.03 649.19 1049.09 623.52
00000773 00000160 825.37 230.31 380.65 538.07 888.97 462.70 1047.20 430.95 949.69 525.04 934.20 648.02 1051.97 622.69
00000774 00000161 826.48 229.91 381.12 537.87 892.83 466.14 1049.84 433.26 953.18 524.11 937.91 648.48 1053.34 622.07
00000775 DELETE   827.20 235.84 380.03 532.52 893.17 470.02 1050.40 435.70 954.84 523.45 939.53 649.72 1055.59 621.89
00000776 DELETE   828.16 238.49 380.63 530.60 895.39 472.00 1050.57 439.35 956.22 525.38 941.46 649.75 1056.44 623.10
00000777 DELETE   831.44 236.68 380.68 532.23 898.55 471.06 1052.88 438.00 957.43 526.28 944.40 651.41 1056.54 624.58
00000778 00000165 836.57 235.10 380.35 531.23 902.64 469.29 1058.08 434.97 959.88 528.02 948.00 653.07 1060.02 625.38
00000779 00000166 843.92 230.99 381.47 533.86 912.86 464.70 1067.37 433.32 968.96 525.89 952.56 649.35 1067.59 623.24
00000780 00000167 847.50 230.72 383.19 532.80 917.43 461.91 1074.03 432.39 974.09 522.92 957.63 647.15 1073.25 622.21
00000781 00000168 851.40 243.07 380.17 515.02 918.21 455.94 1077.72 437.11 983.00 523.91 956.02 640.67 1073.73 626.03
