Video ID: 	ze4xcmBFvaE
H: 	1080
W: 	1920
FPS: 	23.976023976023978

FRAME INDEX X0 Y0 W H [Landmarks (5 Points)]

00019728 00000000 884.37 125.22 416.71 579.46 1095.72 358.45 1232.47 318.36 1278.12 422.36 1141.74 555.97 1268.34 525.12
00019729 00000001 884.00 131.37 416.74 571.93 1087.73 356.75 1224.00 310.87 1273.72 417.35 1139.78 554.69 1268.90 518.96
00019730 DELETE   880.86 127.59 418.57 583.21 1069.32 359.99 1209.08 301.94 1258.51 419.82 1123.25 555.73 1262.35 509.39
00019731 00000003 876.14 134.07 400.57 580.38 1056.64 366.47 1193.93 296.43 1252.60 416.61 1104.26 565.04 1237.81 513.14
00019732 00000004 844.67 115.65 424.26 606.61 1038.39 360.09 1179.62 299.40 1221.53 421.88 1093.31 561.49 1232.65 512.56
00019733 00000005 835.17 120.19 421.94 598.64 1021.69 360.83 1165.77 303.39 1198.19 417.39 1090.09 568.66 1222.69 520.76
00019734 00000006 826.83 108.76 422.08 595.98 1012.55 362.48 1165.63 310.09 1184.14 423.61 1070.19 561.29 1215.02 517.14
00019735 00000007 820.72 123.07 425.18 593.40 995.80 365.64 1153.66 307.90 1167.39 427.44 1053.35 563.28 1207.29 514.86
00019736 00000008 811.08 124.54 429.88 598.55 986.88 370.71 1141.01 312.03 1152.78 430.43 1042.17 564.36 1197.86 515.01
00019737 00000009 806.61 128.76 432.17 583.16 979.40 377.80 1142.08 311.12 1147.55 435.19 1030.34 560.97 1197.70 506.16
00019738 00000010 806.86 124.74 428.36 579.91 985.20 378.46 1145.25 309.59 1156.11 435.85 1033.79 557.47 1197.96 501.74
00019739 DELETE   816.23 126.45 421.99 572.20 996.32 372.61 1144.55 305.15 1168.90 431.30 1046.67 549.37 1200.33 494.84
00019740 DELETE   834.76 117.89 417.00 582.55 1005.69 367.09 1148.67 279.11 1194.94 403.10 1046.56 543.33 1208.05 476.66
00019741 DELETE   820.99 87.26 424.84 605.31 1005.98 342.49 1145.86 267.90 1201.25 382.59 1063.24 530.14 1210.23 470.17
00019742 00000014 826.77 85.95 424.16 586.74 1017.67 325.53 1160.47 257.71 1208.14 369.67 1074.10 512.90 1220.96 457.69
00019743 00000015 820.42 85.32 432.89 571.84 1018.43 326.54 1158.42 256.17 1207.38 369.48 1077.10 507.72 1219.85 450.16
00019744 00000016 820.78 82.67 428.28 572.95 1018.04 329.74 1153.57 256.63 1203.28 372.31 1081.89 511.59 1217.26 451.25
00019745 00000017 818.11 86.61 428.75 577.82 1006.29 337.05 1148.86 267.33 1193.36 377.64 1071.15 515.43 1216.17 457.51
00019746 00000018 816.34 92.86 416.45 576.39 997.02 341.60 1138.57 275.69 1181.06 388.48 1052.51 516.21 1201.56 462.92
00019747 00000019 812.52 95.45 412.89 571.80 994.46 340.97 1138.24 283.03 1172.60 393.76 1044.52 514.45 1194.90 468.17
00019748 00000020 812.83 96.63 407.38 572.11 990.98 336.26 1131.47 286.54 1162.37 390.65 1048.61 517.74 1188.25 476.75
00019749 00000021 820.00 94.08 409.45 583.28 992.56 326.72 1130.22 283.96 1152.05 378.31 1066.15 520.52 1196.53 483.87
00019750 00000022 821.58 91.66 412.64 585.95 997.19 319.68 1136.87 280.67 1158.31 372.72 1071.51 519.12 1200.21 485.10
00019751 00000023 822.80 87.88 412.22 593.21 1003.17 318.80 1141.66 283.75 1165.58 373.47 1073.75 520.58 1201.43 489.76
00019752 00000024 824.34 90.00 410.51 593.83 1011.03 323.18 1145.34 291.24 1175.15 378.73 1076.63 523.02 1202.21 495.14
00019753 00000025 831.33 95.18 411.05 592.59 1027.87 334.83 1154.91 298.54 1191.88 393.40 1090.22 538.80 1204.53 507.86
00019754 00000026 839.06 95.96 408.02 602.70 1040.31 343.08 1170.69 302.88 1208.22 407.01 1096.32 547.13 1213.46 513.63
00019755 00000027 844.64 110.89 413.32 594.34 1047.11 354.61 1188.64 309.95 1223.38 421.99 1098.05 555.63 1229.90 519.35
00019756 00000028 849.05 113.42 414.15 594.99 1054.79 363.40 1194.71 319.76 1228.88 429.58 1101.43 560.12 1232.27 525.43
00019757 00000029 848.18 113.44 419.60 601.54 1052.38 359.39 1193.02 318.73 1226.30 424.51 1100.65 558.51 1233.46 525.71
00019758 00000030 847.17 110.15 421.22 603.47 1045.50 351.29 1187.01 310.27 1216.92 413.67 1100.46 554.60 1233.85 520.31
00019759 00000031 848.21 96.91 409.98 604.24 1040.95 339.55 1184.79 305.69 1213.97 400.87 1098.64 548.22 1228.25 519.29
00019760 00000032 849.46 98.91 410.58 593.01 1031.27 326.37 1190.46 297.95 1207.28 389.22 1090.56 533.69 1234.83 509.23
00019761 00000033 850.12 94.40 408.62 579.15 1035.48 321.30 1191.69 291.36 1211.11 386.00 1093.40 525.91 1233.14 500.34
00019762 00000034 854.31 90.87 404.89 574.20 1046.61 320.00 1197.61 290.07 1221.99 385.33 1100.23 520.62 1234.63 495.42
00019763 00000035 865.03 87.94 406.54 592.36 1051.14 324.52 1193.74 289.78 1224.62 392.27 1107.97 524.67 1244.66 496.79
00019764 00000036 872.15 99.39 397.92 598.25 1049.00 343.54 1189.52 297.01 1226.10 407.04 1099.03 541.42 1238.67 505.14
00019765 00000037 870.96 113.81 396.47 588.33 1045.50 361.03 1188.54 307.46 1223.79 423.91 1096.20 553.72 1238.90 511.71
00019766 00000038 868.98 117.01 405.42 580.33 1044.84 367.65 1193.88 309.93 1221.38 433.00 1092.43 553.79 1242.91 508.46
00019767 00000039 868.57 116.46 406.57 574.39 1044.30 369.20 1194.01 308.81 1219.34 435.14 1095.07 552.10 1245.21 504.47
00019768 00000040 869.73 115.81 406.79 578.05 1043.89 371.28 1192.89 310.88 1216.46 435.65 1096.59 553.49 1245.51 506.01
00019769 00000041 856.13 110.16 426.47 607.76 1048.06 359.09 1194.08 315.56 1209.62 424.37 1098.53 561.53 1242.93 524.99
00019770 00000042 849.04 112.36 418.36 599.47 1048.01 367.90 1192.99 323.23 1215.03 437.63 1092.72 565.98 1226.05 529.93
00019771 00000043 847.86 117.27 421.23 591.58 1042.34 374.12 1194.70 324.04 1212.68 442.63 1087.07 565.60 1229.03 525.29
00019772 00000044 846.09 118.40 422.20 595.69 1039.39 375.80 1193.83 322.30 1211.51 445.08 1078.04 565.07 1226.91 522.80
00019773 00000045 846.45 118.85 421.63 597.69 1035.32 372.81 1187.93 321.82 1204.43 440.49 1072.77 560.38 1224.27 519.65
00019774 00000046 845.72 113.91 422.10 600.17 1032.84 367.58 1186.85 313.59 1202.89 434.53 1068.11 552.51 1227.09 509.12
00019775 00000047 848.24 104.02 418.57 615.01 1027.46 355.29 1182.68 302.61 1199.75 423.27 1060.47 545.36 1224.14 502.78
00019776 00000048 849.15 98.32 418.38 628.62 1030.96 344.11 1181.41 296.84 1204.99 408.22 1064.87 541.51 1223.50 502.86
00019777 00000049 851.82 97.30 415.80 623.50 1031.58 341.15 1183.73 299.79 1204.14 404.05 1076.75 546.35 1226.72 511.79
00019778 00000050 852.57 92.01 414.31 619.36 1036.50 342.38 1186.51 302.31 1205.91 407.56 1087.09 548.89 1226.83 515.44
00019779 00000051 868.24 97.38 404.14 593.05 1034.31 340.04 1185.26 299.59 1195.17 410.51 1098.51 538.60 1240.53 505.22
00019780 00000052 868.11 95.57 406.04 592.94 1038.08 342.72 1186.94 302.20 1197.28 412.43 1107.25 541.48 1241.84 507.86
00019781 00000053 872.06 101.11 401.11 599.78 1049.10 340.19 1191.64 307.21 1209.32 413.23 1116.58 550.96 1241.01 523.70
00019782 00000054 878.41 102.50 396.19 606.73 1057.28 344.21 1196.50 313.54 1216.74 417.01 1120.83 557.42 1241.06 531.97
00019783 00000055 886.19 97.75 402.93 619.60 1071.68 335.96 1215.81 309.08 1231.49 416.97 1143.89 562.76 1258.73 539.00
00019784 00000056 892.53 93.65 400.52 618.68 1083.63 327.03 1226.90 307.98 1245.81 414.41 1150.39 559.04 1265.20 541.60
00019785 DELETE   899.93 85.60 398.68 607.51 1087.63 322.50 1233.44 300.96 1250.62 405.47 1132.70 535.20 1262.69 516.33
00019786 DELETE   903.13 80.73 409.38 591.72 1092.61 310.85 1248.61 288.94 1256.81 390.20 1132.62 518.14 1273.69 499.53
00019787 DELETE   911.35 75.16 406.67 577.50 1101.34 304.99 1256.57 274.17 1265.47 384.48 1143.62 509.21 1282.75 483.91
00019788 00000060 917.06 69.40 408.83 581.28 1107.69 304.59 1259.85 273.26 1268.81 380.21 1147.07 503.05 1288.05 477.87
00019789 00000061 919.32 75.28 407.85 577.65 1110.49 308.13 1261.27 276.45 1272.30 385.41 1144.11 504.61 1287.19 479.92
00019790 00000062 917.53 82.46 406.23 588.39 1110.82 310.60 1261.48 283.95 1272.91 394.26 1135.79 511.98 1282.52 491.35
00019791 00000063 914.79 90.53 408.28 589.02 1104.13 317.75 1255.67 290.12 1265.69 398.51 1128.55 515.59 1281.46 494.12
00019792 00000064 914.90 95.04 403.60 589.29 1100.61 321.87 1252.51 296.50 1258.80 402.05 1124.37 518.10 1277.28 498.19
00019793 00000065 909.59 92.89 404.54 589.83 1098.23 324.69 1248.44 303.38 1251.43 406.14 1117.92 515.41 1269.50 498.81
00019794 00000066 908.07 95.47 398.76 583.58 1095.78 327.25 1245.56 303.29 1250.54 408.07 1114.35 513.96 1265.98 495.29
00019795 00000067 907.41 103.13 393.74 576.40 1089.84 329.64 1239.63 307.60 1242.04 415.41 1109.07 514.40 1261.02 497.15
00019796 00000068 907.80 102.31 389.28 585.33 1088.13 334.21 1234.72 316.31 1234.34 422.37 1112.36 527.57 1251.85 512.65
00019797 00000069 905.71 112.01 393.72 591.30 1085.95 336.41 1232.03 322.62 1226.47 422.90 1129.38 546.86 1248.73 534.82
00019798 00000070 902.60 115.87 395.01 598.17 1079.88 338.56 1225.26 329.15 1219.21 422.34 1128.65 551.67 1246.54 542.54
00019799 00000071 905.19 111.94 390.50 600.64 1081.26 337.39 1225.49 328.88 1221.26 421.14 1130.75 551.48 1245.61 543.44
00019800 00000072 906.30 107.03 390.38 598.85 1085.47 331.81 1229.09 319.77 1224.88 419.09 1132.49 546.42 1247.38 535.66
00019801 00000073 904.05 103.34 391.98 594.91 1086.78 323.11 1232.98 316.24 1225.81 414.83 1125.69 536.66 1244.30 530.32
00019802 00000074 903.63 96.17 390.89 590.90 1082.87 323.86 1231.63 312.18 1227.49 418.67 1110.52 526.65 1247.57 516.33
00019803 00000075 905.47 101.34 389.26 590.66 1083.16 327.84 1234.81 310.95 1234.75 418.54 1106.16 526.79 1253.72 512.52
00019804 00000076 909.01 111.85 390.12 592.45 1085.66 325.17 1236.80 307.55 1237.73 410.59 1120.22 534.79 1256.06 519.94
00019805 00000077 903.35 112.15 396.31 594.03 1083.43 326.38 1232.62 308.26 1238.00 404.45 1120.03 532.46 1257.77 516.88
00019806 00000078 902.23 110.87 395.37 592.89 1079.25 326.16 1228.63 306.11 1234.86 398.95 1118.36 528.96 1257.83 511.55
00019807 00000079 900.15 106.56 394.50 592.18 1077.94 324.31 1226.29 303.71 1235.78 393.56 1119.02 524.55 1257.26 506.63
00019808 00000080 904.82 101.86 398.95 593.93 1083.82 322.48 1228.34 290.55 1249.07 389.67 1125.32 523.58 1261.73 497.06
00019809 00000081 905.68 98.62 404.76 589.55 1087.39 314.82 1236.14 284.93 1259.23 381.20 1125.13 512.82 1275.46 488.53
00019810 00000082 904.86 86.06 402.72 601.75 1090.19 306.52 1235.48 277.02 1261.96 375.08 1129.55 510.28 1273.02 486.43
00019811 00000083 896.92 85.06 406.75 596.83 1079.99 311.12 1225.31 274.26 1255.22 378.66 1118.86 510.67 1265.75 481.00
00019812 00000084 884.62 92.80 406.99 580.56 1063.64 321.90 1209.01 281.69 1231.90 390.15 1106.35 511.25 1253.41 478.79
00019813 00000085 877.11 91.47 407.76 581.42 1048.67 327.91 1201.08 285.51 1212.94 399.45 1094.34 517.35 1247.59 484.26
00019814 00000086 869.83 99.08 392.05 575.15 1038.68 334.97 1196.48 310.37 1191.43 405.37 1075.33 523.57 1223.94 503.40
00019815 00000087 865.09 102.84 385.55 575.40 1027.31 339.83 1185.98 320.54 1171.92 415.30 1060.48 529.16 1206.50 513.10
00019816 00000088 865.16 107.54 381.91 571.46 1018.33 344.13 1180.36 329.41 1158.12 418.90 1057.75 535.59 1200.58 522.67
00019817 DELETE   867.25 107.91 380.72 574.06 1022.73 345.85 1181.67 329.09 1162.86 422.67 1065.97 541.64 1201.42 526.65
00019818 00000090 870.44 105.60 383.63 578.51 1033.92 341.35 1192.83 327.07 1177.47 415.94 1070.14 533.19 1212.76 520.86
00019819 00000091 878.37 103.40 385.97 581.86 1048.90 333.15 1204.34 320.38 1194.05 407.22 1078.58 526.58 1223.79 516.26
00019820 DELETE   884.28 104.04 388.21 572.80 1055.78 315.90 1204.55 299.73 1204.34 402.21 1094.93 514.05 1237.89 500.66
00019821 00000093 882.35 96.10 400.13 576.83 1063.44 320.40 1213.83 294.53 1226.19 397.37 1098.01 511.27 1246.86 490.60
00019822 00000094 887.58 93.99 398.33 578.35 1069.41 324.45 1217.27 295.72 1233.54 399.26 1106.21 512.61 1252.41 489.07
00019823 00000095 887.33 97.62 395.37 577.37 1072.69 331.49 1211.42 295.89 1236.50 404.17 1109.30 517.73 1247.87 489.00
00019824 00000096 890.47 100.50 388.10 578.26 1075.58 338.78 1206.43 299.49 1237.90 405.83 1118.50 524.03 1249.04 492.10
00019825 00000097 888.35 102.15 384.94 564.83 1073.23 340.94 1204.66 302.62 1234.70 405.66 1121.63 520.93 1247.60 489.98
00019826 00000098 884.18 102.23 388.81 569.89 1064.87 344.68 1202.79 300.62 1233.04 409.84 1114.13 527.55 1247.47 492.63
00019827 00000099 882.47 105.49 385.96 571.82 1055.08 343.21 1194.03 303.30 1218.33 408.71 1115.52 533.60 1243.39 501.30
00019828 00000100 874.97 114.35 386.94 572.13 1043.46 346.83 1181.91 305.78 1206.52 409.38 1116.68 543.16 1239.31 509.53
00019829 DELETE   861.24 111.05 384.23 571.56 1036.70 351.90 1177.85 309.84 1200.71 405.16 1094.65 538.09 1224.88 502.91
00019830 DELETE   849.10 101.29 389.40 578.15 1017.77 345.46 1165.57 304.75 1183.73 395.66 1069.96 528.78 1212.13 495.02
00019831 DELETE   837.53 92.06 404.73 590.18 1010.76 331.12 1157.16 298.74 1167.05 386.20 1057.38 519.51 1201.50 492.57
00019832 00000104 831.37 85.08 406.84 597.46 989.25 310.06 1148.90 287.34 1142.50 369.42 1047.06 512.97 1195.78 492.58
00019833 DELETE   827.30 76.07 402.98 595.33 982.39 297.32 1139.69 273.96 1133.06 358.68 1044.29 502.14 1188.47 481.08
00019834 00000106 824.47 74.49 403.55 585.37 978.63 288.93 1137.08 268.43 1128.92 347.60 1042.76 492.46 1186.73 473.39
00019835 00000107 824.27 74.17 399.28 570.63 979.58 286.78 1134.92 264.92 1123.22 345.71 1044.11 485.28 1180.02 465.51
00019836 00000108 823.17 77.42 401.40 564.25 981.46 287.39 1133.89 266.80 1121.63 344.36 1044.39 480.74 1177.28 462.19
00019837 00000109 823.00 74.30 400.45 559.78 984.33 286.80 1137.21 268.68 1122.26 347.52 1044.34 478.63 1175.48 462.21
00019838 00000110 825.57 73.13 396.67 554.55 988.37 284.84 1140.88 269.14 1125.77 348.23 1047.81 476.58 1174.70 462.13
00019839 00000111 828.81 70.50 399.91 552.55 993.14 284.45 1148.76 271.65 1130.69 349.29 1051.28 476.16 1179.36 463.66
00019840 00000112 837.85 73.45 395.70 547.66 999.87 286.68 1161.74 278.38 1139.85 353.55 1050.71 476.47 1186.90 467.56
CROP_BBOX: 574 0 1571 923
