Video ID: 	7-7sHjmjjIU
H: 	1080
W: 	1920
FPS: 	25.0

FRAME INDEX X0 Y0 W H [Landmarks (5 Points)]

00045655 00000000 624.10 130.83 382.03 543.71 698.87 369.44 862.53 335.51 782.34 437.05 754.84 562.61 873.74 536.42
00045656 00000001 617.77 135.73 383.62 543.53 685.95 372.98 853.84 334.95 771.00 440.44 745.19 567.99 868.02 538.39
00045657 00000002 614.23 135.10 379.04 546.81 681.02 370.67 849.11 336.75 764.56 444.08 739.19 566.26 862.23 539.68
00045658 00000003 608.91 135.84 376.21 544.49 679.36 377.60 846.82 347.69 761.74 444.17 733.52 564.07 856.40 540.35
00045659 00000004 600.18 140.52 375.29 530.49 678.33 385.27 835.48 349.15 757.09 452.22 734.69 571.55 849.65 542.85
00045660 00000005 595.44 141.26 377.65 526.75 671.49 383.68 830.96 345.84 750.44 447.65 728.02 568.94 845.25 538.75
00045661 DELETE   592.16 139.81 378.94 523.66 665.03 378.19 825.94 336.28 746.38 442.49 725.07 564.91 843.90 531.19
00045662 DELETE   585.66 134.23 383.43 528.36 656.20 373.08 818.17 328.23 735.34 431.94 713.51 557.00 837.83 520.29
00045663 00000008 577.38 136.03 382.07 524.81 648.00 369.59 808.30 325.15 727.13 428.95 704.02 552.16 827.47 516.44
00045664 DELETE   563.09 132.01 389.27 529.31 634.44 369.28 795.20 321.17 716.63 426.40 698.39 550.99 821.65 512.40
00045665 DELETE   550.33 130.80 393.76 527.59 621.89 375.23 782.44 325.17 703.41 425.80 687.59 549.53 810.77 509.47
00045666 DELETE   541.08 134.84 391.41 523.23 615.45 376.91 771.82 333.27 693.03 428.65 676.32 546.71 796.71 511.74
00045667 00000012 533.08 142.84 392.36 519.91 608.34 382.35 765.60 336.99 688.39 437.40 673.99 551.48 793.36 514.81
00045668 DELETE   530.14 157.16 371.72 516.83 599.49 395.04 753.22 337.63 687.95 452.06 667.27 572.84 794.30 526.34
00045669 00000014 523.19 168.14 393.78 516.24 595.99 402.92 748.20 343.68 680.89 462.49 668.35 582.66 791.66 533.79
00045670 00000015 521.06 173.80 396.43 514.21 593.47 409.53 747.60 350.99 678.17 472.25 668.62 588.35 794.00 539.55
00045671 00000016 520.03 179.22 398.90 518.14 594.37 414.50 745.16 355.76 677.88 483.47 672.01 594.62 796.25 544.98
00045672 00000017 518.21 177.30 401.84 527.75 592.25 414.40 746.31 355.01 677.05 490.67 672.62 600.70 800.09 550.04
00045673 00000018 516.64 175.40 402.43 529.57 590.89 413.98 745.56 355.02 675.87 490.48 669.58 599.43 799.01 549.13
00045674 00000019 515.45 175.71 402.32 526.65 587.79 412.52 744.75 351.87 673.58 487.54 665.48 597.23 797.86 545.78
00045675 00000020 515.37 172.43 401.53 526.79 585.56 410.68 743.64 348.93 670.94 482.12 660.70 593.61 796.76 541.58
00045676 00000021 516.32 169.69 401.05 524.68 586.77 406.19 744.57 346.89 671.89 475.94 660.23 589.31 794.62 539.71
00045677 00000022 520.95 164.25 397.64 524.68 589.17 402.53 748.45 341.78 676.22 468.78 663.25 585.63 799.53 534.71
00045678 00000023 524.50 161.86 396.59 522.18 592.72 398.15 751.11 338.46 680.56 463.97 665.51 579.66 802.17 529.66
00045679 00000024 531.57 152.83 403.03 528.54 597.67 386.32 767.08 334.00 684.57 458.26 672.13 567.38 808.84 524.10
00045680 00000025 538.34 147.01 396.87 527.05 606.95 387.20 771.87 338.52 689.50 450.69 675.69 561.08 809.00 521.10
00045681 00000026 542.95 143.86 399.43 525.51 614.04 387.36 777.67 338.33 695.85 447.63 682.82 556.20 816.48 515.95
00045682 00000027 549.79 137.83 394.52 531.75 621.80 382.82 784.95 333.28 707.15 442.95 690.35 555.94 823.64 515.32
00045683 00000028 556.42 132.05 388.15 536.25 629.24 375.93 795.34 328.40 716.09 439.79 696.49 555.98 830.16 516.96
00045684 00000029 560.74 135.38 384.15 530.61 633.87 375.20 798.77 327.77 722.31 441.37 701.61 555.10 833.78 515.91
00045685 00000030 567.94 138.14 390.75 529.31 640.02 376.98 799.94 328.78 725.17 444.58 707.51 558.17 833.82 518.57
00045686 00000031 574.75 138.17 387.71 530.35 645.30 375.40 806.34 328.14 731.40 443.65 710.76 559.39 837.79 520.33
00045687 00000032 578.96 138.99 386.17 530.16 646.99 374.92 809.27 328.34 731.09 444.88 710.30 559.08 839.40 520.41
00045688 00000033 579.26 141.29 385.93 528.12 647.42 375.74 810.17 330.07 731.41 446.24 710.36 559.85 839.10 522.09
00045689 00000034 581.08 143.78 384.06 527.40 648.49 377.11 809.56 331.54 731.49 448.65 711.81 562.25 838.11 524.66
00045690 00000035 582.11 142.50 382.00 532.08 648.61 377.30 809.01 331.36 732.45 451.42 713.72 566.02 837.44 528.29
00045691 00000036 583.00 144.98 380.45 531.02 653.56 384.26 811.35 338.42 735.13 451.17 716.41 567.77 838.48 530.28
00045692 00000037 583.87 143.88 380.45 532.65 658.87 390.43 814.84 347.73 738.01 453.13 718.66 568.16 840.14 533.19
00045693 00000038 583.66 144.85 381.65 531.35 660.11 390.86 816.19 347.97 741.29 455.28 720.90 567.91 842.88 532.72
00045694 00000039 586.87 147.95 380.12 528.27 657.93 388.57 816.57 343.22 739.08 455.50 720.34 569.80 843.17 532.77
00045695 00000040 587.35 148.33 379.57 529.97 655.58 386.70 816.60 340.01 738.95 457.45 719.05 571.75 842.90 533.66
00045696 00000041 585.28 148.97 379.15 530.88 654.04 388.71 816.11 342.46 739.16 461.47 718.37 573.42 843.47 535.80
00045697 00000042 585.41 150.35 379.09 532.04 653.66 389.60 816.27 343.83 738.83 463.65 717.92 574.89 843.89 537.73
00045698 00000043 584.94 150.66 378.74 533.57 652.61 388.91 814.81 344.37 737.56 464.52 717.31 575.41 842.89 539.29
00045699 00000044 583.31 150.66 379.96 532.30 650.22 387.45 812.76 343.15 735.43 464.42 715.65 573.97 841.57 538.02
00045700 00000045 582.13 150.56 380.43 529.85 647.56 386.27 809.56 342.94 730.21 464.20 712.18 571.51 838.56 536.25
00045701 00000046 578.67 149.00 383.14 531.77 645.59 386.91 808.41 342.91 728.66 462.70 711.46 572.61 838.18 536.64
00045702 00000047 576.89 149.45 385.59 532.43 642.94 386.29 806.40 340.60 725.01 461.34 709.48 572.24 838.08 534.70
00045703 00000048 573.71 150.65 387.86 535.72 641.60 386.09 803.83 340.14 724.37 461.29 709.04 573.34 837.39 535.64
00045704 00000049 572.93 147.53 386.90 545.66 639.63 383.22 800.46 336.89 721.71 459.61 707.70 574.07 837.17 536.12
00045705 00000050 569.36 143.78 391.46 547.35 636.72 379.72 797.97 331.80 718.09 454.13 704.87 570.80 835.64 531.19
00045706 00000051 564.16 141.12 396.84 541.99 633.38 376.95 795.82 328.08 716.06 449.70 701.02 562.87 835.96 521.93
00045707 00000052 561.82 139.83 398.18 538.73 631.25 376.43 793.36 325.71 713.95 445.95 700.20 559.73 835.29 517.20
00045708 00000053 559.18 131.39 380.58 543.94 628.12 375.48 794.70 325.76 715.41 443.69 698.93 557.83 837.61 516.03
00045709 00000054 556.46 137.09 394.17 539.96 625.21 375.44 791.94 327.19 709.18 445.09 695.89 558.93 832.05 518.66
00045710 00000055 555.55 142.64 392.46 533.58 628.42 376.99 788.98 336.95 709.72 453.27 692.24 561.46 817.81 528.78
00045711 00000056 555.25 143.00 398.25 536.01 626.86 382.54 792.61 336.37 712.37 457.95 696.71 565.47 831.79 527.00
00045712 00000057 557.13 144.19 396.27 539.94 628.14 384.53 793.86 339.06 714.28 460.85 697.64 568.55 833.48 530.76
00045713 00000058 554.99 146.49 396.29 539.09 626.47 385.12 792.53 339.75 713.65 462.60 697.74 570.09 832.36 532.47
00045714 00000059 553.11 147.61 398.27 540.31 623.07 385.60 789.12 340.01 709.07 463.16 694.74 571.15 828.96 533.36
00045715 00000060 550.73 148.45 399.19 542.30 618.27 386.42 785.27 338.63 704.08 463.37 691.15 573.02 827.46 533.57
00045716 00000061 549.75 151.02 397.34 543.37 615.31 387.95 779.53 337.49 700.08 464.43 688.74 574.24 824.99 532.78
00045717 00000062 547.69 150.08 398.32 545.39 613.20 386.83 777.03 336.88 698.04 464.35 686.27 573.53 823.25 532.34
00045718 00000063 544.66 149.95 399.57 542.46 611.60 387.71 776.24 338.46 697.29 464.70 684.99 572.61 820.23 532.00
00045719 00000064 543.70 150.23 400.94 538.46 609.95 388.07 774.77 339.30 694.80 463.84 681.70 569.77 817.41 529.44
00045720 00000065 543.67 150.97 401.25 538.31 610.38 389.14 775.13 339.67 696.37 463.88 682.37 569.78 818.49 528.92
00045721 00000066 544.56 150.79 401.43 539.61 610.77 388.92 776.45 339.96 696.79 465.75 683.28 571.82 819.48 531.40
00045722 00000067 545.65 152.32 401.71 539.60 611.12 391.08 778.03 341.90 697.22 467.11 683.11 573.51 821.31 532.95
00045723 00000068 547.17 152.70 400.77 539.60 611.85 392.91 779.90 341.91 698.40 467.54 684.32 573.82 825.32 531.73
00045724 00000069 549.28 153.17 401.75 537.66 614.73 392.41 782.53 341.25 700.63 465.67 686.80 572.97 827.78 530.65
00045725 00000070 549.89 150.73 402.09 538.26 616.19 390.26 784.28 338.97 702.33 462.81 688.56 571.24 830.35 528.73
00045726 00000071 550.44 147.91 401.67 538.72 617.90 386.65 785.67 338.76 703.96 462.19 690.61 569.76 829.28 530.01
00045727 00000072 553.23 146.61 398.42 543.98 620.21 384.40 787.00 336.22 705.95 461.38 692.15 570.80 831.62 530.79
00045728 00000073 555.24 146.18 397.47 546.47 623.93 383.74 789.99 334.50 711.70 461.51 695.86 570.86 836.93 529.61
00045729 00000074 559.28 148.51 395.23 544.19 628.98 384.00 794.99 335.86 717.78 465.59 699.51 571.76 839.90 531.40
00045730 00000075 564.26 150.73 392.91 543.48 634.98 386.89 798.23 339.81 724.09 470.87 704.79 573.35 841.80 534.14
00045731 00000076 568.39 152.95 388.12 542.22 639.51 386.83 802.47 343.60 728.26 474.00 708.35 576.78 839.50 541.36
00045732 00000077 573.24 156.85 388.64 539.65 640.61 391.78 807.27 345.35 731.51 473.53 702.05 584.72 838.26 547.68
00045733 00000078 571.01 151.28 386.19 544.31 641.34 386.39 807.36 345.09 731.50 473.47 707.86 577.35 839.77 543.67
00045734 00000079 572.72 150.76 384.98 546.90 642.02 387.28 808.19 345.23 732.03 473.92 707.51 578.45 840.15 544.24
00045735 00000080 577.21 154.82 385.48 542.97 643.60 391.07 811.54 344.41 735.74 473.42 703.59 585.27 840.85 548.46
00045736 00000081 580.17 155.58 384.25 542.87 646.81 391.70 814.09 344.13 738.56 472.73 706.33 585.29 843.97 547.57
00045737 00000082 582.43 155.12 384.79 548.09 648.94 390.98 815.45 343.75 738.35 471.41 706.81 584.53 846.42 546.64
00045738 00000083 585.93 155.29 383.87 549.22 650.44 393.06 816.96 340.80 738.84 469.01 708.92 584.92 853.78 542.31
00045739 00000084 587.26 155.45 385.05 548.69 651.07 393.01 819.94 340.56 739.97 469.87 708.65 584.14 857.22 541.17
00045740 00000085 588.60 154.55 386.06 548.30 652.18 392.25 821.59 340.13 740.17 468.64 708.75 581.72 859.98 538.84
00045741 00000086 587.40 155.32 387.69 545.69 651.54 390.56 821.80 337.54 739.87 464.34 707.29 577.43 861.83 533.66
00045742 00000087 583.07 151.72 388.44 547.87 650.34 387.02 821.13 334.38 739.94 461.14 705.11 572.29 862.63 528.71
00045743 00000088 580.85 147.43 392.83 549.25 648.16 389.37 822.90 335.78 737.44 462.26 702.56 573.02 864.94 527.79
00045744 00000089 577.79 151.31 391.38 546.58 646.80 390.57 820.27 339.86 737.39 467.48 701.65 574.41 859.15 531.94
00045745 00000090 577.41 157.50 390.87 550.29 647.55 395.84 817.81 349.13 736.74 477.07 704.82 582.90 856.52 543.62
00045746 00000091 579.06 162.94 388.21 542.37 648.96 400.42 818.99 354.29 740.33 488.90 708.62 590.02 855.31 551.49
00045747 00000092 578.48 166.38 387.50 541.22 648.20 400.55 820.80 356.00 741.32 491.94 709.15 593.53 855.33 556.20
00045748 00000093 577.68 165.13 388.55 542.98 645.64 403.04 817.79 358.62 737.26 492.89 705.74 594.18 854.25 556.91
00045749 00000094 574.34 165.25 389.73 542.56 642.91 403.81 813.77 359.76 734.46 492.26 701.73 591.77 850.83 555.15
00045750 00000095 574.17 162.23 388.52 543.13 640.34 403.16 809.23 357.65 730.72 490.78 699.03 588.45 848.78 550.77
00045751 00000096 567.96 155.82 390.12 543.71 638.55 394.25 805.22 352.82 728.06 484.56 702.12 577.62 842.51 543.34
00045752 00000097 571.92 156.25 389.75 546.84 639.09 393.37 807.30 349.82 731.23 480.12 699.32 586.18 839.43 551.43
00045753 00000098 573.39 153.25 387.16 545.42 639.50 386.09 810.79 344.10 731.73 472.92 699.02 583.38 837.05 550.34
00045754 00000099 571.22 147.60 383.52 544.97 640.92 380.00 809.92 343.25 729.71 471.19 703.71 573.62 838.09 543.66
00045755 00000100 573.45 147.33 381.94 543.28 642.27 382.85 812.22 345.13 732.40 472.85 705.04 574.03 840.87 543.19
00045756 00000101 575.22 150.42 380.94 540.59 643.22 387.92 811.95 350.10 731.14 477.07 705.51 575.97 841.37 545.05
00045757 00000102 581.00 156.96 380.98 541.27 646.64 394.56 816.21 352.15 738.27 482.23 702.91 585.85 843.71 552.15
00045758 00000103 586.61 153.78 376.82 546.08 649.65 390.93 820.77 349.10 740.34 480.64 704.44 585.47 845.93 552.36
00045759 00000104 589.24 154.72 365.58 542.06 654.35 381.20 820.98 346.44 743.17 473.99 704.01 585.41 826.70 560.50
00045760 00000105 588.26 150.62 364.67 539.77 657.59 376.83 826.77 338.65 750.18 465.08 710.74 580.80 835.61 552.99
00045761 00000106 590.44 146.18 367.82 544.05 660.94 370.52 827.39 336.89 750.44 463.49 713.71 577.84 833.86 553.10
00045762 00000107 591.47 146.55 374.24 547.22 659.90 374.60 826.81 334.90 750.05 463.22 716.67 577.18 843.95 546.83
00045763 00000108 591.77 149.64 376.35 546.49 657.97 378.07 828.11 338.34 748.59 465.86 711.61 578.87 846.70 548.43
00045764 00000109 590.97 152.15 374.86 545.85 655.15 381.97 825.99 341.56 745.72 469.98 707.81 581.67 846.23 550.64
00045765 00000110 590.87 152.34 374.97 550.23 653.01 387.13 824.20 344.01 742.60 472.44 707.10 586.06 848.33 552.32
00045766 00000111 589.48 153.02 378.85 552.12 651.64 389.19 822.96 343.97 739.85 473.22 706.56 586.53 850.89 550.08
00045767 00000112 587.98 152.41 381.62 547.85 650.83 390.67 823.68 344.34 739.71 472.36 704.00 582.09 854.33 544.38
00045768 00000113 587.47 149.70 381.22 544.86 650.90 388.10 825.13 341.88 740.25 469.02 702.22 577.52 854.90 539.74
00045769 00000114 587.39 149.56 382.70 541.97 651.96 386.97 826.26 340.78 741.89 467.07 702.64 574.69 856.07 536.70
00045770 00000115 588.56 149.98 381.19 541.36 653.46 387.18 827.67 340.78 743.98 466.36 704.43 574.55 858.55 536.57
00045771 00000116 589.57 151.59 381.88 541.73 654.28 388.76 826.92 342.15 744.29 469.74 706.24 575.96 859.20 537.67
00045772 00000117 589.17 153.63 382.11 542.71 654.30 390.84 826.20 344.10 744.63 473.00 705.99 577.83 859.97 539.60
00045773 00000118 589.33 154.89 383.41 543.21 655.01 392.21 826.84 344.56 745.60 473.98 707.53 578.83 862.59 539.61
00045774 00000119 589.58 154.57 384.26 543.13 655.38 393.91 827.36 345.53 746.28 474.97 708.35 579.79 864.22 539.87
CROP_BBOX: 363 0 1207 828
