Video ID: 	ukYqwohsm3Q
H: 	1080
W: 	1920
FPS: 	25.0

FRAME INDEX X0 Y0 W H [Landmarks (5 Points)]

00001179 00000000 782.68 218.34 381.01 550.35 901.66 405.95 1101.92 409.57 1018.77 470.26 917.49 608.24 1089.22 611.88
00001180 00000001 783.84 214.58 380.54 557.70 901.45 410.21 1102.92 410.18 1020.35 469.77 922.91 612.14 1094.37 612.63
00001181 00000002 786.24 214.67 377.84 557.58 900.18 410.99 1102.62 408.92 1017.33 469.65 920.59 612.59 1093.52 611.98
00001182 00000003 787.76 206.25 372.70 563.60 902.74 409.01 1102.39 406.04 1021.15 474.71 921.04 608.61 1093.96 607.98
00001183 00000004 779.44 231.24 378.85 528.14 898.77 415.73 1089.84 419.57 1018.98 471.02 923.87 607.24 1084.89 610.54
00001184 00000005 779.96 231.31 379.72 529.00 902.54 414.07 1091.49 417.74 1018.15 471.57 924.33 605.89 1082.80 609.57
00001185 00000006 777.70 231.26 382.38 530.81 898.81 416.67 1090.45 417.00 1015.84 474.57 922.20 609.86 1083.39 611.05
00001186 DELETE   774.90 248.08 386.01 514.26 896.35 419.51 1086.06 416.34 1008.00 477.45 920.64 611.38 1078.74 609.70
00001187 00000008 770.85 223.04 389.33 545.49 899.74 418.20 1088.78 417.40 1010.53 481.59 918.37 611.36 1076.95 611.76
00001188 00000009 775.42 230.52 385.47 541.94 897.97 419.63 1087.95 417.63 1007.62 481.95 917.12 614.14 1075.78 613.44
00001189 DELETE   776.57 233.70 386.12 547.04 896.30 418.61 1090.20 419.33 1004.70 482.52 913.17 618.01 1074.29 619.73
00001190 DELETE   774.23 244.76 386.78 543.73 892.89 419.46 1083.74 421.29 998.58 484.51 912.06 620.74 1068.38 623.58
00001191 00000012 774.32 240.88 387.37 552.76 890.87 418.62 1082.69 418.29 995.01 484.41 912.08 623.81 1065.86 624.67
00001192 00000013 775.56 241.02 389.71 552.46 893.37 416.19 1084.61 416.85 996.91 482.80 912.02 623.07 1065.43 624.86
00001193 00000014 772.29 250.28 390.68 543.02 890.06 421.69 1080.81 422.93 993.43 483.60 910.29 623.64 1065.34 625.76
00001194 00000015 769.29 245.35 389.59 548.66 885.86 420.03 1082.32 421.73 992.38 484.74 907.34 627.84 1065.87 630.15
00001195 00000016 765.93 246.60 392.59 548.02 883.82 420.36 1082.25 420.89 992.50 486.22 906.50 629.92 1066.43 630.89
00001196 00000017 764.90 240.08 391.29 559.53 884.61 421.32 1078.83 418.20 1001.13 491.14 904.16 637.43 1067.21 634.07
00001197 00000018 764.37 239.60 399.42 563.03 883.74 423.41 1082.66 420.22 993.07 489.08 907.76 635.84 1068.04 633.57
00001198 00000019 764.39 240.64 398.77 561.91 882.58 420.40 1080.97 416.72 989.08 488.44 907.39 636.27 1065.74 633.56
00001199 00000020 765.88 241.46 399.69 566.47 885.62 420.39 1088.90 423.38 991.70 490.12 905.10 638.83 1069.37 641.93
00001200 00000021 765.90 247.33 400.23 563.78 885.73 425.52 1086.02 426.26 989.31 490.51 906.66 640.70 1069.48 642.32
00001201 00000022 759.49 256.42 408.18 551.49 887.11 430.84 1086.77 432.29 992.41 495.36 908.57 641.56 1071.20 643.61
00001202 00000023 760.53 253.94 409.83 560.67 887.31 431.29 1089.29 433.02 997.45 499.55 908.54 646.57 1074.02 648.72
00001203 00000024 760.20 247.03 417.07 570.05 886.47 430.14 1097.32 433.77 999.95 503.28 908.17 653.54 1076.50 656.53
00001204 00000025 763.57 254.80 414.62 566.60 887.82 437.72 1097.83 440.50 998.94 509.65 908.03 655.04 1079.20 657.39
00001205 00000026 757.26 261.86 421.03 563.62 883.35 442.00 1096.68 443.93 997.69 514.92 906.91 660.09 1080.24 662.06
00001206 00000027 762.37 261.99 411.22 566.49 886.37 449.03 1095.95 451.50 998.24 521.26 907.74 661.90 1079.84 665.26
00001207 00000028 761.83 262.97 412.10 566.68 891.40 455.05 1099.73 464.06 1005.15 525.92 907.66 661.69 1081.36 670.21
00001208 00000029 770.34 254.20 409.19 578.94 899.41 451.15 1107.54 462.40 1010.40 529.51 913.36 665.23 1083.24 675.84
00001209 00000030 768.21 253.64 412.09 584.50 901.25 449.23 1115.47 466.10 1015.74 532.55 915.06 669.22 1088.50 683.98
00001210 00000031 765.86 240.69 416.29 609.34 902.94 449.40 1116.05 467.90 1016.08 536.42 910.66 672.14 1086.45 688.18
00001211 00000032 764.71 235.43 421.20 615.64 906.11 449.68 1120.96 468.21 1026.32 542.98 915.31 675.23 1091.14 690.78
00001212 00000033 766.39 227.96 422.60 622.87 910.60 454.51 1122.99 471.84 1032.33 548.08 922.86 679.10 1092.66 693.07
00001213 00000034 765.77 218.07 426.10 635.36 907.21 457.40 1124.40 472.32 1031.37 544.53 923.25 682.98 1095.89 694.23
00001214 00000035 777.55 221.99 418.00 626.46 909.90 460.93 1129.41 470.07 1033.68 552.61 929.81 691.63 1100.60 697.92
00001215 00000036 777.18 211.98 422.77 639.14 910.95 466.62 1124.42 472.20 1036.19 562.01 936.56 696.77 1099.72 699.76
00001216 00000037 772.41 211.89 429.06 648.50 912.50 471.95 1128.12 474.30 1039.99 573.99 941.43 710.82 1099.56 711.27
00001217 00000038 773.17 228.26 434.68 659.65 909.40 480.36 1131.05 475.24 1039.68 584.05 933.47 725.17 1105.36 720.03
00001218 DELETE   771.08 229.69 442.08 674.95 905.53 482.02 1129.14 472.89 1036.77 589.48 933.91 738.10 1106.95 730.17
00001219 00000040 770.95 226.77 437.16 681.36 910.90 490.34 1127.86 484.40 1044.37 595.91 933.32 737.75 1107.72 732.17
00001220 00000041 769.71 230.14 438.05 673.10 913.52 502.72 1127.11 495.48 1046.61 606.77 933.84 739.90 1107.33 733.18
00001221 DELETE   758.14 228.57 446.41 673.45 912.56 503.58 1124.97 501.31 1049.40 610.59 934.65 738.81 1107.43 735.81
00001222 00000043 758.28 225.60 450.86 683.68 915.63 508.63 1129.43 506.12 1051.15 614.85 939.25 746.46 1111.54 743.58
00001223 00000044 776.74 227.36 437.01 695.44 925.33 507.73 1140.02 514.60 1057.68 612.55 938.11 748.26 1110.47 755.38
00001224 00000045 779.79 236.09 439.50 702.75 926.80 509.71 1136.67 518.74 1059.40 618.19 943.46 755.31 1113.87 764.14
00001225 00000046 779.05 235.58 441.74 697.55 928.40 514.41 1136.80 521.68 1059.48 620.28 947.93 756.69 1115.89 763.75
00001226 00000047 775.26 240.20 445.80 684.24 929.16 517.61 1140.49 524.10 1061.71 622.98 949.20 755.00 1117.61 761.60
00001227 00000048 773.40 237.24 448.40 682.38 930.56 520.52 1141.95 524.83 1063.65 623.24 951.71 754.78 1116.74 759.47
00001228 00000049 769.80 238.63 451.48 676.37 932.56 518.99 1148.17 524.58 1064.81 629.17 950.00 755.72 1115.12 761.36
00001229 00000050 779.06 240.99 443.83 671.20 930.04 528.89 1146.31 530.91 1062.46 635.19 952.83 759.47 1118.38 761.91
00001230 00000051 778.53 245.88 443.04 673.61 926.74 533.14 1144.22 535.78 1064.24 640.91 953.30 773.83 1118.49 773.02
00001231 00000052 780.92 250.95 438.91 670.20 925.42 540.02 1142.44 542.27 1061.70 647.53 951.62 775.86 1121.33 774.46
00001232 00000053 782.32 256.03 435.39 660.89 924.48 542.75 1140.11 543.95 1058.81 653.20 952.63 777.86 1118.61 775.46
00001233 00000054 781.46 255.11 439.18 676.53 923.79 549.61 1138.43 548.14 1057.88 660.41 950.63 787.77 1114.89 783.75
00001234 00000055 776.17 250.66 448.06 692.30 922.19 554.05 1141.90 551.01 1052.47 661.29 941.07 781.27 1112.68 778.86
00001235 00000056 777.03 259.46 448.13 683.26 921.79 553.75 1139.75 552.76 1049.34 662.89 943.91 784.10 1111.74 783.14
00001236 00000057 759.60 264.29 457.76 685.90 920.34 555.37 1129.69 552.10 1058.69 660.83 951.59 796.25 1111.58 791.95
00001237 00000058 774.12 275.20 447.19 689.04 928.64 557.86 1134.91 558.70 1058.75 662.07 942.32 793.31 1109.64 794.38
00001238 00000059 767.21 275.09 452.56 697.66 924.87 558.63 1131.46 561.71 1053.49 665.48 939.91 798.32 1101.63 801.20
00001239 00000060 756.23 269.60 460.88 698.47 916.70 557.11 1124.93 556.11 1047.62 668.56 944.07 805.20 1101.26 802.53
00001240 00000061 750.29 269.58 461.32 688.94 910.95 560.66 1122.53 555.72 1048.12 673.01 939.54 805.75 1098.55 800.12
00001241 00000062 754.04 269.10 451.45 686.33 908.50 564.50 1118.56 558.17 1042.45 673.95 932.29 804.44 1091.80 798.32
00001242 00000063 750.23 269.81 450.81 683.88 906.91 567.45 1113.50 560.55 1039.01 674.65 930.54 803.51 1087.70 797.17
00001243 00000064 744.04 271.47 455.90 685.32 900.69 569.77 1114.19 563.18 1040.08 675.42 921.79 804.35 1089.40 798.36
00001244 00000065 734.56 279.40 466.02 673.35 896.96 572.98 1110.65 560.36 1039.18 676.34 924.05 804.61 1092.95 793.82
00001245 00000066 734.24 277.33 468.81 676.25 896.91 573.33 1109.88 561.32 1038.36 679.46 925.35 803.66 1093.77 793.08
00001246 00000067 733.22 275.78 470.75 678.07 895.02 574.24 1109.89 561.38 1037.88 682.38 924.11 807.46 1089.95 796.47
00001247 00000068 735.62 278.02 469.30 683.22 896.92 575.23 1108.46 563.11 1038.09 687.93 923.36 808.32 1089.15 798.23
00001248 00000069 731.08 282.63 473.05 689.37 892.88 578.84 1107.22 567.19 1034.40 691.44 919.70 813.67 1090.29 804.15
00001249 00000070 729.85 278.19 473.90 692.99 891.81 576.46 1107.97 566.24 1034.71 692.35 921.09 815.46 1089.89 806.91
00001250 00000071 732.40 276.68 469.54 700.31 904.26 573.78 1108.54 569.43 1040.46 699.51 923.53 813.38 1083.90 810.18
00001251 00000072 734.65 279.52 469.07 691.80 899.55 574.68 1111.60 570.15 1037.74 701.52 922.13 814.22 1086.08 810.59
00001252 00000073 743.86 274.37 459.61 693.69 905.61 570.39 1112.47 573.29 1037.76 705.55 922.63 809.19 1082.66 811.43
00001253 00000074 739.06 269.26 462.15 690.65 900.51 568.43 1111.45 570.56 1035.17 706.44 918.88 809.98 1078.47 811.71
00001254 00000075 735.25 269.12 463.11 699.27 894.16 569.46 1106.42 565.01 1034.08 700.43 917.01 808.99 1082.50 805.19
00001255 00000076 724.65 266.91 472.93 700.94 892.66 568.35 1107.35 562.62 1034.15 700.80 914.41 809.32 1080.89 804.47
00001256 00000077 716.46 265.92 488.06 695.62 895.29 569.15 1104.57 560.96 1028.96 692.13 915.31 798.46 1077.11 792.76
00001257 00000078 720.38 259.31 485.89 696.50 889.90 564.03 1102.01 555.95 1022.95 689.98 911.32 793.26 1076.97 787.88
00001258 00000079 740.15 254.28 464.19 697.45 891.86 558.27 1101.82 553.76 1015.71 691.92 908.72 793.91 1071.59 792.11
00001259 00000080 728.08 254.00 473.66 699.88 885.41 557.18 1099.67 552.58 1016.07 691.22 908.56 794.02 1069.41 791.66
00001260 00000081 720.92 250.71 484.61 705.92 883.44 555.22 1102.22 549.65 1017.00 692.49 906.52 792.71 1070.80 788.98
00001261 00000082 727.19 251.08 476.76 695.48 885.37 554.32 1107.48 550.22 1019.57 693.54 908.68 791.12 1072.50 788.78
00001262 00000083 731.99 250.57 468.53 695.69 889.58 551.57 1108.37 546.56 1022.79 694.72 905.75 789.23 1068.54 787.15
00001263 00000084 732.04 239.82 469.12 707.81 883.46 550.83 1105.87 547.31 1017.89 694.59 903.12 791.32 1068.81 789.65
00001264 00000085 715.55 246.77 481.55 688.99 880.07 554.96 1103.03 542.90 1021.09 690.09 908.67 790.91 1071.23 782.56
00001265 00000086 718.27 247.89 476.33 685.03 883.45 554.49 1105.31 541.48 1021.82 690.30 905.01 786.03 1067.79 776.77
00001266 00000087 723.55 247.97 471.50 681.56 885.27 550.38 1105.23 541.10 1023.73 686.79 906.28 781.68 1070.02 775.40
00001267 00000088 724.16 246.37 467.72 676.06 884.13 552.23 1110.02 539.09 1024.27 689.97 907.48 784.75 1073.10 775.73
00001268 00000089 728.13 248.09 468.34 680.41 887.52 549.23 1111.96 535.13 1026.72 689.27 916.37 789.96 1075.89 779.92
00001269 00000090 718.56 242.57 482.46 697.79 885.40 547.29 1114.67 529.54 1031.45 690.85 911.94 795.95 1075.28 783.91
00001270 00000091 732.08 244.29 466.07 691.74 885.04 545.01 1110.58 531.84 1023.96 686.57 909.24 790.67 1071.03 781.91
00001271 00000092 737.23 237.34 467.05 713.62 884.76 541.85 1111.22 531.52 1019.48 683.89 908.92 794.06 1073.89 787.57
00001272 00000093 741.86 241.50 462.32 689.76 885.62 541.61 1113.86 533.70 1018.19 678.56 908.33 793.56 1069.33 789.17
00001273 00000094 705.53 233.73 502.94 719.93 880.03 538.86 1119.50 532.03 1025.69 671.00 904.24 796.99 1080.84 792.45
00001274 00000095 700.06 225.23 506.11 715.19 873.75 534.28 1119.38 521.71 1029.93 675.62 913.50 799.00 1091.07 789.47
00001275 00000096 708.89 219.46 500.94 731.08 873.02 534.14 1115.67 520.78 1025.68 681.33 909.98 801.30 1084.57 792.33
00001276 00000097 705.34 224.86 501.46 729.18 871.60 538.92 1108.88 520.48 1023.18 677.48 919.67 802.39 1088.52 789.22
00001277 00000098 705.44 229.22 504.02 721.56 873.92 542.24 1104.37 520.83 1023.25 673.86 923.95 796.29 1094.23 780.26
00001278 00000099 684.74 227.19 533.39 731.70 870.38 548.89 1105.63 532.78 1022.30 668.19 915.31 794.93 1096.38 782.29
00001279 00000100 675.33 225.51 543.50 730.90 866.34 545.12 1107.29 531.39 1018.02 670.27 907.82 792.44 1091.19 781.45
00001280 00000101 691.36 222.87 526.89 721.16 868.20 540.64 1105.89 526.62 1014.62 670.29 908.41 788.02 1089.04 777.23
00001281 00000102 694.67 220.13 521.01 736.70 866.12 536.04 1101.04 521.53 1010.97 670.77 911.82 792.33 1088.84 781.03
00001282 00000103 695.12 215.53 518.41 730.71 866.61 534.45 1097.58 519.27 1008.59 669.11 909.29 784.55 1083.14 772.47
00001283 00000104 701.02 217.25 510.31 735.37 869.78 527.97 1096.18 515.42 1009.29 665.58 913.45 784.76 1082.21 775.47
00001284 00000105 697.26 214.66 515.13 749.46 868.88 526.67 1096.00 515.15 1008.49 663.28 910.39 786.15 1082.47 777.42
00001285 00000106 695.89 208.61 519.35 754.40 865.89 525.76 1095.19 515.41 1004.83 663.41 906.80 784.39 1080.25 776.10
00001286 00000107 694.89 207.35 517.40 758.72 863.38 522.55 1092.80 515.57 998.57 661.00 900.82 783.13 1072.75 777.89
00001287 00000108 691.43 204.80 516.05 746.76 861.56 521.23 1092.61 513.89 996.69 663.26 899.35 779.15 1067.08 774.17
00001288 00000109 692.26 199.63 518.11 749.01 861.46 518.12 1091.74 508.01 996.94 664.93 905.05 777.29 1073.25 769.93
00001289 00000110 691.48 196.26 523.31 744.30 862.05 516.50 1096.88 507.70 999.67 665.87 907.78 776.70 1076.36 769.92
00001290 00000111 695.73 192.68 521.25 729.09 862.66 512.35 1096.57 505.10 997.17 666.09 907.53 768.25 1074.30 762.89
00001291 00000112 694.63 193.60 523.74 728.44 860.03 509.02 1095.03 504.32 994.08 658.18 907.11 766.18 1073.06 762.76
00001292 00000113 693.98 190.91 521.47 721.57 863.70 503.51 1095.17 499.41 996.54 653.16 908.47 756.18 1072.94 753.52
00001293 00000114 693.84 190.60 522.46 732.97 867.08 501.65 1096.88 497.64 998.13 650.42 906.42 755.96 1073.62 753.16
00001294 00000115 693.40 184.46 530.59 750.06 871.06 497.83 1099.33 495.00 1001.17 648.42 907.61 757.04 1078.16 754.76
CROP_BBOX: 348 0 1552 1080
