Video ID: 	6fHuR02SprI
H: 	1080
W: 	1920
FPS: 	29.97002997002997

FRAME INDEX X0 Y0 W H [Landmarks (5 Points)]

00022711 00000000 941.21 110.42 400.82 511.21 1052.18 301.50 1217.35 273.69 1148.45 342.18 1092.90 482.75 1226.78 459.51
00022712 DELETE   936.93 114.88 405.71 523.51 1044.60 313.33 1202.85 283.60 1139.12 360.99 1090.41 493.11 1221.20 468.50
00022713 DELETE   928.84 107.82 413.99 549.12 1039.08 328.45 1195.12 301.67 1130.42 382.19 1087.77 511.19 1215.49 489.30
00022714 00000003 924.09 113.42 412.63 565.43 1036.22 344.46 1193.95 320.83 1129.62 411.93 1085.60 538.38 1207.33 519.26
00022715 00000004 922.54 128.32 416.38 563.49 1034.95 359.30 1197.69 329.66 1131.36 419.17 1088.23 552.45 1207.06 527.34
00022716 DELETE   915.48 128.80 422.03 575.37 1025.92 368.28 1191.11 339.57 1123.86 438.11 1085.41 567.15 1203.86 542.47
00022717 DELETE   918.58 145.14 418.79 565.69 1023.34 380.18 1185.43 352.15 1116.53 448.34 1081.57 576.52 1198.24 553.48
00022718 00000007 920.78 153.17 409.29 573.24 1023.40 391.38 1177.98 367.75 1113.13 465.20 1080.91 589.97 1193.21 571.20
00022719 DELETE   920.90 156.81 410.07 586.17 1024.12 401.31 1175.89 379.31 1110.63 480.89 1078.26 602.13 1188.30 584.46
00022720 00000009 920.65 153.01 417.79 598.35 1025.69 406.31 1179.54 387.81 1109.59 492.21 1079.05 608.18 1192.63 593.21
00022721 00000010 922.69 157.60 415.25 595.22 1028.71 411.24 1179.47 395.68 1109.51 499.76 1078.03 612.09 1190.13 599.64
00022722 00000011 924.34 159.93 415.66 591.55 1029.28 416.03 1181.99 400.89 1110.83 503.67 1078.82 613.54 1193.16 601.42
00022723 00000012 925.58 160.57 416.11 591.07 1030.47 417.18 1184.80 401.93 1113.17 505.97 1080.24 613.44 1197.06 601.03
00022724 00000013 928.57 163.92 415.74 585.12 1031.60 416.55 1185.50 401.41 1113.59 506.86 1081.65 610.53 1200.36 598.24
00022725 00000014 928.63 161.51 416.62 585.83 1032.33 414.64 1186.93 398.48 1114.19 505.56 1082.34 608.38 1202.79 595.22
00022726 00000015 927.99 161.07 416.48 586.22 1032.28 413.88 1187.67 397.91 1115.34 506.00 1082.68 608.63 1202.99 595.62
00022727 00000016 928.70 163.26 416.23 583.70 1032.68 413.60 1187.99 396.88 1116.45 504.53 1082.92 608.62 1202.92 595.09
00022728 00000017 928.07 162.06 417.15 584.47 1033.58 411.08 1187.56 395.03 1116.58 502.59 1082.70 606.85 1202.28 593.75
00022729 00000018 928.15 160.38 416.90 583.91 1033.67 409.87 1187.25 393.72 1116.07 501.40 1082.34 605.30 1201.75 591.95
00022730 00000019 928.93 160.65 416.95 580.52 1032.59 410.67 1188.25 393.99 1117.14 500.74 1082.37 604.21 1204.10 590.35
00022731 00000020 929.11 160.54 417.59 580.12 1034.17 411.90 1190.73 395.65 1119.72 499.67 1083.28 603.23 1206.81 589.76
00022732 00000021 929.81 157.95 417.99 581.97 1035.30 411.95 1192.18 395.81 1121.08 498.77 1084.21 602.43 1207.96 589.07
00022733 00000022 930.31 156.14 419.22 585.04 1036.58 412.11 1192.91 396.33 1121.30 499.16 1084.28 602.86 1207.43 589.77
00022734 00000023 931.52 153.79 417.91 586.46 1038.18 411.31 1193.89 395.90 1122.46 498.82 1085.18 602.53 1207.06 589.82
00022735 00000024 932.32 154.90 416.62 586.13 1040.25 410.33 1194.48 395.72 1123.85 498.39 1086.13 603.04 1205.12 591.05
00022736 00000025 932.74 155.95 415.37 586.47 1042.11 409.60 1195.99 396.47 1125.94 499.07 1086.54 604.87 1203.29 594.31
00022737 00000026 932.72 158.34 417.57 584.07 1042.56 409.30 1196.93 395.50 1126.87 496.66 1086.96 603.55 1204.79 592.38
00022738 00000027 934.87 157.01 417.81 582.48 1040.97 408.69 1198.56 393.70 1127.33 495.17 1086.60 600.69 1210.43 588.19
00022739 00000028 937.63 153.12 414.78 586.42 1043.75 407.09 1200.84 392.58 1129.81 493.29 1086.56 599.25 1211.34 587.24
00022740 00000029 936.76 155.57 416.14 587.32 1043.91 406.95 1201.36 392.12 1127.96 492.09 1084.91 600.37 1207.98 588.24
00022741 00000030 937.82 155.20 416.70 590.34 1043.15 408.49 1198.45 394.17 1123.09 491.35 1081.92 601.44 1203.45 589.57
00022742 00000031 940.01 154.19 411.15 598.96 1037.51 408.72 1196.65 391.13 1116.13 493.23 1077.60 605.90 1207.49 591.59
00022743 00000032 940.24 156.07 410.10 608.97 1035.96 409.50 1195.03 391.27 1112.27 492.57 1073.75 610.38 1208.26 595.42
00022744 00000033 937.48 155.62 412.63 617.33 1035.02 408.48 1195.28 389.88 1112.65 492.82 1074.07 613.21 1210.97 597.71
00022745 00000034 934.17 154.62 412.99 624.29 1033.80 405.56 1195.27 387.53 1113.70 492.26 1074.07 615.21 1213.46 599.95
00022746 00000035 928.97 155.21 416.80 622.87 1030.26 403.89 1191.97 385.43 1112.93 490.74 1072.93 613.17 1212.73 597.34
00022747 00000036 926.36 158.51 418.78 606.59 1025.28 402.90 1186.01 384.16 1107.81 488.64 1068.98 605.83 1207.94 589.96
00022748 00000037 924.78 155.98 417.52 598.93 1022.52 403.11 1181.44 384.31 1103.87 487.74 1066.22 600.87 1201.04 584.97
00022749 00000038 922.08 155.08 416.04 597.13 1018.16 401.10 1179.08 383.66 1100.03 490.37 1062.06 602.11 1196.16 587.56
00022750 00000039 920.05 154.36 417.87 597.88 1017.68 405.30 1177.80 388.83 1099.48 493.84 1062.90 606.92 1190.59 593.31
00022751 00000040 919.35 163.39 417.87 591.94 1021.26 409.07 1175.55 396.04 1099.43 499.92 1064.07 611.70 1180.15 601.49
00022752 00000041 920.44 165.97 417.42 591.80 1022.10 412.52 1177.15 399.14 1100.08 502.49 1064.84 614.55 1183.34 603.87
00022753 00000042 922.80 177.25 415.21 580.66 1022.40 415.03 1176.88 401.03 1099.22 503.53 1064.80 616.25 1183.35 605.09
00022754 00000043 923.22 173.50 413.55 584.13 1022.53 416.58 1175.40 404.82 1097.59 506.60 1063.42 615.76 1181.49 606.41
00022755 00000044 922.98 173.92 413.58 583.55 1021.69 417.62 1174.47 405.94 1095.94 509.55 1062.20 615.81 1181.41 606.43
00022756 00000045 920.72 174.95 415.46 582.86 1020.69 418.35 1174.52 406.52 1096.03 511.56 1061.88 616.87 1181.06 607.28
00022757 00000046 920.54 173.44 414.77 584.93 1020.21 418.49 1173.90 407.24 1094.91 513.20 1061.23 617.32 1180.63 608.17
00022758 00000047 921.16 173.41 412.50 585.55 1018.17 419.71 1171.65 409.70 1091.29 516.80 1059.28 618.94 1179.35 610.74
00022759 00000048 919.69 178.77 411.07 582.79 1017.68 421.31 1169.48 414.25 1088.58 519.90 1056.63 620.31 1174.57 614.75
00022760 00000049 919.27 182.79 408.67 582.32 1013.46 426.95 1165.80 419.13 1083.91 522.11 1053.49 623.43 1173.70 617.12
00022761 00000050 917.84 188.12 411.58 587.25 1007.10 431.78 1166.17 421.33 1083.80 531.41 1052.38 633.94 1172.70 624.66
00022762 00000051 914.68 183.42 413.64 597.61 1003.12 435.13 1162.72 428.55 1078.85 536.64 1047.16 637.70 1167.51 631.62
00022763 00000052 909.99 183.66 416.86 600.83 999.65 437.37 1158.15 432.56 1074.06 538.72 1042.39 639.59 1163.06 635.13
00022764 00000053 908.10 187.83 415.97 596.65 995.27 437.66 1154.16 431.24 1068.84 537.77 1037.36 639.37 1159.85 633.94
00022765 00000054 906.26 189.20 414.24 595.09 992.08 434.70 1150.86 427.67 1063.91 534.61 1034.44 638.25 1154.65 632.46
00022766 00000055 906.23 188.07 413.62 596.35 990.62 433.33 1149.39 425.67 1060.89 532.75 1032.43 637.54 1153.46 631.23
00022767 00000056 907.10 188.79 412.90 595.45 990.99 433.55 1149.69 426.30 1061.34 533.39 1032.45 637.75 1153.55 631.83
00022768 00000057 908.09 191.76 413.07 593.39 993.27 434.88 1151.69 429.15 1064.31 535.50 1034.63 638.29 1155.40 633.49
00022769 00000058 907.93 191.20 416.31 595.13 995.65 436.49 1153.92 430.01 1068.48 536.28 1039.15 639.60 1160.37 633.85
00022770 00000059 909.03 188.57 417.86 596.19 997.58 436.25 1155.95 431.46 1070.85 538.88 1040.95 639.21 1162.37 634.75
00022771 00000060 910.42 188.55 417.13 595.52 999.32 436.82 1157.09 431.00 1072.86 538.97 1041.72 638.68 1165.63 633.21
00022772 00000061 912.58 187.47 416.19 596.30 1001.38 436.67 1159.55 430.67 1075.09 537.96 1042.99 637.22 1168.03 631.48
00022773 00000062 915.93 187.30 415.08 595.12 1004.13 436.53 1162.17 429.20 1077.14 537.55 1046.12 635.54 1172.06 628.63
00022774 00000063 918.57 183.48 414.14 599.96 1006.97 436.14 1164.46 428.06 1079.04 536.71 1048.97 633.76 1176.22 625.98
00022775 00000064 921.07 184.98 412.05 598.25 1009.23 433.65 1167.06 424.67 1082.29 534.08 1050.64 633.40 1177.12 625.02
00022776 00000065 921.24 182.15 411.43 599.10 1010.43 428.25 1167.91 419.16 1082.56 527.89 1052.11 629.55 1175.71 621.04
00022777 00000066 919.14 181.36 412.42 594.09 1006.71 424.11 1165.47 412.43 1077.60 521.10 1050.50 624.47 1174.77 613.89
00022778 00000067 914.45 179.46 413.58 590.38 1006.40 416.07 1158.80 408.63 1070.95 517.68 1043.32 618.58 1169.98 611.61
00022779 00000068 913.88 170.67 412.37 592.23 1001.33 408.40 1156.57 397.81 1067.67 508.26 1038.46 614.56 1167.78 604.97
00022780 00000069 911.95 166.36 412.67 591.29 998.41 402.88 1153.61 391.83 1065.17 499.68 1035.25 609.78 1164.57 600.06
00022781 00000070 907.75 162.47 414.77 594.96 995.33 402.96 1152.46 390.85 1064.49 497.76 1033.15 610.47 1161.46 600.15
00022782 00000071 906.81 161.29 413.58 594.38 994.53 403.41 1151.68 391.74 1063.76 497.39 1032.22 610.07 1158.00 600.37
00022783 00000072 904.70 165.00 415.08 589.42 994.03 402.67 1151.07 391.49 1063.68 497.46 1031.49 609.18 1154.44 600.19
00022784 00000073 905.11 165.81 412.76 585.74 994.18 402.11 1149.83 393.01 1061.53 496.99 1029.24 607.74 1148.40 600.82
00022785 00000074 905.91 168.34 409.54 580.39 994.15 401.62 1148.93 393.88 1059.51 494.94 1026.97 606.55 1142.71 601.18
00022786 00000075 907.96 166.78 407.88 582.68 994.26 400.74 1148.66 394.41 1057.20 495.50 1023.91 606.26 1140.14 602.10
00022787 00000076 910.76 162.95 407.12 585.71 995.21 400.40 1149.31 394.33 1057.53 496.05 1024.89 605.50 1142.69 601.30
00022788 00000077 911.62 163.76 406.85 584.59 997.10 401.35 1150.87 395.36 1060.25 496.82 1027.21 605.73 1145.76 601.49
00022789 00000078 912.56 166.46 409.53 587.30 1000.87 402.66 1152.53 396.35 1063.66 501.01 1033.79 610.12 1148.04 605.63
00022790 00000079 915.46 169.00 407.68 590.04 1004.87 408.15 1155.24 401.85 1066.49 508.00 1038.66 613.90 1153.97 608.90
00022791 00000080 917.49 175.58 408.07 587.78 1008.91 413.10 1158.15 409.20 1069.71 514.56 1042.54 615.43 1159.59 612.01
00022792 00000081 918.89 179.56 408.92 587.15 1011.60 416.87 1159.65 413.47 1071.02 518.17 1044.01 616.98 1163.74 613.78
00022793 00000082 923.54 182.46 407.07 587.88 1007.10 421.36 1164.92 415.24 1073.18 520.84 1045.52 619.65 1166.19 614.19
00022794 00000083 924.32 179.48 409.25 593.94 1007.97 423.48 1165.81 418.26 1072.61 522.77 1044.89 621.33 1166.11 616.43
00022795 00000084 925.09 175.50 409.69 599.62 1014.64 423.05 1162.05 424.29 1068.74 523.73 1041.44 621.14 1159.96 622.11
00022796 00000085 926.45 176.90 408.30 601.32 1008.64 421.67 1164.31 420.70 1069.62 522.76 1042.63 621.48 1159.94 620.21
00022797 00000086 927.38 177.99 405.70 601.80 1007.48 419.49 1162.48 417.93 1066.13 519.27 1040.89 619.47 1160.47 617.53
00022798 00000087 925.61 178.28 408.01 591.99 1005.68 417.09 1163.69 414.13 1065.95 515.94 1038.23 614.68 1160.14 611.92
00022799 00000088 921.48 173.27 412.15 590.81 1010.09 408.52 1162.47 410.62 1063.54 512.06 1030.66 610.57 1156.77 611.55
00022800 00000089 921.55 169.80 409.32 587.59 1010.21 403.36 1162.63 405.41 1066.21 504.49 1030.29 603.34 1156.98 604.45
00022801 00000090 919.79 172.24 411.14 582.85 1007.75 399.54 1163.42 399.44 1066.92 498.32 1029.23 600.77 1158.57 600.46
00022802 00000091 919.51 165.72 408.47 589.82 1007.16 398.64 1162.04 397.71 1066.28 497.00 1030.62 602.89 1156.29 602.12
00022803 00000092 919.15 164.13 408.12 593.31 1006.03 399.92 1160.17 397.88 1064.77 497.71 1029.84 603.79 1156.89 601.82
00022804 00000093 918.00 164.01 407.07 593.77 1002.90 402.45 1157.59 399.73 1061.29 501.47 1026.92 606.39 1153.92 603.87
00022805 00000094 916.89 173.34 408.55 583.76 1002.04 402.29 1158.77 400.00 1061.35 501.15 1026.11 605.43 1154.34 603.48
00022806 00000095 916.27 168.64 407.61 589.42 1001.60 403.18 1156.85 400.68 1060.85 503.22 1026.62 607.34 1152.12 605.30
00022807 00000096 914.40 169.89 407.25 591.31 1000.37 403.93 1154.59 402.04 1056.99 505.89 1025.40 611.27 1145.35 610.10
00022808 00000097 914.19 170.28 406.13 593.33 1000.47 405.43 1153.49 403.73 1057.43 507.91 1026.59 614.34 1143.29 613.53
00022809 00000098 915.15 175.95 405.88 588.28 1002.98 406.73 1154.12 406.20 1058.65 508.97 1028.78 614.19 1144.24 614.33
00022810 00000099 919.00 174.98 403.86 591.92 1006.70 410.09 1155.22 410.20 1060.86 513.52 1032.91 616.02 1147.42 616.56
00022811 00000100 919.10 170.87 405.11 599.16 1009.98 414.12 1156.19 415.09 1063.96 517.16 1037.03 618.31 1151.06 619.42
00022812 00000101 920.63 174.02 402.87 598.74 1010.76 417.46 1157.72 418.75 1065.32 518.68 1037.62 620.80 1152.35 622.49
00022813 00000102 920.49 169.80 404.53 606.16 1012.79 419.98 1157.83 421.71 1066.45 520.46 1039.94 623.02 1152.80 624.97
00022814 00000103 922.10 174.16 407.69 606.87 1005.39 420.97 1161.93 422.10 1068.49 523.82 1041.36 624.18 1154.90 624.75
00022815 00000104 923.36 175.75 408.92 605.93 1005.75 421.41 1162.71 422.10 1067.80 524.08 1041.38 624.35 1156.51 624.42
00022816 00000105 923.82 177.05 406.80 600.47 1006.62 419.69 1163.20 420.53 1068.43 522.04 1040.50 620.69 1155.33 621.06
00022817 00000106 921.99 174.09 409.16 593.93 1010.75 419.20 1161.60 422.32 1064.84 522.00 1034.37 618.21 1155.68 620.63
00022818 00000107 922.74 171.19 406.39 594.45 1009.44 418.16 1159.64 423.08 1062.71 523.49 1032.88 618.10 1153.34 622.10
00022819 00000108 923.15 169.00 405.83 595.96 1009.43 417.90 1159.18 423.28 1061.69 523.58 1032.35 618.61 1151.55 623.10
CROP_BBOX: 617 0 1687 1004
