Video ID: 	54wPeVqExgQ
H: 	1080
W: 	1920
FPS: 	29.97002997002997

FRAME INDEX X0 Y0 W H [Landmarks (5 Points)]

00001950 00000000 898.75 269.04 426.30 612.76 986.51 520.95 1186.40 546.68 1058.30 679.95 992.38 732.03 1160.13 752.93
00001951 DELETE   900.15 274.98 425.31 610.17 982.50 520.51 1180.81 548.91 1050.59 681.28 988.48 734.00 1155.68 757.11
00001952 DELETE   903.42 276.94 415.96 619.90 973.12 523.94 1169.04 555.63 1037.24 690.83 983.03 742.02 1148.26 767.44
00001953 00000003 893.44 283.61 412.12 625.37 957.02 531.97 1153.94 565.19 1014.35 703.19 959.79 741.83 1133.59 769.28
00001954 DELETE   881.48 293.37 417.59 621.94 940.75 543.99 1140.56 572.53 995.77 715.65 948.05 758.87 1117.74 782.36
00001955 DELETE   868.97 302.12 415.87 616.33 924.70 547.31 1120.17 580.91 979.37 723.44 942.97 768.59 1097.20 795.97
00001956 00000006 858.94 315.53 416.22 614.52 910.61 556.43 1105.92 590.48 965.57 739.05 930.85 779.09 1087.03 807.18
00001957 00000007 855.21 324.38 419.37 622.10 904.28 568.17 1099.96 598.11 960.37 752.90 930.13 792.18 1092.27 816.65
00001958 00000008 850.55 330.13 418.71 623.82 907.06 576.54 1095.16 600.74 960.24 750.06 935.31 808.79 1093.12 827.05
00001959 00000009 850.04 324.85 417.73 629.20 909.47 581.83 1100.69 600.87 971.31 752.34 940.28 814.02 1099.51 828.16
00001960 00000010 850.11 320.38 421.61 629.05 914.55 579.05 1112.58 594.80 981.89 751.96 948.52 811.86 1111.36 823.12
00001961 00000011 853.77 312.77 419.00 630.24 919.47 573.98 1117.96 586.40 990.71 745.31 955.16 803.41 1122.22 811.93
00001962 DELETE   853.42 299.26 422.12 631.10 923.97 567.15 1121.21 579.00 996.24 736.52 959.84 792.73 1126.43 800.67
00001963 00000013 852.62 293.07 423.64 635.37 925.00 559.43 1118.92 569.53 996.75 723.32 957.85 786.77 1121.59 793.49
00001964 00000014 853.37 289.38 420.47 632.56 924.90 547.63 1116.68 560.29 992.18 708.89 949.93 774.43 1115.44 783.13
00001965 00000015 852.79 280.61 419.98 639.06 923.40 538.94 1111.31 551.20 985.41 693.73 943.34 765.68 1108.15 773.84
00001966 DELETE   848.76 271.71 424.60 636.25 918.38 531.13 1107.66 549.15 974.17 687.43 933.67 754.50 1102.40 766.89
00001967 00000017 848.56 267.63 420.38 635.47 913.06 525.92 1101.63 544.78 965.76 681.32 926.99 749.86 1092.04 763.07
00001968 00000018 846.73 253.92 416.50 651.74 902.60 513.11 1097.14 535.36 957.24 675.89 920.54 748.83 1083.61 765.74
00001969 00000019 842.51 247.59 414.92 664.21 899.22 510.83 1089.54 531.86 947.50 668.78 916.98 745.34 1079.79 761.33
00001970 00000020 837.34 244.19 414.64 671.27 896.28 508.17 1083.88 529.62 941.78 664.58 912.72 744.36 1072.56 761.23
00001971 00000021 833.24 237.92 417.87 679.05 895.72 509.67 1084.60 532.24 942.96 665.63 910.23 745.85 1069.35 763.66
00001972 00000022 834.15 240.70 418.44 681.30 896.23 514.72 1089.44 534.95 950.59 671.84 911.16 752.61 1074.21 768.27
00001973 DELETE   834.67 248.56 419.60 673.37 899.04 519.84 1097.49 537.25 961.91 677.02 914.44 757.75 1079.96 770.96
00001974 DELETE   835.55 254.40 421.54 660.56 900.64 525.79 1104.87 541.67 971.52 682.94 917.84 758.66 1087.08 771.14
00001975 00000025 836.78 257.06 426.67 657.76 906.17 528.48 1111.79 542.03 978.95 685.17 923.87 760.50 1093.86 770.97
00001976 00000026 837.72 251.69 428.14 662.19 909.79 527.47 1116.60 540.44 982.96 683.45 926.02 759.14 1098.28 768.97
00001977 00000027 839.05 248.52 428.67 667.77 912.56 526.05 1118.95 539.02 984.57 679.64 928.49 760.00 1098.27 769.81
00001978 00000028 840.45 247.83 429.63 674.48 913.53 527.32 1118.36 539.11 984.57 680.90 930.38 760.90 1102.35 769.41
00001979 00000029 839.61 252.04 429.90 672.84 912.36 529.66 1116.05 539.11 984.48 683.46 932.17 762.50 1104.21 769.12
00001980 00000030 836.36 253.78 427.45 670.83 914.67 532.09 1113.72 541.00 984.41 681.99 934.13 761.59 1103.40 767.48
00001981 00000031 836.60 258.65 428.54 672.15 905.01 531.52 1107.57 537.65 979.58 683.10 930.13 764.34 1103.51 768.32
00001982 00000032 837.38 262.10 419.53 662.86 898.56 536.80 1096.49 542.01 970.88 684.53 925.71 762.12 1099.05 765.47
00001983 00000033 834.12 267.46 418.63 648.78 892.69 542.31 1087.36 545.48 960.66 686.62 923.24 762.21 1090.90 764.32
00001984 DELETE   833.74 264.77 414.22 647.30 889.72 546.84 1075.60 546.86 952.89 685.90 923.60 765.85 1078.99 765.38
00001985 00000035 826.68 268.82 418.19 646.89 884.54 552.51 1066.36 552.61 945.46 691.35 923.98 769.19 1072.64 768.73
00001986 DELETE   820.00 269.67 420.54 641.70 877.75 557.91 1056.18 554.76 936.38 694.21 924.42 769.82 1069.14 766.38
00001987 DELETE   809.00 274.11 435.43 631.94 868.73 560.36 1052.24 551.17 931.79 695.81 922.96 770.42 1067.89 761.53
00001988 DELETE   795.64 268.46 443.63 641.09 860.07 563.22 1045.59 548.06 927.84 698.59 919.40 776.10 1067.54 761.41
00001989 00000039 788.87 268.52 439.58 651.17 857.42 569.76 1030.53 551.98 918.77 701.07 921.33 782.08 1056.83 767.39
00001990 00000040 777.43 272.88 454.30 648.11 846.10 575.77 1032.59 546.51 916.60 703.64 916.03 792.84 1059.74 766.50
00001991 00000041 761.03 280.81 456.74 653.53 838.47 576.94 1006.58 557.57 904.41 705.97 917.81 793.36 1054.71 774.48
00001992 00000042 752.08 295.42 461.96 641.04 835.67 587.93 1001.77 564.57 903.69 717.97 920.58 801.91 1054.93 780.21
00001993 00000043 743.81 302.27 463.20 642.21 830.75 599.05 997.80 566.77 905.44 728.92 921.00 809.67 1060.83 780.76
00001994 00000044 734.06 305.81 461.15 650.20 824.70 606.44 992.30 567.72 904.86 738.94 924.12 818.46 1067.09 784.74
00001995 00000045 724.61 320.20 469.17 645.64 820.51 617.27 989.12 571.81 906.49 751.88 927.18 825.92 1071.48 786.84
00001996 00000046 722.69 324.95 468.98 645.32 818.30 628.24 984.91 581.08 904.90 760.68 927.92 833.29 1068.56 792.82
00001997 00000047 717.58 335.06 469.93 641.84 814.81 633.16 981.23 590.42 899.20 767.73 926.73 840.72 1060.57 803.98
00001998 00000048 711.58 336.55 475.08 633.86 813.65 632.07 979.85 592.31 899.67 766.19 925.26 841.31 1049.83 806.43
00001999 00000049 711.26 336.25 474.73 634.10 810.18 631.98 973.92 593.95 892.19 767.87 922.90 844.56 1042.93 811.10
00002000 00000050 714.37 337.48 466.48 635.96 807.42 637.18 972.38 598.10 884.12 776.31 922.13 854.08 1039.72 821.24
00002001 00000051 710.64 335.24 470.75 638.59 804.22 635.75 969.35 596.89 880.76 776.51 918.21 853.53 1036.78 820.78
00002002 00000052 710.38 336.08 469.93 635.21 800.19 637.73 966.09 599.65 873.16 772.18 908.48 851.71 1030.13 819.41
00002003 00000053 704.48 334.61 472.07 640.51 792.66 630.30 965.28 591.41 868.09 767.48 895.33 847.80 1025.93 814.99
00002004 00000054 700.74 331.99 471.40 641.73 787.92 616.33 955.04 589.39 854.97 760.78 883.63 836.38 1013.26 812.91
00002005 00000055 694.99 321.89 476.70 654.09 780.08 605.31 943.04 584.03 840.51 760.18 874.57 829.00 1006.19 809.16
00002006 00000056 696.73 322.03 474.55 655.66 776.28 599.32 936.25 573.45 833.52 752.47 876.12 824.69 1010.28 800.58
00002007 00000057 697.74 320.87 472.40 652.26 775.89 596.40 934.11 571.54 830.55 748.94 875.77 820.53 1009.64 797.13
00002008 00000058 696.93 320.12 472.50 644.14 773.31 601.46 932.40 570.45 828.88 747.24 872.26 818.59 1011.69 789.53
00002009 00000059 703.85 312.67 465.77 656.91 780.73 592.36 937.88 572.73 829.58 742.09 873.31 813.36 1009.94 794.28
00002010 00000060 708.23 309.51 459.95 645.32 781.11 591.44 940.25 576.56 829.73 740.89 865.81 807.97 1000.73 793.21
00002011 00000061 707.65 308.14 458.57 634.56 775.93 599.06 943.91 579.14 832.81 742.62 854.94 803.11 1000.10 784.19
00002012 00000062 711.96 306.77 454.49 624.59 777.05 596.14 946.21 581.39 833.52 743.58 851.15 798.00 995.92 783.54
00002013 DELETE   719.00 307.46 452.04 619.76 781.20 593.45 952.90 582.57 836.88 739.28 848.73 794.82 990.42 784.21
00002014 00000064 727.64 306.73 444.97 619.16 785.87 589.62 960.75 583.11 843.81 738.85 851.74 791.13 993.15 784.25
00002015 DELETE   739.62 302.81 435.36 618.01 792.79 579.58 970.92 583.58 846.09 736.34 851.07 785.56 996.33 787.57
00002016 DELETE   744.25 295.90 431.24 618.51 798.33 575.83 978.93 581.98 852.66 731.35 849.99 780.75 1000.00 784.84
00002017 DELETE   752.95 290.75 428.56 625.21 805.97 572.65 984.12 580.63 858.16 725.63 855.86 779.52 1002.35 785.32
00002018 00000068 766.10 298.29 420.87 623.03 815.59 574.44 1000.44 583.48 868.65 722.82 865.47 790.03 1020.81 794.72
00002019 DELETE   768.19 304.37 421.05 615.87 820.31 574.68 1007.45 584.37 877.11 726.06 870.79 787.94 1028.78 793.19
00002020 DELETE   770.89 306.84 422.09 612.71 826.70 574.09 1015.55 584.46 885.89 727.75 876.03 786.00 1034.60 791.81
00002021 00000071 773.56 306.83 421.77 611.67 831.79 574.01 1021.61 583.61 895.32 729.30 882.99 787.44 1040.78 792.53
00002022 00000072 774.12 305.40 420.39 612.53 833.24 574.07 1025.20 583.47 898.36 729.74 883.64 786.74 1044.20 791.89
00002023 00000073 776.70 310.61 416.00 609.17 834.31 574.41 1028.08 583.67 899.97 729.86 882.55 788.16 1045.00 793.28
00002024 00000074 776.44 305.09 416.10 617.54 836.67 574.98 1029.06 582.24 903.22 728.70 884.88 790.73 1044.69 794.23
00002025 00000075 775.99 298.24 414.56 627.46 837.75 575.45 1029.61 581.58 904.97 728.40 884.36 793.12 1043.05 795.85
00002026 00000076 776.32 297.07 413.47 632.21 837.92 576.43 1027.06 581.39 903.64 729.13 884.72 795.92 1040.31 797.71
00002027 00000077 775.93 297.92 412.53 632.40 836.32 575.39 1024.43 582.55 899.78 729.79 880.46 796.70 1034.50 800.55
00002028 00000078 773.56 300.64 413.26 630.69 833.34 573.12 1023.46 582.62 896.30 731.48 876.35 796.76 1032.77 802.63
00002029 00000079 771.27 295.98 411.47 634.42 830.42 571.47 1018.89 583.80 890.08 728.29 868.41 793.37 1024.99 801.53
00002030 00000080 769.40 290.76 411.33 636.24 829.23 569.12 1014.85 581.86 887.50 722.58 864.37 792.47 1014.32 801.41
00002031 00000081 766.48 284.02 411.51 638.76 824.69 563.39 1013.03 576.18 884.62 715.27 858.94 787.16 1010.19 796.15
00002032 00000082 764.34 279.81 414.07 635.58 822.67 558.43 1008.89 570.03 881.67 707.93 858.42 781.01 1008.92 788.43
00002033 00000083 764.34 279.01 418.42 635.51 823.61 562.53 1010.96 567.94 882.16 702.69 862.56 776.73 1012.96 779.75
00002034 00000084 763.36 276.01 419.68 635.91 824.58 557.95 1010.69 561.71 884.09 698.29 865.35 771.51 1017.83 773.39
00002035 00000085 763.80 274.13 421.90 629.89 824.96 551.58 1012.76 557.13 885.27 695.41 865.77 766.45 1019.58 769.74
00002036 00000086 765.82 269.28 420.95 628.94 826.35 545.99 1016.39 551.93 889.28 693.05 865.86 760.95 1023.25 764.68
00002037 00000087 770.58 259.43 421.90 637.00 830.57 542.75 1024.28 548.60 896.93 689.04 867.13 759.79 1028.23 763.29
00002038 00000088 773.04 259.24 426.01 636.47 837.81 541.54 1029.19 547.66 903.44 687.81 875.08 758.96 1033.57 762.28
00002039 00000089 782.82 257.11 427.49 635.80 843.63 541.86 1042.43 545.70 919.94 696.09 884.07 754.13 1046.55 757.67
00002040 00000090 787.55 249.28 426.57 641.83 847.19 537.05 1051.59 538.38 928.68 691.16 886.80 752.02 1056.29 753.52
00002041 DELETE   788.61 239.53 420.60 657.71 851.28 528.35 1045.29 528.42 920.71 680.06 892.81 752.62 1058.71 750.87
00002042 00000092 801.53 232.47 417.81 662.81 857.63 523.49 1058.85 525.80 931.40 677.05 895.76 743.82 1070.77 745.27
00002043 00000093 800.98 233.05 422.11 657.38 855.99 516.91 1059.94 523.70 928.43 674.09 891.66 737.13 1066.03 742.38
00002044 00000094 802.38 230.53 421.59 652.39 855.03 512.10 1059.16 522.03 926.33 671.73 889.34 735.45 1058.14 743.40
00002045 00000095 805.84 227.06 418.54 655.66 857.33 508.54 1058.02 519.22 924.57 666.65 889.26 734.52 1053.67 743.25
00002046 00000096 807.28 225.67 417.35 655.31 858.82 506.11 1058.26 515.87 925.68 663.60 890.47 731.59 1053.36 739.56
00002047 00000097 811.13 224.45 416.44 661.37 863.13 505.19 1062.02 514.73 929.47 663.29 894.64 734.57 1055.74 742.32
00002048 00000098 814.76 225.32 415.38 662.32 866.41 505.34 1063.23 515.78 931.66 663.66 896.92 735.67 1055.36 744.08
00002049 00000099 818.71 226.76 415.22 660.62 870.03 505.42 1066.57 516.33 934.43 664.08 899.66 735.87 1058.77 744.51
00002050 00000100 822.41 230.02 415.95 655.55 874.48 507.47 1069.15 518.64 938.59 664.96 903.79 737.93 1061.08 746.68
00002051 00000101 827.11 231.07 416.09 652.60 879.51 509.68 1072.55 520.43 941.29 662.78 908.58 738.76 1064.58 747.10
00002052 00000102 832.62 233.00 414.35 647.78 885.30 507.83 1075.48 519.91 943.04 661.28 913.77 738.38 1067.36 747.94
00002053 00000103 836.85 230.84 412.97 649.10 890.08 503.31 1081.57 516.01 946.83 659.24 917.27 736.71 1072.33 746.59
00002054 00000104 840.48 230.06 413.20 652.03 894.67 501.77 1086.75 515.10 949.69 659.29 922.01 735.19 1081.70 744.97
00002055 00000105 843.44 228.44 412.36 655.50 901.61 502.17 1093.28 516.49 957.67 659.26 926.71 733.78 1088.11 744.27
00002056 00000106 842.66 227.10 416.65 659.81 903.49 502.21 1098.58 514.72 963.73 661.60 930.38 734.62 1095.26 743.64
00002057 00000107 842.07 227.06 418.24 662.03 907.24 502.27 1103.47 513.74 970.52 659.97 932.59 735.23 1098.31 743.48
00002058 00000108 843.84 223.78 416.76 669.11 909.08 504.21 1107.30 515.71 973.92 661.00 931.89 736.87 1100.17 744.91
00002059 00000109 843.58 223.08 415.26 670.92 910.48 507.46 1110.08 520.69 976.40 665.08 933.09 741.19 1099.58 750.76
00002060 00000110 841.68 229.97 417.91 668.34 909.63 513.44 1108.45 526.66 975.99 671.16 932.93 746.23 1098.33 755.78
00002061 00000111 838.16 239.26 420.06 668.10 905.66 521.37 1106.45 531.80 976.16 678.43 929.07 752.80 1098.43 760.21
00002062 00000112 835.54 244.30 419.95 668.63 902.73 528.48 1104.35 538.94 975.11 685.01 925.70 758.17 1094.52 766.04
00002063 00000113 834.63 250.49 418.57 672.64 900.89 533.60 1100.47 542.87 972.40 688.97 924.69 764.31 1091.89 771.23
00002064 00000114 832.79 258.24 417.20 671.81 900.30 540.38 1097.17 550.36 969.57 694.66 924.21 770.08 1087.56 777.61
00002065 00000115 831.71 262.36 415.77 667.57 898.46 542.72 1093.48 554.00 965.25 698.19 923.05 772.61 1082.61 781.27
00002066 00000116 831.08 265.04 412.31 661.80 900.55 541.32 1092.64 554.73 964.46 696.77 921.68 770.27 1082.16 779.80
00002067 00000117 830.53 268.29 412.38 659.34 899.58 543.66 1092.40 557.20 963.68 697.90 920.49 771.90 1081.16 781.61
00002068 00000118 830.00 266.55 411.71 660.89 899.67 543.95 1092.07 558.62 963.00 697.50 919.59 771.66 1078.97 782.28
00002069 00000119 829.29 262.33 413.96 669.08 895.13 543.83 1089.54 555.71 961.35 698.88 918.49 776.68 1072.31 786.26
00002070 00000120 830.39 260.20 412.64 660.38 892.09 539.11 1087.17 550.99 957.93 696.68 917.37 772.24 1070.87 781.67
00002071 00000121 831.64 251.89 410.07 664.23 890.67 536.76 1084.23 547.85 954.61 693.67 916.47 769.46 1070.48 778.05
00002072 00000122 831.63 247.62 410.34 664.25 890.69 533.05 1082.90 544.80 952.70 687.67 914.71 764.42 1068.92 773.59
00002073 00000123 830.09 248.54 410.40 661.50 889.38 532.69 1081.62 544.38 951.80 687.04 913.93 763.72 1067.02 772.99
00002074 00000124 828.27 249.95 410.48 668.97 887.82 534.56 1077.21 545.98 949.07 689.10 912.34 767.87 1064.34 776.85
00002075 00000125 825.06 258.39 413.62 671.54 883.14 539.06 1071.86 551.57 943.63 697.98 908.91 775.99 1058.71 786.17
00002076 00000126 818.43 265.44 418.24 662.25 874.28 545.63 1071.59 555.45 935.56 707.46 903.04 779.37 1063.77 787.76
00002077 00000127 816.42 279.02 418.37 652.92 871.64 552.23 1071.63 564.11 933.63 716.01 899.67 784.30 1060.58 794.46
00002078 00000128 816.64 288.56 418.23 646.07 870.10 559.91 1070.87 573.18 932.74 725.84 895.90 788.81 1059.58 800.16
00002079 00000129 815.89 293.17 421.81 648.27 868.75 564.54 1071.65 577.49 932.28 731.91 897.72 793.32 1066.13 804.31
00002080 00000130 820.12 297.76 420.24 644.01 875.79 565.28 1074.43 576.96 937.40 729.52 908.41 796.83 1073.90 805.35
00002081 00000131 821.99 298.11 420.68 645.49 876.92 564.72 1074.84 577.44 937.73 730.01 909.81 795.33 1074.95 804.61
00002082 00000132 823.16 295.89 421.81 645.13 877.92 562.11 1077.46 575.40 939.43 727.37 908.75 791.55 1074.84 801.26
00002083 00000133 825.36 293.35 421.39 644.66 879.69 558.13 1078.80 572.01 939.28 723.96 910.06 788.09 1075.53 798.06
00002084 00000134 826.81 287.64 420.90 645.61 881.59 553.49 1079.93 567.53 940.64 716.52 911.04 784.98 1075.12 794.77
00002085 00000135 827.73 282.38 420.02 653.86 880.19 550.73 1078.47 564.52 938.80 719.78 909.09 783.45 1075.43 795.31
00002086 00000136 829.18 280.65 422.01 656.91 884.20 549.00 1081.49 563.04 942.92 717.58 913.54 781.76 1079.68 793.65
00002087 00000137 832.85 283.11 418.72 655.62 892.96 548.67 1085.18 562.46 948.41 709.15 919.30 781.74 1082.71 791.02
00002088 00000138 833.82 281.75 418.88 657.13 895.46 548.78 1087.95 562.57 951.16 707.48 919.09 780.55 1083.97 789.80
00002089 00000139 835.59 283.29 418.39 654.75 898.58 549.77 1088.83 564.86 952.78 706.04 919.46 778.80 1083.91 789.01
00002090 00000140 836.70 284.17 417.90 653.08 899.89 550.88 1090.67 565.73 954.77 705.99 919.77 779.16 1083.91 789.29
00002091 00000141 839.02 285.19 416.03 652.54 900.64 552.10 1091.12 567.34 953.83 707.58 920.24 780.21 1084.41 790.60
00002092 00000142 840.26 288.80 416.40 648.04 900.71 553.71 1091.91 569.07 953.83 709.35 920.94 781.46 1086.15 791.91
00002093 00000143 841.49 291.55 415.15 645.92 901.23 556.02 1093.92 571.44 955.24 710.67 920.06 782.05 1087.45 792.67
00002094 00000144 842.91 294.21 414.04 644.50 900.84 557.72 1093.18 573.74 953.73 713.54 921.05 783.98 1087.38 795.12
00002095 00000145 844.40 296.21 413.00 643.88 902.73 561.29 1093.41 577.14 954.98 715.30 923.81 787.05 1088.64 798.18
00002096 00000146 845.03 296.59 412.97 645.69 901.87 563.34 1093.21 578.51 954.32 717.99 924.73 789.62 1090.28 800.18
00002097 00000147 844.23 298.83 414.46 647.10 901.44 565.29 1092.01 580.73 953.31 720.06 924.52 791.77 1089.82 802.67
00002098 00000148 844.19 298.28 413.61 648.59 901.48 565.62 1092.04 581.81 953.11 720.83 923.36 791.72 1088.68 803.23
00002099 00000149 844.36 299.63 413.45 647.74 901.85 565.47 1092.18 581.60 953.62 720.00 922.89 791.85 1087.91 803.42
00002100 00000150 845.69 300.98 412.76 646.62 902.96 564.12 1092.03 580.22 954.18 718.76 924.38 791.02 1089.10 802.48
00002101 00000151 847.60 301.08 411.08 645.61 903.87 562.99 1092.53 579.50 954.57 718.79 925.09 790.43 1089.23 802.15
00002102 00000152 848.96 302.24 409.93 644.48 903.99 562.99 1091.62 580.04 953.39 719.50 925.49 791.30 1088.29 803.37
00002103 00000153 848.83 302.35 409.05 640.79 903.93 563.39 1091.22 581.26 953.33 718.86 923.97 789.83 1086.45 802.53
00002104 00000154 847.25 300.63 410.07 637.18 902.47 562.91 1092.05 581.97 953.33 719.62 921.63 787.32 1085.72 801.19
00002105 00000155 844.78 297.14 410.75 636.71 900.64 562.22 1092.62 580.70 954.29 717.11 918.43 784.42 1084.82 798.00
00002106 00000156 841.43 294.47 411.14 637.25 897.23 562.62 1090.75 580.61 951.54 716.43 916.15 785.30 1081.46 798.56
00002107 00000157 839.49 291.90 411.92 641.83 894.79 561.58 1085.62 577.89 946.70 714.00 914.61 786.93 1077.27 798.78
00002108 00000158 836.85 291.64 411.97 646.46 893.77 561.98 1083.56 578.28 945.39 712.47 913.81 786.16 1075.79 798.04
00002109 00000159 835.69 291.77 411.83 647.57 892.47 562.78 1082.69 579.29 944.43 713.71 912.99 786.45 1077.25 798.32
00002110 00000160 835.21 292.90 412.92 647.92 892.27 563.64 1082.50 580.10 944.02 714.83 912.81 786.77 1077.80 798.62
00002111 00000161 835.80 293.05 411.68 647.32 892.58 564.44 1082.25 581.31 943.68 715.27 912.94 786.76 1078.37 798.83
00002112 00000162 835.43 294.27 412.74 645.11 892.05 566.09 1082.13 583.66 942.95 716.18 913.04 787.12 1078.81 799.66
00002113 00000163 834.96 298.82 413.59 642.00 892.20 567.59 1082.30 586.24 943.56 720.99 913.48 789.48 1079.09 803.14
00002114 00000164 835.13 306.81 413.95 635.94 891.84 567.85 1082.95 587.59 944.70 724.56 913.41 791.15 1079.22 805.91
00002115 00000165 834.83 309.84 415.08 633.38 892.19 568.57 1086.56 588.09 947.47 727.14 913.53 791.64 1082.01 806.32
00002116 00000166 837.57 305.71 412.85 639.77 897.74 567.60 1092.26 585.71 956.83 731.87 920.07 793.55 1089.07 807.02
00002117 00000167 840.83 305.74 413.31 634.97 906.13 568.37 1102.96 584.66 971.14 732.29 928.29 791.42 1098.25 803.59
