Video ID: 	ME2Fw_rpyCs
H: 	2160
W: 	3840
FPS: 	60.0

FRAME INDEX X0 Y0 W H [Landmarks (5 Points)]

00015462 00000000 1202.43 348.55 734.02 888.83 1429.72 613.86 1742.56 745.45 1521.32 781.34 1329.87 932.96 1560.39 1047.41
00015463 00000001 1201.57 349.78 734.93 888.03 1429.75 614.09 1742.52 745.32 1521.25 781.25 1330.11 933.13 1560.49 1047.32
00015464 00000002 1201.49 348.76 734.88 888.72 1429.43 614.30 1742.29 745.49 1521.10 781.05 1330.01 933.03 1560.38 1047.21
00015465 00000003 1204.44 358.79 733.08 878.27 1431.52 616.00 1743.55 744.30 1523.48 783.72 1332.97 936.38 1562.87 1047.84
00015466 00000004 1203.16 356.98 735.24 880.99 1431.91 614.58 1744.23 742.37 1522.08 786.10 1333.15 938.17 1562.47 1048.84
00015467 00000005 1205.86 354.92 732.66 884.09 1432.25 614.54 1744.70 743.90 1522.19 786.29 1331.97 938.30 1562.56 1050.23
00015468 DELETE   1203.34 356.05 734.31 883.88 1430.89 614.50 1744.52 745.29 1523.63 785.91 1330.20 936.98 1561.85 1050.45
00015469 00000007 1203.24 353.83 734.44 882.99 1431.44 615.04 1744.95 744.62 1523.40 786.22 1330.25 938.29 1562.41 1050.53
00015470 00000008 1206.59 343.19 734.73 897.74 1430.14 613.39 1744.52 743.63 1523.20 784.03 1332.20 935.90 1566.56 1048.99
00015471 00000009 1209.34 341.81 732.62 898.06 1432.78 613.85 1744.85 744.23 1524.18 786.27 1333.91 935.78 1566.15 1048.78
00015472 DELETE   1214.53 342.39 730.54 889.46 1434.60 616.16 1746.29 746.40 1523.21 787.17 1337.40 936.36 1565.83 1048.85
00015473 00000011 1214.09 345.43 730.41 888.65 1434.61 615.20 1746.70 745.87 1523.04 787.80 1336.73 937.42 1565.26 1050.16
00015474 00000012 1214.98 345.73 729.97 886.50 1435.82 616.89 1746.24 745.73 1522.98 788.34 1338.65 937.60 1565.62 1048.69
00015475 00000013 1213.96 362.07 730.49 872.55 1434.93 617.78 1745.93 745.30 1521.21 789.58 1338.67 936.50 1566.37 1046.77
00015476 00000014 1215.14 359.63 729.09 875.33 1435.44 617.94 1745.80 744.88 1521.59 790.25 1339.53 937.51 1567.83 1047.14
00015477 DELETE   1216.80 348.04 728.62 887.63 1436.24 618.78 1745.61 744.18 1521.23 796.91 1342.53 942.22 1569.11 1049.83
00015478 00000016 1214.01 340.41 731.76 895.72 1435.78 618.79 1745.63 744.79 1521.17 796.88 1341.40 942.83 1568.79 1050.93
00015479 00000017 1213.39 339.20 732.80 900.01 1434.68 618.97 1744.88 744.55 1521.49 797.09 1341.60 943.73 1569.15 1051.64
00015480 00000018 1216.73 328.50 729.45 911.21 1435.23 618.60 1743.34 745.63 1521.92 801.99 1342.13 944.04 1569.31 1053.03
00015481 00000019 1215.67 333.33 730.67 905.76 1436.59 618.20 1742.94 745.55 1519.99 802.59 1342.00 942.50 1568.27 1051.57
00015482 00000020 1215.51 337.94 731.43 898.34 1437.10 619.89 1743.34 746.32 1519.44 800.67 1341.48 942.99 1567.12 1051.27
00015483 00000021 1214.77 338.45 731.56 899.07 1436.05 619.55 1742.54 746.20 1519.52 800.29 1341.77 942.18 1566.89 1050.77
00015484 00000022 1215.67 339.57 731.12 899.18 1435.79 620.32 1742.22 746.40 1518.44 800.92 1342.13 942.39 1567.23 1050.52
00015485 00000023 1219.71 333.10 726.96 909.76 1436.56 619.71 1743.08 744.69 1519.77 803.10 1343.64 945.76 1569.33 1052.89
00015486 00000024 1220.60 332.05 726.86 908.43 1437.19 619.37 1743.99 744.35 1520.62 802.93 1342.93 946.35 1569.07 1053.35
00015487 00000025 1220.05 334.52 725.77 905.92 1437.04 619.15 1743.70 744.79 1520.71 802.57 1342.04 945.86 1568.82 1053.38
00015488 00000026 1219.94 334.77 725.75 905.34 1437.27 619.42 1743.67 744.81 1520.94 803.08 1342.46 945.86 1568.80 1053.15
00015489 00000027 1219.17 335.46 726.53 904.21 1437.21 619.22 1743.67 744.93 1520.90 802.89 1342.27 945.48 1568.67 1053.01
00015490 00000028 1220.07 340.86 725.43 899.90 1438.16 620.77 1743.19 744.23 1520.29 802.96 1345.00 948.58 1568.27 1054.03
00015491 00000029 1219.03 345.28 725.62 893.23 1437.64 620.91 1743.64 745.18 1520.09 802.54 1343.75 948.08 1568.00 1054.12
00015492 DELETE   1217.98 352.64 722.52 886.86 1437.90 622.11 1742.92 745.33 1521.58 806.35 1345.68 948.62 1568.01 1053.96
00015493 00000031 1219.90 345.43 722.72 895.00 1437.85 621.63 1742.87 745.75 1520.83 807.17 1344.89 949.54 1568.39 1055.50
00015494 00000032 1219.95 350.07 722.32 893.06 1438.36 621.79 1742.72 746.23 1520.42 806.60 1345.46 949.98 1568.09 1056.27
00015495 00000033 1219.87 350.95 721.11 889.79 1436.67 621.64 1742.08 744.22 1519.67 805.83 1345.05 947.48 1568.71 1052.42
00015496 00000034 1217.87 355.40 720.63 886.55 1434.76 621.66 1742.18 743.96 1521.66 805.02 1345.66 945.83 1568.80 1051.08
00015497 00000035 1213.77 350.83 724.55 891.72 1433.13 621.44 1742.41 743.84 1522.34 804.36 1344.19 946.94 1569.40 1052.35
00015498 00000036 1213.52 350.46 724.69 891.58 1432.98 621.22 1742.47 743.86 1522.20 803.91 1343.79 947.18 1569.20 1052.71
00015499 00000037 1213.56 348.96 724.81 892.47 1433.13 621.26 1742.45 743.77 1522.60 803.70 1344.06 947.15 1569.26 1052.56
00015500 00000038 1212.69 349.33 725.16 891.17 1433.15 621.11 1742.76 743.87 1522.70 804.28 1343.91 947.01 1569.33 1052.55
00015501 00000039 1210.28 353.61 726.76 887.50 1432.71 620.41 1742.98 742.47 1523.16 804.02 1342.76 946.63 1568.42 1051.68
00015502 00000040 1212.96 347.26 725.47 892.60 1434.51 620.06 1742.85 743.13 1522.51 804.31 1341.94 945.60 1569.01 1051.35
00015503 00000041 1212.59 347.59 725.77 893.16 1434.29 619.92 1742.98 741.96 1522.48 804.54 1342.29 946.64 1569.53 1051.54
00015504 00000042 1210.76 352.08 726.06 890.42 1432.82 620.26 1742.82 743.01 1522.64 803.54 1341.51 946.20 1569.99 1051.93
00015505 00000043 1208.20 347.91 730.95 898.51 1432.82 618.15 1742.47 742.44 1521.17 805.54 1338.41 947.52 1564.69 1054.39
00015506 00000044 1211.95 349.47 727.24 897.02 1433.08 618.14 1742.60 742.75 1519.29 804.91 1338.35 948.57 1563.95 1055.52
00015507 00000045 1212.48 353.23 724.23 902.34 1432.89 619.43 1741.92 739.15 1524.52 807.64 1345.43 953.68 1566.66 1056.95
00015508 00000046 1213.46 353.70 723.01 900.05 1433.31 620.20 1741.45 738.50 1525.79 806.87 1346.24 952.94 1567.00 1055.08
00015509 00000047 1212.58 352.02 724.17 900.32 1433.58 619.36 1742.14 738.89 1525.76 806.74 1345.67 951.49 1566.87 1054.66
00015510 00000048 1210.48 360.15 724.97 901.04 1437.05 622.97 1741.72 738.57 1528.09 807.11 1347.71 964.02 1562.10 1063.46
00015511 00000049 1211.14 359.48 724.37 903.67 1436.81 622.28 1741.88 738.77 1528.30 806.99 1347.41 964.09 1562.48 1064.40
00015512 00000050 1207.41 355.46 728.65 909.72 1434.57 620.58 1741.88 739.38 1527.32 807.89 1342.26 962.18 1563.11 1064.88
00015513 00000051 1207.69 360.59 728.11 902.73 1434.63 621.20 1741.48 739.88 1528.03 809.00 1342.38 959.51 1564.07 1062.47
00015514 00000052 1208.94 355.56 726.76 908.32 1434.73 621.01 1741.62 739.00 1528.47 809.37 1342.96 960.96 1565.00 1063.31
00015515 00000053 1212.12 353.58 727.80 897.76 1430.04 621.37 1740.95 742.15 1519.38 801.62 1342.21 949.54 1564.88 1054.00
00015516 00000054 1210.15 341.66 730.66 908.38 1429.51 619.51 1740.94 742.85 1518.98 801.60 1340.28 947.39 1564.00 1053.94
00015517 00000055 1210.14 343.57 730.07 907.72 1428.93 619.47 1740.61 742.14 1518.58 802.36 1340.53 947.68 1564.44 1053.69
00015518 00000056 1208.17 345.29 733.74 897.05 1430.73 620.75 1739.85 742.15 1519.71 805.74 1342.00 942.47 1567.52 1047.44
00015519 00000057 1210.12 351.81 731.13 896.05 1430.61 622.20 1739.64 741.26 1520.03 806.67 1343.78 945.49 1568.79 1048.64
00015520 00000058 1210.58 351.74 730.79 896.06 1432.87 621.34 1740.48 741.50 1521.76 810.59 1344.64 947.28 1566.84 1050.95
00015521 00000059 1209.00 354.03 732.03 893.99 1432.53 621.59 1739.98 741.71 1521.24 809.48 1344.42 946.25 1566.29 1049.97
00015522 00000060 1208.53 352.52 732.22 896.67 1432.28 620.91 1740.18 742.11 1522.41 808.75 1344.30 944.51 1566.74 1049.37
00015523 00000061 1204.84 354.12 734.80 894.28 1432.23 620.87 1741.34 741.64 1525.59 809.36 1344.20 947.13 1567.42 1051.53
00015524 00000062 1205.51 355.46 734.64 895.63 1431.52 620.76 1741.79 741.07 1524.94 809.71 1343.95 948.38 1567.88 1052.52
00015525 00000063 1205.47 353.90 735.54 897.08 1431.49 621.38 1741.54 741.27 1525.04 811.09 1343.69 949.60 1567.07 1053.40
00015526 00000064 1206.32 353.70 735.88 896.21 1432.23 621.52 1741.95 741.70 1524.93 810.87 1343.85 947.44 1567.21 1051.62
00015527 00000065 1206.63 353.30 736.63 898.23 1432.56 622.20 1741.87 741.37 1524.78 810.89 1344.55 948.55 1568.60 1051.95
00015528 00000066 1197.14 339.91 745.24 910.59 1430.08 617.55 1738.84 729.86 1511.73 817.87 1342.45 951.82 1581.87 1046.82
00015529 00000067 1196.31 342.71 747.33 907.02 1429.28 618.61 1738.30 729.66 1512.41 817.32 1343.37 952.01 1583.77 1045.85
00015530 00000068 1195.26 342.25 747.34 906.74 1432.23 617.47 1741.15 729.79 1514.42 815.78 1344.61 950.48 1584.62 1045.00
00015531 00000069 1198.13 336.81 745.11 910.79 1429.70 615.51 1739.33 728.31 1509.78 815.89 1343.01 950.46 1582.27 1045.68
00015532 00000070 1200.14 341.60 742.35 907.10 1429.55 616.30 1738.32 729.82 1509.34 818.08 1341.98 951.25 1581.48 1047.09
00015533 00000071 1195.64 344.39 746.07 905.39 1431.71 615.78 1742.90 725.00 1518.14 820.28 1347.75 955.94 1582.87 1047.57
00015534 00000072 1200.86 345.05 741.74 904.36 1433.12 616.14 1741.85 723.22 1518.05 820.14 1349.93 956.49 1582.43 1046.45
00015535 00000073 1208.72 357.17 733.83 900.61 1437.67 628.56 1742.50 741.57 1529.01 821.51 1353.50 963.27 1568.97 1060.70
00015536 00000074 1209.88 357.54 732.47 899.85 1438.36 628.33 1742.45 741.81 1529.04 821.68 1353.66 962.93 1568.50 1060.67
00015537 00000075 1209.55 357.06 732.80 900.53 1437.91 628.22 1742.20 741.49 1528.99 821.75 1353.52 962.77 1568.46 1060.38
00015538 00000076 1209.66 350.84 734.34 905.79 1436.48 626.55 1742.31 742.38 1527.73 818.50 1350.37 960.49 1567.60 1060.44
00015539 00000077 1209.44 356.56 732.57 900.21 1436.64 627.03 1742.48 742.06 1529.47 820.30 1351.51 960.44 1568.39 1059.82
00015540 00000078 1209.56 354.98 732.31 899.93 1436.53 626.74 1742.89 744.41 1530.95 818.41 1351.56 956.28 1571.28 1057.99
00015541 00000079 1210.24 361.32 732.33 894.91 1437.25 627.86 1742.37 745.60 1529.91 819.11 1351.18 956.00 1570.10 1057.81
00015542 00000080 1209.88 358.95 733.81 899.13 1436.72 626.98 1742.52 743.99 1529.22 819.20 1351.19 956.68 1570.23 1057.96
00015543 00000081 1213.40 355.45 730.19 901.59 1438.73 627.38 1743.44 746.15 1530.27 818.07 1350.30 956.15 1571.19 1059.01
00015544 00000082 1215.22 359.88 728.83 899.66 1439.93 627.59 1743.76 744.78 1529.91 818.48 1352.39 957.36 1571.99 1058.89
00015545 00000083 1213.64 358.69 733.10 901.44 1440.12 628.20 1744.14 745.21 1529.64 819.86 1351.82 957.95 1571.35 1059.40
00015546 00000084 1214.13 357.25 732.70 902.86 1440.35 628.47 1743.88 745.75 1529.31 820.48 1352.23 957.76 1571.94 1059.41
00015547 00000085 1215.37 358.54 732.09 901.54 1440.93 628.52 1744.17 745.73 1529.18 820.18 1352.09 958.36 1571.81 1059.90
00015548 00000086 1213.91 356.43 737.33 903.77 1441.07 628.98 1746.23 745.97 1529.79 819.46 1351.61 959.26 1574.33 1060.82
00015549 00000087 1215.29 358.85 736.09 900.06 1440.98 629.79 1746.24 746.92 1529.24 820.63 1351.31 959.96 1573.00 1061.46
00015550 00000088 1213.81 373.46 734.33 891.37 1441.66 630.20 1747.22 745.19 1532.44 823.99 1352.90 964.85 1573.02 1064.68
00015551 00000089 1216.48 371.83 730.77 890.56 1442.07 630.53 1747.40 745.00 1532.01 823.88 1353.26 964.75 1573.56 1063.88
00015552 00000090 1221.37 368.54 728.49 892.43 1442.66 631.05 1748.44 746.42 1531.41 823.61 1354.29 964.80 1573.87 1064.50
00015553 00000091 1220.41 364.26 727.19 894.76 1441.34 631.20 1747.02 745.90 1533.43 825.52 1356.98 963.99 1576.69 1063.16
00015554 00000092 1217.72 366.57 730.30 893.71 1441.16 629.21 1748.32 746.68 1533.52 822.64 1354.23 961.36 1576.67 1063.14
00015555 00000093 1215.81 367.19 730.58 890.90 1442.82 630.44 1748.35 747.67 1534.92 821.67 1356.30 961.36 1576.66 1062.88
00015556 00000094 1215.40 370.89 729.77 887.14 1443.33 631.59 1748.39 747.68 1535.52 822.89 1357.09 963.04 1575.85 1063.37
00015557 00000095 1215.97 364.61 729.53 892.41 1442.85 631.91 1748.55 748.25 1535.24 820.75 1357.51 963.62 1576.52 1063.97
00015558 00000096 1218.04 361.41 730.28 907.83 1442.72 630.98 1748.12 745.75 1533.83 820.76 1360.39 965.65 1578.56 1065.28
00015559 00000097 1218.57 363.07 729.65 905.67 1443.03 631.03 1748.33 745.80 1533.86 820.21 1360.11 965.44 1578.39 1065.06
00015560 00000098 1218.72 365.59 729.64 902.46 1442.98 630.85 1748.86 745.76 1533.88 820.19 1359.70 964.96 1578.31 1064.71
00015561 DELETE   1219.66 363.19 728.76 904.96 1442.64 631.34 1748.87 746.25 1534.81 819.40 1359.77 965.22 1579.75 1065.06
00015562 00000100 1219.53 360.78 729.10 906.97 1443.17 630.81 1749.13 746.28 1536.01 819.79 1360.41 965.38 1579.87 1065.64
00015563 00000101 1221.40 370.61 727.70 898.73 1446.21 629.33 1750.51 743.72 1537.02 824.15 1362.83 965.32 1578.73 1064.67
00015564 00000102 1223.51 364.82 727.19 904.43 1447.83 629.54 1751.06 744.11 1537.57 823.69 1364.67 966.10 1578.84 1065.33
00015565 00000103 1225.03 367.65 723.84 903.81 1449.49 631.18 1752.72 746.01 1540.25 827.87 1365.19 971.45 1578.25 1070.44
00015566 00000104 1226.75 365.91 721.39 903.86 1449.50 631.76 1753.23 747.25 1542.44 827.93 1366.09 972.00 1579.04 1071.47
00015567 00000105 1226.88 367.62 720.91 901.97 1449.83 633.15 1753.30 747.50 1543.24 829.52 1367.48 972.40 1579.73 1070.85
00015568 00000106 1227.65 355.38 724.87 910.39 1452.29 634.01 1755.70 748.31 1546.80 827.61 1371.56 972.45 1584.96 1070.71
00015569 00000107 1229.70 357.53 723.54 907.31 1453.18 634.44 1756.26 746.96 1546.33 828.18 1373.50 972.82 1585.76 1069.30
00015570 00000108 1232.04 362.96 721.82 900.07 1452.81 634.98 1758.24 746.63 1549.19 827.16 1375.48 970.98 1589.74 1067.12
00015571 00000109 1231.41 365.13 722.01 897.45 1453.49 634.90 1758.60 746.42 1550.19 826.66 1375.62 970.90 1589.77 1066.87
00015572 00000110 1229.76 365.71 723.12 896.34 1453.30 634.85 1758.67 746.80 1550.68 826.32 1375.18 969.78 1589.79 1066.23
00015573 00000111 1230.80 349.99 721.92 921.37 1452.67 632.70 1759.11 747.40 1554.31 828.51 1376.72 970.65 1593.94 1070.06
00015574 00000112 1232.24 352.10 721.21 916.07 1453.77 633.24 1760.84 747.79 1554.44 827.27 1376.87 970.08 1595.18 1069.21
00015575 00000113 1233.58 365.63 719.41 902.93 1455.11 632.77 1763.15 748.20 1555.52 825.34 1378.31 968.73 1596.24 1068.34
00015576 00000114 1235.04 374.98 716.73 893.28 1454.64 633.32 1763.60 748.56 1556.05 823.00 1378.45 967.40 1596.90 1066.94
00015577 00000115 1235.60 370.44 718.40 897.67 1454.93 633.20 1762.65 747.61 1553.70 823.90 1377.87 968.40 1595.23 1067.15
00015578 00000116 1233.78 368.12 723.33 900.08 1457.26 632.01 1765.49 749.28 1555.06 821.60 1376.49 967.75 1595.48 1068.85
00015579 00000117 1234.49 364.71 722.10 902.39 1457.58 629.71 1765.38 749.43 1553.44 822.81 1375.44 966.10 1594.33 1069.23
00015580 00000118 1233.99 382.73 722.36 882.04 1460.88 631.90 1767.57 748.86 1555.94 821.32 1377.63 965.83 1596.44 1066.53
00015581 00000119 1232.93 381.03 724.17 883.12 1460.49 630.94 1767.29 749.25 1555.81 820.71 1375.21 965.25 1594.69 1067.19
00015582 00000120 1233.36 380.72 724.44 885.51 1460.73 629.99 1767.37 747.69 1555.79 820.49 1375.96 965.51 1594.97 1066.92
00015583 00000121 1231.46 378.83 726.16 882.89 1461.63 629.63 1769.24 748.61 1558.82 819.20 1376.82 963.14 1596.74 1065.68
00015584 00000122 1232.86 379.99 725.57 883.01 1461.75 629.53 1769.25 748.69 1558.37 818.26 1376.72 963.28 1597.37 1065.94
00015585 00000123 1236.06 381.01 720.82 879.28 1462.45 629.73 1770.30 748.74 1559.03 818.69 1378.81 962.67 1599.43 1065.03
00015586 00000124 1233.28 381.40 722.62 879.85 1461.20 630.16 1770.60 750.34 1559.86 818.71 1378.71 962.57 1600.53 1065.99
00015587 00000125 1233.20 381.69 723.51 878.67 1462.18 629.84 1770.87 749.71 1559.16 818.76 1378.06 963.21 1599.70 1066.22
00015588 00000126 1233.33 370.49 724.05 885.65 1462.60 628.67 1771.46 750.28 1561.44 818.45 1378.32 959.06 1601.65 1063.72
00015589 00000127 1230.01 377.49 724.98 876.23 1462.48 629.41 1771.16 751.09 1563.01 818.12 1378.37 956.41 1601.72 1061.43
00015590 00000128 1232.16 384.45 723.63 868.15 1464.15 630.41 1770.31 751.65 1561.41 816.50 1379.56 954.03 1601.89 1058.66
00015591 00000129 1234.02 382.28 721.92 870.65 1464.39 631.17 1770.04 750.41 1561.21 816.71 1381.72 955.51 1602.93 1058.32
00015592 00000130 1235.76 383.36 721.00 868.04 1464.75 631.88 1770.42 750.02 1561.46 816.66 1383.23 954.61 1603.95 1056.57
00015593 DELETE   1233.85 379.22 724.22 868.89 1465.16 630.70 1770.65 750.85 1560.20 818.67 1379.73 949.60 1603.29 1053.53
00015594 00000132 1234.39 381.42 722.69 866.79 1464.66 630.72 1770.79 750.63 1561.17 819.17 1380.53 950.33 1603.72 1053.95
00015595 00000133 1237.67 379.66 716.74 863.44 1464.78 630.17 1768.89 747.94 1559.38 814.54 1379.75 950.45 1600.14 1052.03
00015596 00000134 1238.46 378.97 715.71 862.78 1464.88 630.19 1768.94 748.13 1559.54 814.20 1380.07 949.52 1599.97 1051.31
00015597 00000135 1239.05 378.26 715.57 862.83 1465.33 629.44 1769.50 748.12 1559.35 814.15 1380.00 948.82 1599.48 1051.14
00015598 00000136 1241.77 381.13 711.53 854.56 1462.11 621.80 1769.21 742.30 1555.75 794.86 1377.58 937.33 1597.07 1042.65
00015599 00000137 1239.83 376.86 713.71 859.93 1460.89 620.35 1768.36 742.31 1555.83 794.55 1377.03 934.86 1597.39 1041.61
00015600 00000138 1223.39 363.66 722.09 840.69 1465.65 608.06 1757.61 727.63 1551.40 781.21 1375.94 917.36 1592.51 1015.74
00015601 00000139 1225.63 365.38 720.36 840.02 1464.49 608.84 1758.18 727.28 1550.56 780.31 1375.91 919.08 1592.60 1016.57
00015602 00000140 1227.71 365.70 717.50 840.36 1463.89 609.50 1758.48 726.87 1550.93 781.01 1377.61 919.62 1595.01 1016.25
00015603 00000141 1238.51 368.30 708.72 838.37 1459.45 607.38 1765.36 726.36 1555.80 774.72 1373.85 914.73 1594.42 1019.82
00015604 00000142 1229.43 375.98 719.37 825.43 1466.85 606.07 1760.07 718.87 1559.10 772.37 1379.97 911.70 1586.02 1008.43
00015605 00000143 1235.50 369.40 706.00 843.62 1455.12 602.56 1764.91 720.07 1555.68 766.82 1375.09 916.19 1598.65 1020.35
00015606 00000144 1234.60 368.44 707.40 843.82 1454.85 602.75 1764.77 720.21 1555.53 766.83 1374.60 916.21 1598.76 1020.34
00015607 00000145 1235.29 368.16 706.95 845.26 1454.49 602.14 1765.51 720.38 1555.81 766.80 1374.40 916.33 1599.57 1021.12
00015608 00000146 1233.19 363.00 703.52 855.28 1452.75 601.23 1763.05 719.03 1558.51 764.44 1374.06 918.74 1599.84 1023.37
00015609 DELETE   1233.37 360.46 702.77 854.95 1452.82 601.36 1763.15 717.98 1558.28 764.47 1376.12 918.39 1600.41 1021.91
00015610 00000148 1222.13 362.67 717.18 843.93 1456.06 597.02 1758.52 710.56 1558.41 756.50 1381.05 910.97 1598.72 1009.34
00015611 DELETE   1214.73 346.58 717.42 852.09 1449.00 593.08 1755.53 708.37 1546.38 758.40 1371.06 910.84 1604.36 1005.57
00015612 DELETE   1222.74 359.13 714.67 845.38 1455.86 597.35 1758.34 709.63 1559.38 758.45 1382.55 910.96 1599.76 1008.21
00015613 00000151 1225.05 361.89 713.20 840.49 1455.27 598.42 1759.09 712.73 1560.32 756.13 1382.55 909.62 1601.99 1008.86
00015614 DELETE   1232.87 349.84 703.93 859.11 1451.12 597.22 1764.71 720.26 1561.54 758.66 1374.60 910.63 1610.37 1020.03
00015615 00000153 1236.51 352.09 704.87 864.30 1449.80 597.85 1765.80 719.23 1560.11 762.08 1374.53 915.28 1610.52 1023.31
00015616 00000154 1232.66 357.46 710.25 861.83 1450.21 599.52 1765.43 719.26 1557.54 764.77 1375.33 919.36 1608.25 1025.61
00015617 00000155 1233.35 357.17 709.66 861.55 1450.48 599.68 1765.33 719.29 1557.27 763.91 1375.52 919.35 1608.00 1025.48
00015618 00000156 1233.57 366.05 705.61 852.30 1452.59 600.83 1768.00 717.54 1563.64 764.27 1379.45 922.61 1611.23 1026.14
00015619 00000157 1230.97 361.44 709.16 857.15 1452.61 599.60 1768.51 717.82 1564.98 765.00 1379.70 920.92 1612.67 1025.84
00015620 00000158 1229.29 357.19 716.16 864.43 1452.71 600.68 1770.12 718.98 1565.45 772.24 1379.54 921.97 1614.89 1026.92
00015621 00000159 1231.91 358.27 714.46 863.84 1452.80 600.35 1770.52 719.03 1564.97 772.34 1378.82 922.97 1613.14 1028.00
00015622 00000160 1234.10 358.41 710.79 866.47 1453.15 599.85 1771.28 719.36 1563.55 771.34 1379.79 923.49 1614.20 1029.18
