Video ID: 	TCB_Auf1hhs
H: 	1080
W: 	1920
FPS: 	25.0

FRAME INDEX X0 Y0 W H [Landmarks (5 Points)]

00003118 00000000 590.83 110.95 460.15 698.38 911.00 378.44 987.93 371.81 1045.94 521.49 890.10 633.18 950.18 632.47
00003119 00000001 601.79 123.80 456.67 685.97 919.24 384.45 999.40 375.59 1056.31 529.38 895.51 637.78 957.69 635.38
00003120 00000002 604.37 120.67 461.54 688.95 927.15 393.22 1004.34 382.17 1062.23 536.34 906.58 645.59 964.32 641.91
00003121 00000003 603.39 129.77 462.82 688.95 924.55 399.43 1004.21 388.13 1060.22 543.33 906.29 652.80 964.04 648.27
00003122 00000004 603.21 139.85 457.30 676.36 919.50 404.53 1001.37 396.49 1054.81 548.24 905.15 657.05 962.82 654.66
00003123 00000005 597.36 140.68 460.65 673.00 915.19 406.59 1000.05 399.95 1051.59 550.86 903.74 658.88 962.16 657.27
00003124 00000006 596.59 148.43 456.79 661.38 912.81 404.91 994.18 398.17 1045.51 550.34 902.71 658.52 957.97 656.86
00003125 00000007 590.63 144.59 456.99 664.83 907.43 401.69 990.38 395.56 1040.40 548.48 896.76 656.50 954.43 655.50
00003126 00000008 583.03 145.03 459.80 668.93 899.59 397.53 984.65 389.29 1033.58 545.03 890.91 656.04 952.06 653.05
00003127 00000009 568.16 140.94 462.58 667.55 888.51 396.26 971.96 391.31 1019.55 542.13 878.05 651.66 938.34 651.53
00003128 00000010 558.18 123.70 462.39 695.29 880.63 387.63 961.91 382.94 1014.93 540.48 863.24 647.28 921.66 647.75
00003129 00000011 547.14 114.54 459.95 702.08 875.37 384.28 950.69 383.18 1007.50 536.49 851.49 640.77 907.10 644.05
00003130 00000012 534.27 111.19 459.99 709.12 860.28 378.44 940.36 378.27 997.82 533.28 834.47 642.55 893.78 646.48
00003131 00000013 521.50 104.82 465.48 720.17 842.06 373.98 934.34 377.18 986.64 532.41 817.19 643.20 891.74 649.21
00003132 DELETE   497.15 100.55 479.81 721.84 817.10 370.41 931.94 367.46 968.16 526.52 793.01 638.87 885.06 640.41
00003133 00000015 484.68 91.21 475.55 723.47 804.08 365.39 915.82 371.82 947.59 520.38 781.02 633.01 868.38 641.18
00003134 DELETE   468.80 82.97 472.63 733.97 783.46 357.32 904.75 371.98 932.33 517.21 751.55 625.28 853.81 639.22
00003135 DELETE   452.04 69.49 478.77 742.27 750.55 352.30 893.36 360.50 912.68 513.06 726.77 625.02 846.96 635.63
00003136 DELETE   438.79 72.87 480.11 743.83 731.72 340.91 890.28 353.42 888.18 504.67 708.71 621.26 840.73 634.74
00003137 00000019 420.99 71.92 486.86 746.39 713.16 333.92 876.31 347.53 872.17 501.65 692.98 620.64 829.10 633.60
00003138 00000020 409.35 68.09 490.99 753.73 696.82 330.44 868.10 345.79 857.54 501.02 676.37 621.30 821.52 634.54
00003139 00000021 399.50 70.77 489.42 750.93 686.01 331.72 857.11 349.02 845.57 503.05 661.40 621.15 808.10 635.67
00003140 00000022 390.88 67.92 492.33 758.21 678.32 332.05 852.97 352.40 836.98 504.70 652.38 621.13 804.43 637.91
00003141 00000023 385.96 65.34 493.71 765.35 671.39 333.42 850.79 355.36 832.38 508.61 642.72 625.51 801.28 643.65
00003142 00000024 382.10 66.12 500.64 771.97 661.89 343.54 835.62 363.18 827.75 513.64 636.42 629.21 790.40 647.65
00003143 00000025 382.40 73.18 495.99 778.18 666.27 344.40 846.37 365.78 828.37 520.06 639.90 641.84 800.33 659.62
00003144 00000026 388.99 86.57 487.87 764.00 663.05 354.84 848.95 372.26 822.40 520.98 641.46 646.83 798.18 661.04
00003145 00000027 395.25 94.15 488.31 758.72 665.87 357.95 852.73 372.69 826.99 521.38 647.46 648.78 806.01 660.88
00003146 00000028 404.34 97.94 489.74 751.71 672.00 359.89 860.29 369.62 833.83 520.65 662.28 647.53 820.15 655.90
00003147 00000029 415.60 92.46 493.95 758.25 687.07 356.51 872.13 365.45 845.51 518.92 681.04 643.60 835.47 652.06
00003148 00000030 438.00 85.05 488.81 758.51 708.81 353.21 886.23 366.69 871.18 521.79 699.88 641.19 856.61 651.74
00003149 00000031 458.22 85.36 487.53 762.07 725.44 352.02 907.14 363.20 889.72 517.99 716.91 642.76 879.08 651.06
00003150 00000032 476.49 81.51 492.39 764.20 743.89 352.03 929.30 359.42 911.84 514.83 737.98 642.93 904.13 648.37
00003151 00000033 501.66 104.19 484.42 733.74 759.25 361.75 946.34 362.44 921.39 518.52 765.45 639.52 920.04 641.28
00003152 00000034 517.67 90.34 484.44 738.77 780.48 363.65 961.88 368.15 942.72 528.99 787.38 643.83 940.80 646.31
00003153 00000035 537.93 96.22 484.97 728.95 799.10 366.57 981.94 364.22 962.99 526.86 806.68 642.66 962.44 639.69
00003154 00000036 554.89 102.99 487.31 724.45 809.69 368.47 996.58 365.48 972.77 528.70 822.05 645.40 979.33 641.23
00003155 00000037 567.83 107.96 484.27 715.66 822.47 370.05 1005.78 364.99 986.52 531.45 838.96 645.49 994.24 639.88
00003156 00000038 580.24 107.56 483.90 714.41 831.41 370.53 1019.80 367.22 995.95 531.18 847.89 646.67 1005.05 643.18
00003157 00000039 593.01 96.87 482.83 725.39 841.69 375.78 1029.25 368.56 1013.98 526.08 856.93 638.64 1010.83 633.37
00003158 00000040 601.24 99.27 482.81 719.04 849.37 379.28 1035.03 369.05 1019.92 527.55 865.63 639.51 1017.73 631.73
00003159 00000041 604.25 101.23 479.12 726.79 859.44 377.65 1041.87 372.05 1021.18 537.59 868.98 650.61 1024.61 645.19
00003160 00000042 613.62 97.73 482.42 723.69 864.20 390.34 1050.76 384.04 1032.06 533.69 876.57 647.54 1027.74 642.67
00003161 00000043 613.62 105.14 480.28 731.09 873.14 385.41 1052.85 382.83 1032.26 539.32 879.24 656.30 1028.42 653.21
00003162 00000044 615.65 107.77 479.60 730.01 874.44 384.39 1052.89 380.40 1034.55 536.34 882.90 656.20 1031.16 652.13
00003163 00000045 618.03 108.08 479.75 730.69 873.53 380.34 1053.08 376.23 1034.76 536.62 883.44 656.25 1034.93 652.09
00003164 00000046 620.08 107.32 482.42 732.47 877.63 378.54 1057.02 374.16 1039.60 537.23 886.71 657.91 1037.31 653.70
00003165 00000047 622.09 109.01 483.16 730.62 878.52 378.60 1058.68 375.06 1040.52 535.10 888.99 656.67 1039.96 652.97
00003166 00000048 626.71 118.07 481.52 721.62 876.71 378.83 1063.75 377.26 1037.23 531.40 895.95 652.05 1043.38 649.46
00003167 00000049 625.34 111.12 481.64 722.74 880.61 378.75 1060.54 372.37 1042.61 535.70 894.55 656.34 1042.86 650.19
00003168 00000050 624.02 112.39 482.62 720.18 879.92 380.79 1059.73 373.44 1041.62 537.42 893.48 656.47 1041.69 649.69
00003169 00000051 625.08 112.65 481.20 720.30 878.73 382.55 1060.03 375.71 1040.34 538.40 892.65 657.88 1041.88 651.49
00003170 00000052 623.28 114.87 482.08 720.43 877.51 386.40 1057.97 378.42 1039.32 541.48 890.89 660.67 1040.25 653.56
00003171 00000053 623.02 116.99 481.31 720.82 876.28 389.93 1056.97 380.79 1038.93 544.25 890.08 664.66 1039.47 656.78
00003172 00000054 622.27 120.53 483.14 725.29 873.26 392.15 1055.12 383.11 1037.95 546.99 890.29 673.57 1039.73 665.71
00003173 00000055 621.44 123.41 483.78 725.92 873.06 391.80 1054.86 385.14 1037.82 548.61 889.09 675.95 1038.03 670.25
00003174 00000056 622.90 123.98 482.32 731.24 875.31 390.27 1052.48 388.00 1036.94 548.14 890.86 679.61 1032.18 677.82
00003175 00000057 623.70 124.87 480.46 730.24 870.79 386.56 1064.79 394.89 1029.08 544.41 889.32 674.11 1036.22 678.92
00003176 00000058 624.06 124.61 479.97 733.27 871.61 387.51 1065.12 395.81 1029.75 545.69 888.52 675.45 1036.57 680.26
00003177 00000059 624.36 127.28 480.29 733.31 871.96 388.41 1065.64 396.20 1029.80 547.36 888.82 676.31 1037.94 680.60
00003178 00000060 624.54 131.43 480.51 730.32 872.48 390.29 1065.99 397.43 1030.68 549.29 888.30 677.99 1038.64 681.79
00003179 00000061 624.23 134.31 481.74 727.39 872.21 391.59 1065.97 397.94 1030.61 550.58 887.88 677.79 1039.11 680.96
00003180 00000062 624.23 136.63 480.21 726.17 872.17 392.94 1065.31 399.55 1030.27 552.03 887.04 679.02 1038.47 682.35
00003181 00000063 623.85 135.68 479.51 725.86 870.88 393.18 1064.16 399.60 1029.03 551.57 886.86 679.18 1037.88 682.30
00003182 00000064 622.96 134.03 479.28 728.08 870.64 392.55 1063.56 399.00 1029.25 550.63 886.03 678.23 1037.56 681.35
00003183 00000065 622.38 134.72 477.32 727.33 870.38 391.91 1062.34 398.88 1028.43 549.86 885.93 677.50 1035.99 681.01
00003184 00000066 620.98 129.99 477.48 730.48 869.35 391.18 1061.28 398.11 1027.54 549.23 886.05 677.22 1035.34 680.53
00003185 00000067 619.23 130.33 477.30 731.47 867.84 391.12 1060.39 399.13 1025.54 550.05 883.13 677.40 1033.72 681.57
00003186 00000068 615.85 129.59 479.97 736.22 867.31 397.19 1046.21 392.98 1031.75 554.78 879.24 684.70 1026.11 681.63
00003187 00000069 612.90 127.12 478.19 737.31 864.95 392.19 1057.30 400.45 1024.24 550.43 879.09 677.76 1030.94 682.06
00003188 00000070 609.77 127.53 482.02 735.55 863.31 399.49 1044.68 394.01 1027.27 558.04 873.87 683.47 1022.76 679.52
00003189 00000071 609.94 129.92 479.88 730.73 861.21 402.44 1042.56 393.97 1022.87 558.98 869.72 679.59 1021.75 673.39
00003190 00000072 607.95 129.04 480.17 738.68 859.41 405.52 1040.37 396.20 1022.39 561.73 868.56 684.40 1020.90 677.62
00003191 00000073 606.55 130.39 479.61 747.91 856.90 408.55 1036.78 399.18 1022.45 565.99 862.56 689.82 1015.81 683.58
00003192 00000074 603.59 129.37 479.70 751.03 854.21 408.11 1035.16 401.00 1022.47 567.30 853.83 689.22 1011.47 685.05
00003193 00000075 599.65 128.39 479.41 740.70 852.30 406.19 1032.90 396.89 1019.15 562.38 852.61 681.03 1011.02 674.83
00003194 00000076 594.37 123.57 480.64 728.18 850.60 400.52 1031.15 392.13 1018.31 555.01 855.82 672.68 1010.92 666.77
00003195 00000077 591.87 122.39 482.53 739.66 847.20 397.07 1027.86 387.62 1017.67 551.59 851.46 673.08 1011.73 666.28
00003196 00000078 591.18 128.19 490.59 743.22 843.70 397.72 1038.30 392.78 1011.35 554.79 846.77 677.66 1011.19 676.22
00003197 00000079 591.57 123.00 481.29 743.40 850.44 409.23 1028.94 399.59 1021.32 564.29 856.33 684.25 1009.36 677.31
00003198 00000080 598.64 127.27 473.78 730.01 860.13 409.88 1032.05 394.26 1031.76 559.36 870.93 680.98 1018.48 668.96
00003199 00000081 610.25 127.26 470.87 726.36 875.52 397.26 1043.00 384.99 1046.83 547.26 889.82 676.80 1031.80 667.33
00003200 00000082 619.61 118.32 471.87 731.98 896.08 389.90 1056.09 383.77 1059.08 533.07 904.94 662.75 1036.93 657.64
00003201 00000083 630.35 122.94 473.77 717.43 913.63 387.54 1064.71 374.06 1078.11 528.27 921.07 654.12 1047.92 644.31
00003202 00000084 643.93 124.63 473.34 714.35 933.05 386.77 1074.95 374.77 1095.61 524.07 936.10 648.32 1054.66 640.98
00003203 00000085 651.15 130.62 473.21 710.24 947.76 388.90 1080.07 384.49 1107.71 527.52 951.46 650.64 1059.46 650.08
00003204 DELETE   657.63 127.89 475.95 719.77 959.37 398.04 1086.30 395.73 1117.13 537.95 965.14 664.47 1061.86 665.69
00003205 00000087 665.66 144.39 471.53 703.38 965.84 407.72 1089.77 406.21 1120.88 547.55 973.26 673.89 1064.41 675.16
00003206 00000088 671.09 150.01 467.57 691.46 982.72 406.92 1092.22 409.87 1130.05 551.08 986.42 669.30 1069.69 672.74
00003207 00000089 679.13 146.07 462.86 686.52 989.45 395.55 1096.30 398.80 1135.30 539.60 996.13 661.35 1077.01 665.04
00003208 00000090 686.34 136.38 453.67 711.52 996.66 386.84 1080.67 391.90 1135.94 542.18 983.18 658.59 1049.74 666.48
00003209 00000091 686.29 139.46 462.32 719.25 1004.14 393.15 1093.68 400.28 1141.60 542.43 972.49 653.60 1046.77 664.46
00003210 00000092 688.44 151.71 461.32 712.58 1001.09 399.86 1094.08 404.00 1140.61 548.44 966.33 659.49 1045.96 668.21
00003211 00000093 690.43 151.81 458.63 704.52 1001.72 398.44 1095.45 411.80 1140.07 556.67 964.27 661.76 1042.13 676.19
00003212 00000094 689.73 154.31 462.77 692.43 1003.17 402.44 1099.51 413.61 1138.42 555.29 978.49 661.29 1054.95 673.36
00003213 00000095 691.45 152.70 461.30 682.02 1007.50 399.57 1100.09 406.88 1142.01 547.29 993.50 657.15 1063.24 665.74
00003214 00000096 692.75 148.08 459.48 680.23 1010.57 396.60 1100.29 401.90 1145.79 543.10 999.77 654.10 1067.40 661.15
00003215 00000097 691.61 137.49 458.98 699.34 1010.07 398.82 1087.96 395.83 1146.09 551.75 995.98 660.59 1054.84 662.58
00003216 00000098 692.70 150.94 463.07 677.72 1011.95 401.86 1103.54 406.29 1147.44 548.51 1002.11 659.27 1069.67 665.61
00003217 00000099 694.31 141.68 465.51 703.00 1013.81 408.54 1091.52 403.31 1148.32 561.92 1002.05 670.83 1058.30 671.28
00003218 00000100 696.23 151.36 467.52 680.31 1014.16 405.33 1105.59 409.96 1148.43 549.71 1009.23 662.59 1075.45 668.79
00003219 00000101 700.76 138.98 462.44 705.17 1020.13 401.62 1092.61 394.84 1157.64 550.22 1024.26 669.72 1072.70 668.14
00003220 00000102 699.27 131.26 469.36 715.54 1022.97 397.98 1095.80 394.07 1162.53 542.22 1034.22 669.17 1082.14 669.74
00003221 00000103 703.01 130.07 469.69 725.51 1025.49 399.22 1100.58 395.95 1165.03 547.12 1031.09 674.49 1080.40 675.34
00003222 00000104 711.51 148.17 469.03 703.56 1029.10 403.65 1116.85 412.52 1161.56 552.47 1016.89 672.11 1079.22 682.77
00003223 00000105 721.03 148.45 465.58 707.15 1036.01 410.94 1117.77 417.46 1176.64 569.48 1012.20 672.15 1079.18 682.11
00003224 00000106 727.67 152.22 464.36 706.44 1046.10 415.30 1130.97 420.51 1175.80 563.83 1032.32 683.78 1090.39 691.23
00003225 00000107 737.30 155.37 461.00 692.41 1050.45 418.21 1126.79 420.61 1186.07 569.55 1039.48 674.60 1097.84 680.99
00003226 00000108 742.34 155.45 463.10 689.56 1056.92 418.34 1132.21 417.55 1193.40 567.66 1049.13 674.78 1105.53 678.63
00003227 00000109 752.00 157.24 454.10 689.09 1065.42 421.13 1139.75 420.67 1199.23 570.31 1058.72 677.58 1112.38 681.67
00003228 00000110 760.82 162.78 448.02 689.07 1072.46 426.75 1142.72 427.74 1201.77 576.20 1064.02 681.18 1113.30 686.55
00003229 00000111 761.71 162.05 450.85 689.27 1075.02 431.59 1146.83 431.76 1203.13 578.67 1066.12 681.92 1116.06 686.71
00003230 00000112 761.18 162.95 451.11 678.49 1076.10 430.16 1147.09 429.65 1202.28 576.36 1063.17 675.39 1112.51 680.05
00003231 00000113 761.51 162.44 445.67 676.44 1074.09 426.62 1143.76 427.75 1199.20 571.06 1063.31 671.02 1112.97 676.59
00003232 00000114 761.01 162.26 442.47 670.83 1069.73 426.46 1141.24 426.91 1195.42 569.66 1060.51 669.98 1110.77 674.79
00003233 00000115 759.78 170.35 440.42 655.12 1058.49 426.82 1158.95 433.83 1196.75 563.24 1060.05 673.30 1125.11 680.51
00003234 00000116 752.65 174.20 445.08 660.46 1050.85 427.79 1155.43 438.47 1186.14 563.84 1053.21 676.07 1121.59 685.65
00003235 00000117 748.05 180.02 443.90 659.04 1039.91 425.61 1150.03 436.40 1174.12 565.66 1042.81 679.26 1115.58 688.84
00003236 00000118 740.61 174.66 448.10 669.59 1033.80 422.96 1143.76 435.41 1165.44 566.53 1027.12 679.83 1103.21 691.64
CROP_BBOX: 216 0 1378 1054
