Video ID: 	6nRBwrJgndw
H: 	1080
W: 	1920
FPS: 	25.0

FRAME INDEX X0 Y0 W H [Landmarks (5 Points)]

00003645 00000000 999.38 198.57 398.98 544.31 1120.85 398.25 1315.40 406.72 1235.76 530.15 1136.16 623.77 1280.62 629.55
00003646 00000001 992.17 178.75 401.49 565.81 1113.03 397.46 1307.23 402.10 1227.22 516.34 1136.28 615.67 1283.74 619.66
00003647 DELETE   987.70 173.02 396.06 570.84 1105.54 394.10 1296.25 401.47 1215.55 506.77 1121.76 609.56 1273.59 615.85
00003648 00000003 974.75 176.57 399.53 565.56 1095.63 388.34 1290.47 396.66 1205.91 503.16 1107.41 605.37 1265.53 612.58
00003649 00000004 965.79 175.27 406.08 560.12 1085.73 388.75 1280.23 393.89 1200.14 502.61 1102.61 601.68 1257.57 605.93
00003650 00000005 960.98 171.47 405.64 556.86 1086.51 381.84 1279.56 389.30 1202.16 497.09 1099.97 595.76 1254.11 602.23
00003651 00000006 955.77 168.81 404.93 553.79 1083.97 375.81 1275.13 383.10 1201.31 489.07 1095.32 587.70 1250.80 594.43
00003652 00000007 949.83 166.31 400.78 552.68 1077.90 369.35 1271.94 377.10 1197.43 482.76 1087.51 583.16 1245.81 590.24
00003653 00000008 945.67 162.26 398.94 556.18 1073.47 364.72 1264.12 374.30 1190.10 477.08 1083.31 582.36 1235.03 591.20
00003654 00000009 938.88 159.00 402.45 555.45 1070.75 364.24 1257.92 375.28 1183.93 475.72 1085.08 582.69 1226.02 591.84
00003655 00000010 936.29 157.29 398.61 559.33 1067.76 362.49 1254.84 373.78 1181.61 478.05 1085.23 584.99 1223.10 593.84
00003656 00000011 934.44 159.62 397.78 557.03 1065.43 366.02 1251.90 376.31 1178.35 483.17 1085.13 589.50 1219.36 597.54
00003657 00000012 931.10 161.19 400.43 561.59 1062.32 373.16 1247.85 382.27 1174.81 486.78 1085.04 595.74 1217.32 602.78
00003658 00000013 929.46 164.17 400.76 565.41 1058.25 376.53 1244.15 383.27 1171.05 490.12 1082.74 599.88 1217.05 605.06
00003659 00000014 926.78 164.05 398.76 568.80 1051.12 379.13 1238.05 385.58 1164.01 490.03 1074.28 601.02 1214.07 605.92
00003660 00000015 924.34 166.05 397.36 567.03 1046.78 380.39 1234.92 386.77 1159.98 491.78 1070.40 601.79 1211.92 606.57
00003661 00000016 923.78 166.58 398.54 567.76 1046.47 382.09 1236.21 389.20 1160.03 494.29 1069.67 603.26 1212.63 608.68
00003662 00000017 923.99 166.63 400.41 567.55 1048.89 384.54 1239.32 391.74 1162.38 497.52 1072.18 605.04 1214.48 610.74
00003663 00000018 921.70 168.34 402.58 568.49 1047.43 386.48 1240.52 394.13 1161.99 499.78 1068.78 604.98 1217.12 611.25
00003664 00000019 922.01 170.25 402.02 571.05 1042.29 389.26 1237.92 396.50 1156.57 502.11 1061.05 603.99 1219.00 609.89
00003665 00000020 921.65 171.21 400.12 576.58 1037.04 391.51 1233.73 401.22 1148.61 505.06 1050.70 606.66 1212.34 614.70
00003666 00000021 920.72 172.51 399.60 579.37 1035.92 390.96 1230.65 402.63 1145.47 505.85 1047.30 609.16 1205.92 618.82
00003667 00000022 922.37 171.84 400.08 581.19 1037.35 390.51 1233.51 401.09 1148.89 506.39 1050.50 611.14 1209.56 619.80
00003668 00000023 923.83 171.55 401.31 579.36 1040.94 391.65 1235.82 399.13 1154.43 507.83 1058.55 612.17 1214.69 618.11
00003669 00000024 924.82 172.92 401.45 576.54 1040.20 394.73 1235.29 399.67 1154.17 510.37 1059.64 611.65 1217.69 615.58
00003670 00000025 925.01 174.98 401.60 571.42 1038.21 402.77 1236.35 409.49 1148.72 508.20 1055.39 609.77 1218.00 615.48
00003671 00000026 924.85 171.62 399.53 574.56 1036.08 400.07 1233.99 406.69 1144.50 505.64 1050.55 607.67 1215.38 613.37
00003672 00000027 926.79 169.35 401.52 577.30 1037.08 390.45 1235.21 398.09 1145.13 497.55 1050.29 605.13 1216.06 611.47
00003673 00000028 929.61 163.70 401.97 583.52 1041.65 382.09 1237.49 391.40 1146.67 492.26 1050.87 601.48 1214.00 609.06
00003674 00000029 929.67 163.81 404.05 577.73 1040.19 378.18 1239.51 388.90 1145.90 490.86 1049.14 599.11 1213.66 607.64
00003675 00000030 930.63 164.88 404.08 575.17 1039.78 379.77 1239.50 392.95 1142.82 493.51 1047.28 599.21 1213.07 609.88
00003676 00000031 929.53 168.13 405.84 577.22 1040.51 382.67 1238.39 396.23 1141.61 496.33 1046.57 601.31 1210.70 612.44
00003677 00000032 929.67 169.27 406.08 577.73 1041.55 382.74 1237.93 396.35 1141.17 496.65 1045.57 601.61 1208.51 612.87
00003678 00000033 931.56 168.05 404.95 575.38 1041.89 380.35 1239.24 393.52 1141.70 493.29 1046.83 601.26 1208.04 612.16
00003679 00000034 933.22 166.09 404.04 568.16 1041.73 376.59 1237.93 388.53 1140.44 490.34 1048.84 598.27 1205.05 607.84
00003680 00000035 931.40 165.75 406.75 566.17 1039.21 372.31 1235.80 382.54 1139.44 488.49 1049.75 595.88 1204.56 603.80
00003681 00000036 933.26 163.59 404.41 565.77 1042.74 369.63 1236.17 379.35 1141.66 488.49 1055.28 595.76 1200.77 603.32
00003682 00000037 934.32 164.87 404.04 565.93 1045.11 370.32 1236.31 378.96 1144.32 489.82 1060.29 599.23 1198.47 606.11
00003683 00000038 934.66 164.14 403.55 568.03 1043.70 373.11 1237.36 382.83 1142.53 490.95 1056.03 600.55 1200.90 608.31
00003684 00000039 935.48 164.77 403.82 567.43 1043.87 374.11 1237.72 383.42 1142.04 491.15 1056.12 600.35 1202.12 607.86
00003685 00000040 936.14 163.90 403.26 569.46 1044.58 373.62 1238.59 383.39 1142.39 490.83 1056.33 600.88 1201.66 608.75
00003686 00000041 936.05 163.95 403.68 573.67 1046.25 374.43 1238.34 382.63 1145.09 491.28 1059.90 605.50 1198.89 612.28
00003687 00000042 936.07 164.14 403.86 576.50 1047.94 373.04 1240.21 382.76 1146.80 490.91 1059.29 606.61 1197.50 614.64
00003688 00000043 937.49 164.73 405.23 573.44 1049.02 374.66 1242.53 382.96 1148.09 491.91 1061.65 606.47 1203.06 613.25
00003689 00000044 937.88 167.71 408.47 566.87 1048.59 376.50 1243.94 384.55 1147.39 491.19 1061.40 602.96 1209.58 609.47
00003690 00000045 938.77 168.97 410.11 560.20 1050.69 377.57 1244.65 383.41 1149.16 490.44 1064.80 598.90 1212.67 603.53
00003691 00000046 940.91 169.61 408.35 555.20 1052.67 374.10 1242.22 380.03 1148.62 486.47 1065.64 591.56 1211.48 596.12
00003692 00000047 942.44 161.23 403.96 556.47 1048.82 363.24 1240.92 372.24 1142.74 475.21 1058.92 581.77 1207.60 588.59
00003693 00000048 941.12 150.04 400.13 558.07 1042.46 352.43 1235.80 361.78 1134.06 459.38 1051.68 570.77 1202.19 577.75
00003694 00000049 935.51 136.96 399.12 557.87 1029.46 343.06 1226.04 355.42 1117.48 451.48 1036.14 559.82 1195.55 568.64
00003695 00000050 931.74 131.70 399.49 558.15 1020.67 336.01 1216.34 347.61 1104.50 444.36 1026.83 550.70 1189.73 559.07
00003696 00000051 927.59 127.92 399.89 561.25 1014.46 334.62 1209.19 344.85 1093.84 441.05 1021.12 548.78 1184.28 556.40
00003697 00000052 926.78 128.36 400.40 565.40 1007.60 340.68 1199.63 348.33 1084.31 449.71 1017.39 555.24 1178.26 561.16
00003698 00000053 924.91 138.25 400.84 561.95 1004.74 347.97 1191.54 355.02 1079.95 458.91 1016.59 563.07 1173.96 568.32
00003699 00000054 925.31 151.37 400.94 561.17 1002.36 357.69 1186.73 360.64 1078.32 470.50 1015.15 571.75 1169.41 573.93
00003700 DELETE   925.99 161.48 400.58 565.38 1001.30 380.42 1182.80 378.06 1074.27 481.67 1017.32 583.64 1174.60 581.50
00003701 DELETE   925.85 172.30 401.08 568.07 1003.39 401.85 1179.64 394.46 1073.89 494.49 1025.32 597.31 1183.33 590.22
00003702 00000057 927.33 182.38 403.25 565.27 1000.99 406.97 1178.84 397.46 1070.53 510.78 1028.06 607.17 1184.75 598.34
00003703 00000058 929.84 190.56 398.97 559.88 1000.99 408.00 1181.24 400.87 1070.93 520.82 1028.02 614.47 1180.85 608.11
00003704 00000059 933.14 196.67 397.49 553.78 1003.02 411.87 1185.39 405.27 1073.63 527.47 1029.55 619.22 1182.08 613.58
00003705 00000060 936.61 197.71 397.84 556.84 1006.19 409.99 1188.36 403.31 1076.13 526.92 1031.06 622.11 1182.02 616.78
00003706 00000061 943.96 196.45 392.10 561.41 1009.79 410.28 1195.96 407.84 1081.68 530.51 1036.10 630.99 1178.62 628.20
00003707 00000062 946.13 197.95 392.69 557.68 1011.99 410.28 1198.89 409.13 1084.19 532.03 1037.75 631.41 1180.87 629.59
00003708 00000063 947.56 195.01 393.12 559.12 1012.26 409.90 1200.20 407.74 1085.66 530.60 1039.21 631.54 1183.78 628.84
00003709 00000064 947.44 194.51 394.63 561.21 1012.84 408.43 1201.02 405.72 1086.34 527.92 1039.98 630.51 1186.44 627.07
00003710 00000065 946.75 195.31 395.90 560.21 1012.82 406.51 1202.58 404.02 1087.14 527.14 1039.57 627.36 1187.55 623.98
00003711 00000066 946.01 193.19 395.75 563.30 1011.74 405.69 1202.12 402.94 1085.90 527.11 1037.99 626.14 1186.79 622.65
00003712 00000067 943.15 194.19 395.76 561.59 1010.41 405.31 1201.00 403.27 1085.28 527.36 1035.60 625.42 1184.72 622.47
00003713 00000068 936.82 195.70 397.68 557.40 1011.14 403.14 1196.03 397.75 1085.43 524.70 1035.45 620.71 1183.33 616.86
00003714 00000069 935.82 196.78 396.67 554.82 1008.86 404.69 1194.65 398.10 1084.62 525.44 1034.87 623.29 1181.47 618.47
00003715 00000070 933.75 197.34 397.55 553.02 1007.15 405.61 1192.50 398.69 1082.99 525.32 1034.04 623.61 1179.78 618.46
00003716 00000071 933.48 196.66 397.08 551.53 1006.28 405.81 1192.43 398.17 1082.75 524.59 1033.03 622.40 1180.82 616.49
00003717 00000072 932.66 196.10 396.96 552.23 1005.22 405.42 1191.43 398.23 1082.18 524.64 1032.23 621.76 1180.52 616.15
00003718 00000073 932.12 196.88 396.75 553.19 1005.18 405.91 1191.14 398.72 1082.48 524.97 1033.01 622.73 1180.50 617.18
00003719 00000074 932.21 196.96 396.34 554.78 1005.14 406.29 1190.51 398.73 1082.79 525.96 1034.18 624.58 1179.65 618.78
00003720 00000075 932.18 199.19 396.97 553.96 1006.27 406.35 1190.82 399.20 1083.90 526.48 1035.73 625.06 1179.11 619.79
00003721 00000076 933.01 198.95 395.84 558.36 1007.65 406.35 1192.19 399.93 1085.49 527.04 1037.47 627.76 1179.38 623.20
00003722 00000077 933.22 198.48 396.21 559.87 1008.35 405.71 1193.18 399.46 1086.50 526.77 1038.68 628.53 1180.42 624.07
00003723 00000078 939.21 197.02 392.87 560.15 1010.65 405.09 1198.97 404.56 1089.13 529.47 1039.56 632.77 1177.10 631.17
00003724 00000079 935.01 198.93 396.38 559.08 1011.02 405.46 1194.71 400.29 1088.86 529.91 1041.42 628.77 1181.77 625.13
00003725 00000080 940.64 196.36 392.08 558.44 1011.67 404.98 1199.78 405.01 1089.80 530.29 1038.55 631.23 1177.23 630.13
00003726 00000081 936.69 200.02 394.50 552.13 1013.28 404.47 1196.11 399.97 1090.29 529.06 1040.56 624.02 1181.49 621.05
00003727 00000082 937.08 198.72 394.57 550.35 1012.99 404.89 1196.59 399.50 1090.09 527.91 1040.17 621.48 1184.84 617.59
00003728 00000083 937.46 198.53 394.84 549.29 1013.58 404.39 1196.86 398.77 1090.73 527.00 1040.66 620.42 1185.44 616.28
00003729 00000084 937.25 198.23 395.29 552.75 1015.45 403.77 1197.95 400.13 1092.15 527.32 1041.19 621.45 1183.75 619.05
00003730 00000085 938.21 197.45 394.87 555.15 1016.95 403.70 1198.91 400.60 1094.10 527.78 1042.85 623.50 1183.32 621.56
00003731 00000086 942.74 197.23 391.73 554.99 1018.80 403.67 1205.72 405.13 1098.70 528.51 1043.73 627.62 1178.76 627.84
00003732 00000087 943.98 197.26 391.14 554.12 1020.29 404.26 1207.95 404.55 1102.00 527.86 1045.67 628.63 1181.90 627.81
00003733 00000088 944.75 195.50 391.53 555.85 1021.13 403.65 1211.13 403.36 1104.52 527.50 1047.55 630.07 1184.70 628.63
00003734 00000089 946.06 194.42 393.38 560.00 1022.11 402.73 1214.90 401.41 1107.60 526.16 1050.45 632.41 1187.77 630.16
00003735 00000090 946.42 194.15 395.07 563.83 1023.49 401.47 1217.66 398.61 1111.41 525.05 1052.55 633.73 1188.88 630.39
00003736 00000091 947.54 191.36 394.35 564.97 1026.26 398.61 1220.07 395.37 1116.42 521.23 1054.56 631.29 1189.68 628.00
00003737 00000092 945.13 183.81 394.35 567.04 1030.57 394.69 1214.62 390.93 1116.26 512.72 1059.33 622.96 1194.38 620.06
00003738 00000093 943.56 176.16 396.19 572.42 1031.03 389.68 1214.40 385.89 1117.26 505.46 1059.05 619.01 1192.15 615.91
00003739 00000094 942.23 169.56 393.43 578.02 1031.96 384.51 1215.72 378.74 1121.55 502.40 1061.70 617.13 1192.68 612.21
00003740 00000095 941.95 165.35 391.55 579.24 1033.25 380.65 1216.53 374.92 1125.53 496.89 1063.05 614.15 1192.54 609.19
00003741 00000096 940.95 161.83 391.37 581.14 1032.74 374.84 1215.81 369.77 1125.69 490.91 1062.49 610.87 1191.39 606.46
00003742 00000097 940.66 158.78 390.02 580.43 1032.66 368.68 1216.06 363.93 1128.18 486.12 1065.24 607.01 1193.19 602.48
00003743 00000098 938.54 156.87 390.07 576.63 1031.44 361.58 1218.38 358.88 1129.55 479.74 1063.34 600.22 1193.26 597.18
00003744 00000099 937.47 154.89 389.73 570.93 1032.38 356.02 1220.55 356.91 1130.91 472.34 1060.21 592.97 1190.36 593.08
00003745 00000100 935.08 151.75 390.24 571.00 1030.14 352.60 1219.53 352.38 1131.53 467.71 1060.69 588.97 1192.95 587.92
00003746 00000101 933.40 151.55 389.80 564.37 1028.50 349.97 1218.46 350.24 1130.17 465.25 1058.04 585.21 1191.49 584.55
00003747 00000102 931.40 151.61 389.12 558.31 1026.66 348.12 1216.39 347.50 1128.44 462.14 1056.00 581.23 1190.99 579.71
00003748 00000103 929.86 149.48 389.46 559.34 1024.81 347.13 1214.07 345.40 1127.06 459.84 1054.44 579.54 1190.37 577.09
00003749 00000104 928.24 149.75 390.10 559.71 1023.54 346.64 1212.83 344.18 1126.81 458.44 1053.23 579.18 1189.65 576.18
00003750 00000105 926.51 148.41 390.53 561.20 1021.71 345.77 1211.65 343.83 1125.23 456.94 1050.90 578.90 1188.35 576.32
00003751 00000106 924.14 148.79 391.71 561.73 1019.58 345.50 1209.74 343.45 1124.02 456.71 1049.56 578.30 1187.79 575.68
00003752 00000107 922.59 148.96 392.73 563.23 1018.34 345.91 1208.78 343.60 1123.17 456.85 1048.60 578.11 1187.80 575.27
00003753 00000108 921.48 150.09 391.30 559.54 1016.69 346.70 1207.05 345.20 1120.84 459.01 1046.77 578.76 1186.07 576.60
00003754 00000109 919.70 153.26 390.24 557.15 1014.76 348.32 1204.94 347.01 1118.95 461.37 1045.58 579.36 1184.59 577.39
00003755 00000110 917.39 155.91 390.02 555.97 1012.84 350.05 1203.41 349.84 1117.84 463.77 1043.77 580.90 1182.58 579.93
00003756 00000111 917.51 156.72 389.04 559.36 1009.87 355.20 1200.74 354.89 1113.60 471.00 1039.42 584.94 1180.02 584.39
00003757 00000112 917.41 159.19 388.48 560.97 1007.22 361.45 1201.60 360.32 1110.63 481.61 1036.47 591.45 1182.34 590.04
00003758 00000113 914.94 161.45 390.80 563.71 1004.73 366.89 1201.06 364.81 1108.35 483.28 1033.97 594.28 1184.47 592.07
00003759 00000114 913.03 162.38 392.61 566.16 1002.62 373.43 1200.33 370.33 1107.25 488.29 1032.66 598.48 1186.85 595.18
00003760 00000115 912.04 165.97 392.41 566.71 1002.55 378.96 1199.28 373.89 1107.84 493.80 1034.68 603.81 1186.85 599.17
00003761 00000116 911.97 169.63 393.11 565.29 1003.75 382.02 1199.71 375.35 1109.28 498.46 1037.03 606.11 1187.66 600.21
00003762 00000117 913.03 170.04 393.16 565.85 1004.92 382.36 1202.17 375.73 1110.57 498.76 1037.92 606.57 1190.44 600.65
00003763 00000118 913.20 169.93 394.35 569.62 1004.41 382.04 1203.10 375.40 1110.18 497.80 1034.79 606.20 1192.64 600.27
00003764 00000119 912.37 170.92 396.34 572.02 1004.49 382.94 1204.09 376.91 1110.77 498.50 1030.22 605.78 1194.68 600.42
00003765 00000120 911.94 172.12 397.30 572.60 1004.77 384.26 1203.25 378.63 1110.02 499.33 1028.23 604.78 1195.51 599.84
00003766 00000121 911.68 171.79 398.25 575.79 1004.92 384.96 1203.33 379.19 1110.41 499.92 1027.58 605.03 1197.33 599.81
00003767 00000122 910.99 172.19 398.53 578.92 1004.52 384.20 1204.10 379.59 1109.62 501.05 1025.83 606.43 1196.06 602.05
00003768 00000123 910.81 172.21 398.74 581.28 1004.35 383.79 1204.29 379.20 1110.19 502.05 1027.53 610.06 1193.52 605.78
00003769 00000124 910.62 172.15 398.30 574.40 1004.51 383.90 1204.33 377.93 1111.31 500.72 1031.74 610.17 1191.45 604.96
00003770 00000125 912.89 169.58 394.01 566.98 1005.69 381.31 1204.36 375.69 1112.16 496.81 1035.51 605.32 1189.59 600.45
00003771 00000126 913.61 168.28 392.73 564.30 1005.76 378.55 1204.91 373.41 1112.77 492.97 1036.78 602.84 1190.52 598.17
00003772 00000127 913.92 169.24 393.11 559.80 1005.41 373.73 1204.61 369.57 1111.97 487.98 1037.97 599.33 1188.74 595.48
00003773 00000128 913.81 166.46 392.12 557.20 1006.74 369.73 1204.79 367.49 1112.32 484.24 1036.30 596.14 1185.91 593.89
00003774 00000129 916.41 163.87 389.50 553.99 1008.45 365.20 1202.81 363.11 1112.27 481.48 1037.27 591.79 1184.81 589.67
00003775 00000130 918.19 160.01 388.89 550.37 1009.05 361.06 1201.17 360.17 1111.16 476.54 1036.25 586.84 1181.84 585.54
00003776 00000131 917.61 159.23 390.08 548.94 1009.30 355.74 1202.29 355.90 1111.94 469.96 1036.36 581.92 1182.12 581.31
00003777 00000132 918.03 157.59 389.57 547.91 1012.00 352.03 1203.49 353.95 1112.66 465.43 1036.82 577.85 1182.50 578.47
00003778 00000133 917.43 158.56 391.58 548.22 1016.32 348.94 1206.55 352.83 1117.73 465.14 1038.21 575.08 1182.60 577.32
00003779 00000134 917.37 154.63 392.37 551.06 1020.56 346.92 1211.07 353.88 1122.46 464.40 1039.38 573.04 1183.99 577.71
00003780 00000135 918.50 150.55 393.80 551.60 1026.37 343.89 1219.05 356.21 1128.94 464.36 1041.88 571.40 1185.86 580.10
00003781 00000136 919.07 149.97 395.76 554.09 1031.69 343.64 1225.97 358.68 1136.35 464.12 1043.41 572.35 1187.85 583.44
00003782 00000137 921.32 157.87 395.70 551.38 1039.72 344.14 1233.96 364.24 1144.34 464.02 1042.71 571.17 1191.03 587.17
00003783 00000138 919.26 162.56 402.69 553.45 1046.05 345.34 1240.68 367.90 1152.78 466.96 1043.24 572.44 1194.87 590.93
00003784 00000139 919.86 159.78 407.40 562.86 1052.99 349.16 1247.80 374.73 1161.59 471.56 1046.99 575.37 1201.01 596.61
00003785 00000140 919.34 164.67 412.70 561.85 1057.98 351.72 1250.68 375.87 1166.96 476.14 1052.70 578.23 1202.50 598.35
00003786 00000141 918.24 167.23 416.10 558.77 1059.90 356.23 1253.46 379.83 1170.59 480.43 1054.89 579.78 1207.12 599.55
00003787 00000142 918.53 164.82 418.22 562.61 1061.02 360.35 1253.65 383.85 1171.10 482.99 1056.41 582.40 1207.52 601.94
00003788 00000143 917.53 167.38 421.62 564.11 1060.42 362.84 1254.98 385.49 1171.28 486.06 1058.87 586.90 1209.08 605.48
00003789 00000144 915.86 167.43 423.62 571.33 1060.86 367.21 1256.40 390.73 1174.19 490.07 1060.01 593.12 1209.90 612.64
00003790 00000145 915.94 169.54 422.32 572.04 1059.27 372.84 1257.51 393.95 1177.34 493.45 1062.23 599.39 1214.25 616.98
00003791 00000146 918.18 170.44 421.33 570.69 1059.92 375.56 1257.35 395.24 1177.22 494.78 1066.62 602.02 1215.10 618.29
00003792 00000147 918.99 169.80 420.12 570.68 1060.02 378.30 1256.72 396.67 1176.16 496.34 1069.06 603.91 1215.70 619.14
00003793 00000148 918.77 168.65 420.40 572.19 1059.92 379.59 1256.62 397.96 1176.15 498.26 1069.67 605.60 1216.33 620.79
00003794 00000149 921.03 170.37 418.07 570.71 1060.66 381.74 1256.97 398.55 1177.18 500.11 1072.83 607.89 1217.83 622.01
00003795 00000150 921.90 174.02 416.60 568.11 1060.51 383.70 1257.56 399.63 1177.52 501.55 1074.78 609.47 1220.08 622.96
00003796 00000151 923.52 175.69 414.47 567.36 1061.34 384.81 1258.69 400.56 1178.91 502.99 1076.72 611.54 1221.25 625.14
00003797 00000152 924.55 175.80 413.75 567.53 1062.07 385.90 1259.61 401.34 1179.93 503.83 1077.71 612.22 1222.48 625.58
00003798 00000153 925.55 175.97 413.55 567.36 1062.20 386.00 1259.96 401.48 1179.94 503.79 1078.01 612.47 1223.03 625.89
00003799 00000154 926.39 185.11 412.26 557.01 1062.73 382.63 1259.66 400.58 1182.34 512.81 1070.96 611.62 1218.06 626.12
00003800 00000155 928.50 185.73 410.87 557.90 1063.84 384.89 1260.34 401.38 1183.24 513.37 1072.38 612.71 1219.57 626.40
00003801 00000156 930.14 187.44 410.07 557.20 1064.97 386.63 1261.19 402.01 1184.04 514.20 1073.98 613.95 1220.52 626.97
00003802 00000157 931.51 187.81 409.51 558.16 1066.25 387.62 1261.52 402.40 1185.51 515.06 1076.00 615.02 1221.38 627.58
00003803 00000158 933.98 189.17 407.86 557.69 1067.69 388.51 1263.11 403.48 1186.92 517.16 1077.37 616.02 1222.65 629.01
00003804 00000159 935.36 189.89 407.60 558.74 1068.80 389.74 1263.83 404.42 1187.51 518.56 1077.04 617.48 1222.40 630.43
00003805 00000160 937.40 191.76 405.75 558.55 1069.57 390.76 1264.24 405.34 1188.02 519.89 1077.97 618.79 1223.40 631.73
00003806 00000161 938.73 193.66 404.71 558.19 1070.72 391.52 1265.42 405.59 1189.53 520.68 1078.78 620.24 1224.61 632.91
00003807 00000162 940.88 196.43 402.42 556.27 1072.45 392.98 1267.08 406.86 1191.73 522.76 1080.78 621.80 1226.35 634.66
00003808 00000163 942.77 198.53 402.01 555.70 1074.50 394.74 1268.41 407.71 1193.99 524.78 1082.52 623.64 1227.79 636.01
