Video ID: 	OXcWCECBuRg
H: 	1080
W: 	1920
FPS: 	23.976025399624174

FRAME INDEX X0 Y0 W H [Landmarks (5 Points)]

00002678 00000000 713.25 127.89 373.18 538.08 807.10 346.85 972.32 345.42 892.31 469.46 836.84 538.50 969.33 538.61
00002679 DELETE   708.63 126.50 377.99 541.21 803.05 346.58 968.78 346.26 887.20 470.78 834.02 540.89 965.45 541.61
00002680 00000002 702.59 128.63 380.78 540.57 798.15 347.01 962.88 348.00 880.93 471.53 829.66 541.88 960.37 543.55
00002681 00000003 697.22 133.08 384.11 536.95 793.89 348.03 959.12 349.66 876.53 471.81 823.29 541.29 956.74 543.19
00002682 00000004 695.19 133.30 383.39 533.48 790.87 349.64 955.76 351.40 872.52 471.70 820.20 539.11 955.15 540.93
00002683 00000005 693.23 134.71 383.73 531.34 788.06 349.58 955.19 351.49 869.30 471.74 815.16 536.98 954.61 538.97
00002684 00000006 693.85 136.69 382.45 534.14 785.98 349.83 952.96 352.06 865.21 470.88 810.73 535.90 953.98 538.17
00002685 00000007 700.51 136.82 378.00 535.10 779.76 346.79 947.76 346.04 862.75 477.57 810.60 540.01 956.93 537.58
00002686 00000008 695.33 137.07 381.12 531.29 786.17 350.82 953.45 353.12 864.95 471.49 810.60 535.47 955.06 537.69
00002687 00000009 696.66 137.00 381.91 529.96 787.84 350.11 954.52 352.38 866.34 472.29 813.79 535.58 956.98 537.82
00002688 00000010 697.69 139.36 383.57 531.44 791.11 350.13 955.87 352.58 868.84 472.67 816.03 535.44 958.68 537.85
00002689 00000011 699.11 139.61 384.94 532.74 792.66 348.85 956.53 351.63 869.47 472.82 818.25 535.93 958.93 538.80
00002690 00000012 701.05 138.88 384.36 534.50 793.38 348.08 957.56 351.31 869.40 472.25 818.51 536.24 959.37 539.47
00002691 00000013 700.76 139.01 384.80 533.82 793.76 347.94 957.77 350.76 870.19 471.74 819.41 536.66 959.09 539.63
00002692 00000014 700.90 137.88 384.89 535.90 794.09 347.60 957.22 350.39 870.56 471.85 820.57 537.59 958.52 540.57
00002693 00000015 700.55 138.04 384.42 533.64 794.47 347.33 958.37 349.59 872.51 471.14 822.31 538.26 958.47 540.87
00002694 00000016 700.09 137.24 384.47 536.47 794.57 346.64 957.13 349.42 872.62 470.40 822.48 540.13 955.43 543.29
00002695 00000017 700.25 136.31 383.63 534.05 794.90 346.43 957.26 349.17 873.20 470.27 824.21 540.74 953.86 543.83
00002696 00000018 698.02 135.99 384.67 536.12 794.26 345.73 957.23 348.88 873.39 470.42 822.87 541.25 953.31 544.63
00002697 00000019 698.03 135.60 383.35 535.52 794.19 345.36 956.94 348.85 873.67 469.88 823.37 540.71 953.53 544.33
00002698 00000020 698.82 134.30 381.60 535.60 794.41 344.13 956.78 347.68 874.69 468.75 823.06 540.30 952.94 543.96
00002699 00000021 699.31 133.79 380.91 537.00 795.71 343.36 959.15 347.23 876.03 468.45 822.61 539.43 954.10 543.52
00002700 00000022 699.10 132.22 381.84 537.03 797.21 342.60 961.02 345.85 878.69 467.53 824.55 538.78 955.13 542.41
00002701 00000023 699.31 130.32 382.44 537.71 798.33 341.33 962.81 343.87 880.27 467.50 825.88 536.41 958.74 539.37
00002702 00000024 699.73 130.16 382.16 534.39 799.20 340.81 964.46 342.44 882.21 465.81 826.54 534.82 960.12 536.97
00002703 00000025 702.83 129.19 378.53 532.30 800.08 340.03 965.28 341.06 882.88 464.27 826.56 532.66 961.94 534.43
00002704 00000026 705.76 125.36 375.93 534.65 801.41 339.31 967.10 340.63 883.58 463.08 825.71 530.88 962.53 532.98
00002705 00000027 709.88 124.00 371.83 538.72 804.28 337.90 968.54 340.00 885.64 460.31 827.05 529.53 963.73 532.18
00002706 00000028 716.27 119.19 365.93 549.27 811.00 332.72 971.27 335.56 889.97 456.17 832.09 527.93 965.29 531.42
00002707 00000029 721.99 114.93 361.49 548.39 820.26 324.24 980.24 325.79 902.24 444.97 837.22 520.69 973.57 523.32
00002708 DELETE   728.47 107.54 358.67 545.03 827.29 314.23 988.80 312.78 912.70 431.54 846.12 511.41 982.69 511.38
00002709 DELETE   734.83 102.05 357.60 534.12 840.28 299.81 997.10 302.23 927.03 413.56 854.30 494.09 985.60 497.21
00002710 00000032 735.91 96.19 361.38 535.99 844.80 287.48 1005.09 293.08 936.01 398.35 858.69 486.18 989.88 491.58
00002711 00000033 735.97 90.47 362.25 531.93 846.42 281.10 1008.14 286.51 939.99 390.81 861.06 479.90 990.77 485.00
00002712 00000034 740.37 90.28 359.43 527.00 849.35 279.70 1010.47 283.72 943.63 387.02 863.21 475.65 995.06 479.76
00002713 00000035 741.25 87.81 361.08 526.33 849.57 280.13 1014.03 283.39 946.35 380.82 865.17 473.08 1005.19 476.13
00002714 00000036 745.03 89.07 358.52 520.13 852.45 280.81 1020.17 284.85 951.44 380.89 866.16 469.87 1013.99 473.92
00002715 00000037 745.61 91.21 360.57 515.25 855.62 281.13 1025.01 285.11 956.99 380.62 868.64 468.66 1017.99 473.02
00002716 00000038 747.75 91.50 359.89 513.67 857.61 281.62 1026.43 285.01 959.37 379.75 872.57 469.82 1018.21 473.62
00002717 00000039 748.37 93.91 358.78 511.64 858.87 281.03 1027.03 284.12 961.00 377.27 874.95 470.39 1018.59 474.03
00002718 00000040 749.28 93.85 357.33 509.17 859.51 282.36 1029.32 285.14 963.08 377.01 875.76 470.60 1020.78 474.09
00002719 00000041 749.41 96.14 357.14 504.91 861.01 281.65 1031.17 284.56 966.33 376.51 877.17 468.94 1023.32 472.67
00002720 00000042 750.16 96.21 358.27 511.14 863.42 279.58 1030.01 282.26 968.74 374.60 880.50 468.73 1023.26 471.73
00002721 00000043 750.16 97.47 357.11 508.76 864.96 277.86 1027.57 281.13 969.21 374.51 883.42 469.56 1015.46 473.07
00002722 00000044 750.51 98.05 357.22 509.75 866.07 277.95 1027.38 281.47 970.36 374.51 884.55 470.18 1015.06 473.97
00002723 00000045 750.62 98.28 357.37 509.85 867.09 277.65 1028.26 281.44 971.30 375.28 885.08 470.88 1014.42 474.85
00002724 00000046 751.42 100.43 356.14 506.82 868.21 277.85 1029.23 281.38 972.89 375.72 885.91 471.90 1013.43 475.85
00002725 00000047 751.81 99.61 356.60 511.99 871.62 278.23 1030.51 282.45 975.72 377.79 887.75 474.36 1013.12 478.99
00002726 00000048 753.20 100.32 355.59 513.95 875.39 277.60 1031.99 283.74 978.27 380.45 889.69 475.21 1012.76 481.56
00002727 00000049 754.10 96.67 358.29 521.94 878.22 280.84 1033.94 287.20 982.34 381.11 891.47 476.17 1019.26 482.65
00002728 00000050 758.08 100.42 355.63 513.68 884.58 283.58 1040.21 290.58 986.79 382.54 894.28 476.58 1021.98 484.36
00002729 00000051 759.37 100.46 356.72 515.64 889.52 283.42 1044.05 291.63 991.81 382.58 897.82 476.59 1025.56 485.38
00002730 00000052 762.78 102.46 353.99 513.86 894.56 282.38 1050.83 293.12 998.05 383.62 900.78 476.66 1029.00 487.50
00002731 00000053 766.10 105.23 352.17 509.62 904.46 279.16 1059.05 293.46 1008.44 381.91 905.38 472.99 1033.13 486.98
00002732 00000054 767.44 103.85 352.72 506.45 910.77 277.79 1066.20 291.05 1017.75 382.59 909.46 471.44 1038.58 484.79
00002733 00000055 769.20 107.46 353.49 503.27 917.56 277.97 1067.37 290.99 1024.17 380.05 916.04 468.71 1042.13 481.80
00002734 00000056 772.37 105.91 351.21 502.00 919.78 277.17 1069.72 290.52 1026.99 377.14 920.05 468.00 1044.34 481.30
00002735 00000057 773.08 105.15 351.49 500.75 921.84 277.81 1071.30 290.74 1029.26 377.45 921.72 467.36 1045.91 480.40
00002736 00000058 772.94 106.14 351.80 498.02 922.74 277.95 1072.91 290.93 1031.08 378.00 923.58 467.51 1047.17 480.55
00002737 00000059 765.40 102.25 356.46 502.33 921.74 275.12 1071.30 291.05 1026.98 384.20 925.88 462.60 1049.64 477.74
00002738 00000060 766.46 103.30 355.58 500.57 921.05 276.21 1071.00 291.47 1026.76 384.46 925.57 463.61 1050.28 478.11
00002739 00000061 773.14 106.53 352.56 498.95 925.72 278.04 1074.28 291.62 1033.36 378.52 926.78 468.23 1048.44 481.49
00002740 00000062 773.44 105.76 352.34 500.66 925.85 277.72 1074.80 292.03 1033.56 378.52 926.13 468.49 1048.43 482.44
00002741 00000063 772.91 108.64 351.99 501.50 926.66 277.34 1073.06 292.53 1032.18 378.45 923.45 468.76 1044.63 483.70
00002742 00000064 771.99 111.35 351.72 503.56 928.50 278.09 1070.70 294.69 1030.46 380.35 921.81 469.29 1040.50 485.77
00002743 00000065 771.78 108.85 350.02 499.51 927.39 273.17 1072.24 287.93 1024.92 384.05 923.72 466.53 1037.88 479.31
00002744 00000066 771.84 107.58 350.23 499.19 929.78 275.20 1074.17 288.79 1029.28 386.47 927.02 469.11 1041.19 481.04
00002745 00000067 770.46 108.35 352.20 497.23 932.41 279.57 1074.81 291.53 1032.37 389.01 929.42 470.99 1045.10 481.67
00002746 00000068 772.83 109.19 351.26 494.50 925.91 285.84 1071.62 301.55 1027.46 389.17 926.99 471.91 1048.67 485.33
00002747 00000069 773.78 108.70 350.52 491.88 923.86 287.37 1072.22 302.94 1026.65 390.41 927.74 475.95 1049.27 488.48
00002748 00000070 773.66 108.11 351.30 493.62 924.22 288.92 1072.46 303.38 1027.59 392.98 928.41 477.79 1049.91 489.55
00002749 00000071 773.58 107.15 351.39 498.79 924.72 289.39 1072.32 304.62 1026.53 393.86 928.33 477.53 1049.02 489.93
00002750 00000072 771.37 110.59 352.11 505.19 931.63 287.54 1078.47 298.33 1032.56 396.69 930.02 481.05 1047.72 490.68
00002751 00000073 770.61 115.06 354.45 505.60 932.67 288.77 1080.02 301.38 1033.09 397.64 930.39 482.29 1048.73 493.27
00002752 00000074 770.83 115.23 353.66 505.54 933.33 291.05 1079.77 303.31 1035.46 397.70 931.88 483.17 1051.28 494.04
00002753 00000075 770.26 115.39 353.74 504.96 932.55 293.30 1079.42 305.69 1035.58 399.47 931.17 484.89 1051.63 495.93
00002754 00000076 771.11 115.68 353.83 505.23 932.73 294.04 1079.55 305.29 1036.06 400.52 932.09 485.92 1052.45 496.14
00002755 00000077 770.91 117.44 354.49 504.76 933.05 294.87 1080.16 306.29 1036.37 402.00 931.74 486.90 1052.85 497.28
00002756 00000078 769.94 117.42 356.26 507.31 932.66 294.97 1079.78 307.08 1035.42 402.56 930.52 487.73 1051.30 498.63
00002757 00000079 768.95 118.46 357.08 506.84 932.49 296.23 1079.67 308.87 1035.18 403.52 930.22 488.55 1051.32 499.76
00002758 00000080 767.67 118.47 358.32 509.68 931.92 296.12 1078.77 309.44 1034.46 403.80 929.71 488.72 1050.97 500.50
00002759 00000081 767.35 117.70 358.52 509.50 931.94 296.57 1079.01 309.75 1034.42 404.45 929.26 488.93 1050.69 500.53
00002760 00000082 766.80 117.47 359.76 511.94 932.13 296.40 1078.73 310.10 1033.46 404.66 929.78 489.66 1050.00 501.66
00002761 00000083 767.39 117.87 360.05 512.46 933.05 295.96 1078.64 309.54 1033.65 404.78 930.52 489.35 1050.08 501.27
00002762 00000084 768.92 117.94 359.10 515.26 934.21 294.34 1078.54 308.22 1033.90 403.66 931.90 488.51 1049.39 500.81
00002763 00000085 767.80 118.12 359.57 517.00 934.06 293.59 1077.08 307.22 1033.48 403.11 933.13 488.66 1048.30 500.70
00002764 00000086 768.07 117.30 358.08 516.50 932.15 293.06 1075.36 307.25 1031.64 402.65 931.39 488.65 1046.54 501.12
00002765 00000087 766.20 119.38 358.89 516.49 929.85 293.43 1074.76 308.44 1029.82 403.18 929.81 488.66 1046.65 501.77
00002766 00000088 766.88 117.45 358.29 515.69 928.08 293.08 1074.45 307.86 1027.44 403.10 928.19 488.29 1045.45 501.19
00002767 00000089 766.22 118.27 358.69 516.01 927.00 292.94 1073.44 308.99 1026.61 403.15 926.19 487.76 1045.34 501.72
00002768 00000090 766.19 117.06 358.42 515.41 926.27 294.14 1073.10 309.17 1025.59 404.14 925.59 488.88 1044.53 502.05
00002769 00000091 765.46 117.87 358.75 515.18 926.16 294.71 1072.78 309.78 1025.56 404.83 925.51 489.30 1044.73 502.47
00002770 00000092 765.28 118.26 358.96 514.67 925.84 294.78 1072.75 309.32 1024.72 405.49 925.54 490.04 1044.02 502.74
00002771 00000093 764.92 117.70 357.82 515.29 924.66 295.23 1071.70 309.57 1024.48 405.22 925.11 491.11 1043.94 503.65
00002772 00000094 764.49 119.30 357.52 513.15 924.22 296.05 1071.17 310.34 1023.76 405.56 924.14 491.32 1042.96 503.84
00002773 00000095 764.26 118.51 357.38 511.98 923.78 296.18 1070.43 309.63 1023.48 405.07 924.38 490.95 1042.99 502.80
00002774 00000096 763.88 119.59 357.23 510.92 922.66 295.41 1069.32 308.38 1022.19 405.33 923.54 490.91 1041.70 502.40
00002775 00000097 762.61 118.17 358.07 513.18 921.38 294.69 1067.82 308.07 1020.74 405.09 922.72 491.22 1039.94 503.04
00002776 00000098 765.44 120.97 355.87 511.75 919.28 300.05 1066.04 313.45 1022.37 405.54 921.03 493.10 1042.49 506.48
00002777 00000099 763.31 117.21 356.80 514.90 909.95 298.68 1059.75 311.34 1013.24 402.65 914.02 492.24 1037.89 504.89
00002778 00000100 759.67 112.68 360.59 514.91 895.58 295.73 1052.68 309.95 998.00 395.71 902.34 488.86 1030.97 502.04
00002779 00000101 757.24 109.93 359.85 520.41 889.35 290.35 1043.85 305.58 987.42 394.48 891.67 484.56 1021.71 498.41
00002780 00000102 755.17 108.48 358.35 517.61 884.96 284.26 1040.82 300.33 981.39 391.68 886.62 481.57 1014.15 495.96
00002781 00000103 756.73 104.19 356.76 515.77 886.98 282.15 1043.46 297.74 985.81 387.42 891.11 479.29 1017.33 493.43
00002782 00000104 757.88 103.76 355.37 513.01 892.87 279.52 1049.77 294.30 995.86 383.70 898.88 477.17 1025.47 490.82
00002783 00000105 760.84 103.46 351.35 508.23 899.51 277.74 1058.43 292.47 1007.12 380.88 906.12 475.06 1033.23 488.88
00002784 00000106 763.19 102.48 349.89 503.45 902.42 279.54 1063.41 292.51 1014.58 380.66 910.96 473.48 1040.73 486.24
00002785 00000107 764.60 102.78 350.73 505.29 909.61 281.71 1067.98 292.61 1023.41 382.24 916.86 475.59 1046.11 486.96
00002786 00000108 765.95 105.17 351.70 506.10 916.35 283.00 1069.17 293.80 1027.96 380.40 924.68 478.49 1046.79 489.50
00002787 00000109 766.94 108.94 350.44 505.89 917.58 284.72 1068.45 295.76 1025.90 387.98 923.31 480.55 1043.34 491.94
00002788 00000110 765.15 110.34 352.51 507.59 912.71 286.54 1067.37 299.22 1022.47 389.15 917.19 480.75 1044.19 493.46
00002789 00000111 764.88 107.80 353.23 509.30 907.83 289.17 1066.55 302.57 1017.58 391.01 912.79 481.33 1044.19 494.52
00002790 00000112 765.18 111.75 352.90 507.43 907.08 291.11 1065.21 306.14 1013.74 395.20 909.89 481.33 1043.29 495.95
00002791 00000113 765.95 109.55 352.51 507.97 906.31 291.61 1065.70 308.13 1012.35 396.63 908.95 482.67 1041.12 498.63
00002792 00000114 765.21 112.16 355.37 509.69 910.25 294.98 1067.08 310.81 1015.67 401.13 911.31 484.83 1043.84 500.35
00002793 00000115 765.87 112.39 357.02 512.74 916.29 297.52 1070.41 313.58 1020.88 405.05 915.50 487.32 1046.23 503.12
00002794 00000116 765.79 112.18 358.73 517.59 920.62 297.93 1073.27 314.83 1025.14 406.52 919.00 489.51 1049.05 505.70
00002795 00000117 761.33 111.19 361.13 519.77 921.25 289.88 1070.25 306.24 1021.32 403.31 921.16 487.44 1040.96 501.65
00002796 00000118 761.19 111.70 360.44 518.34 918.89 289.59 1067.97 306.04 1017.57 404.45 916.62 487.77 1036.66 502.21
00002797 00000119 762.53 117.77 357.32 515.20 915.47 293.90 1063.42 312.02 1016.01 404.79 911.50 486.83 1037.52 504.35
00002798 00000120 761.43 116.33 358.81 518.64 913.93 293.18 1062.21 312.15 1015.24 402.98 909.49 486.49 1036.33 504.71
00002799 00000121 762.30 118.50 358.03 516.05 917.53 293.92 1064.54 312.08 1019.65 402.35 912.56 486.06 1038.57 503.75
00002800 00000122 763.28 119.18 359.12 516.69 922.92 295.10 1068.61 311.39 1026.86 402.00 919.05 487.68 1044.38 503.64
00002801 00000123 763.04 118.87 360.17 515.86 923.52 296.50 1069.52 311.62 1028.66 402.30 921.54 489.00 1046.48 503.88
00002802 00000124 762.76 119.09 358.35 513.02 921.94 298.86 1069.89 313.15 1028.52 404.68 921.23 489.63 1047.97 503.92
00002803 00000125 760.89 119.85 357.15 512.62 916.86 300.50 1067.58 315.33 1023.44 407.89 916.69 490.44 1045.86 505.16
00002804 00000126 757.75 123.92 358.95 507.17 908.63 300.81 1063.56 317.41 1013.92 407.16 909.78 490.62 1040.06 506.45
00002805 00000127 755.43 122.65 359.81 508.86 901.75 301.03 1059.93 318.67 1006.84 408.86 905.45 493.16 1035.28 509.35
00002806 00000128 753.75 123.40 359.25 505.83 897.81 300.11 1057.83 317.91 1002.88 407.95 901.58 491.30 1032.67 507.55
00002807 00000129 755.86 122.95 355.90 505.30 901.83 301.90 1061.00 319.45 1009.08 408.54 906.67 493.85 1034.70 510.10
00002808 00000130 758.23 124.16 354.33 506.36 909.06 304.97 1064.49 318.66 1018.96 411.42 913.91 495.20 1041.36 508.68
00002809 00000131 758.35 123.53 353.92 506.10 910.09 304.77 1065.11 318.41 1020.38 410.90 915.45 495.18 1041.97 508.56
00002810 00000132 754.92 123.79 353.96 504.96 905.20 303.27 1061.00 319.16 1015.07 409.23 910.30 492.99 1037.04 507.98
00002811 00000133 751.19 123.82 355.05 501.49 894.80 300.16 1055.63 318.54 1001.22 408.02 901.48 492.62 1027.29 509.07
00002812 00000134 748.44 122.25 356.89 503.77 892.50 301.13 1053.62 320.10 999.39 410.23 898.86 494.38 1023.84 511.45
00002813 00000135 749.66 122.20 355.03 504.51 896.61 304.02 1056.16 324.20 1003.39 414.39 902.58 497.19 1024.25 515.20
00002814 00000136 752.83 118.52 357.38 510.32 901.02 314.75 1060.88 334.40 1010.71 424.63 907.46 505.01 1030.99 522.65
00002815 00000137 755.26 121.47 360.56 512.84 904.48 320.80 1064.91 335.87 1017.54 435.01 911.91 510.38 1038.68 524.52
00002816 00000138 754.32 132.58 359.01 501.17 902.03 322.30 1062.45 341.58 1010.26 441.94 906.96 514.05 1026.52 531.54
00002817 00000139 750.42 136.77 364.12 505.06 898.99 323.85 1059.27 347.05 1003.72 445.90 901.08 517.91 1020.60 538.26
00002818 00000140 747.98 134.38 364.74 507.86 895.99 323.34 1056.56 345.51 1001.90 443.94 897.31 515.81 1019.33 535.76
00002819 00000141 745.91 126.84 365.29 513.10 894.62 317.71 1050.54 337.80 997.26 436.44 897.77 510.84 1015.28 528.82
00002820 00000142 745.84 124.92 364.78 514.55 895.53 310.91 1048.90 332.07 994.92 429.23 896.96 505.69 1012.47 524.54
00002821 00000143 749.42 122.66 361.69 511.54 901.87 305.95 1054.91 331.44 1002.42 424.98 900.92 502.34 1015.68 524.99
00002822 00000144 757.47 119.49 361.22 514.30 911.38 307.85 1065.69 332.08 1015.92 423.52 910.65 502.11 1032.34 524.07
00002823 00000145 761.10 125.68 359.70 508.66 921.44 307.46 1072.69 333.78 1025.20 420.63 915.75 498.92 1038.35 522.83
00002824 00000146 758.12 126.72 362.14 506.44 918.40 305.20 1070.30 334.10 1020.62 420.04 911.54 497.00 1034.20 522.86
00002825 00000147 755.93 125.54 364.42 507.66 914.91 303.05 1069.71 335.34 1015.41 419.40 904.89 495.10 1030.53 523.87
00002826 00000148 756.08 125.03 363.29 507.60 912.79 303.50 1068.62 334.38 1013.98 420.03 905.23 496.72 1029.44 524.26
00002827 00000149 754.78 125.56 363.53 508.50 911.19 305.11 1066.59 334.41 1013.01 421.17 905.75 498.15 1029.22 524.23
00002828 00000150 754.47 126.96 363.05 505.22 907.66 308.13 1065.99 336.37 1011.47 424.06 905.38 501.54 1028.81 526.51
00002829 00000151 755.01 126.13 362.77 502.98 906.15 309.99 1066.89 336.75 1011.15 425.85 905.73 503.31 1029.76 526.93
00002830 00000152 755.57 125.27 362.60 504.09 906.37 310.41 1066.78 336.46 1010.98 426.27 906.26 502.91 1031.16 525.93
00002831 00000153 755.99 127.19 362.35 502.95 905.97 311.61 1066.34 336.57 1010.97 426.81 905.79 503.32 1031.78 525.57
00002832 00000154 755.55 127.01 362.43 504.58 905.57 312.07 1066.16 336.02 1011.75 426.69 906.84 503.68 1032.83 525.00
00002833 00000155 754.87 126.48 362.67 505.08 904.67 312.68 1065.68 335.27 1011.98 427.64 906.60 503.73 1033.23 524.03
00002834 00000156 755.55 126.55 361.98 505.41 904.35 312.08 1065.71 333.55 1011.73 427.74 907.44 504.81 1033.83 524.19
00002835 00000157 754.84 126.94 360.46 505.16 902.91 312.22 1064.43 333.00 1010.68 426.41 906.79 504.22 1033.73 523.11
00002836 00000158 753.04 124.47 359.30 506.45 902.24 308.33 1063.82 330.18 1009.89 424.51 906.00 503.49 1030.72 523.18
00002837 00000159 752.39 122.53 357.77 504.51 901.37 303.23 1062.95 326.50 1007.15 421.64 904.17 500.34 1027.10 520.94
00002838 00000160 751.78 121.01 357.08 506.57 898.74 301.67 1060.53 323.55 1004.99 418.70 902.94 499.31 1027.10 518.72
00002839 00000161 750.07 118.26 358.21 508.68 895.66 301.82 1058.23 322.70 1002.31 419.71 900.53 499.76 1024.95 518.35
00002840 00000162 749.65 116.92 359.48 512.44 896.08 301.37 1058.02 323.09 1002.60 420.79 900.23 500.52 1024.27 519.82
00002841 00000163 750.81 116.68 359.01 512.75 896.79 302.32 1058.37 323.33 1003.46 420.09 900.87 499.33 1026.67 518.13
00002842 00000164 750.50 116.61 358.79 511.10 897.33 300.96 1058.37 321.91 1003.84 416.62 900.92 497.38 1026.24 516.08
CROP_BBOX: 503 0 1337 802
