Video ID: 	eT0H-0BeTCo
H: 	1080
W: 	1920
FPS: 	25.0

FRAME INDEX X0 Y0 W H [Landmarks (5 Points)]

00006146 00000000 550.77 224.54 416.50 533.36 710.56 396.49 882.87 423.83 803.58 526.00 696.69 583.71 848.36 605.89
00006147 00000001 549.61 220.12 420.14 538.94 707.73 395.96 884.88 424.91 802.80 521.11 695.06 583.95 850.61 607.41
00006148 00000002 549.91 219.22 419.94 530.56 710.80 391.81 887.37 421.32 806.12 517.80 697.56 579.66 849.62 603.02
00006149 DELETE   550.96 223.99 417.23 518.77 714.86 385.68 893.67 411.34 818.75 512.87 705.29 578.11 856.19 597.92
00006150 00000004 557.82 227.31 412.55 507.98 723.27 386.02 899.47 408.96 831.66 508.91 716.16 576.19 864.44 593.95
00006151 00000005 561.89 231.62 410.50 506.32 729.84 385.77 900.98 406.01 840.37 508.33 724.05 576.57 869.89 592.38
00006152 00000006 561.25 225.13 409.58 518.43 734.26 381.61 901.87 404.89 843.62 504.07 725.84 576.17 868.74 594.62
00006153 00000007 558.37 219.93 411.04 520.71 731.24 378.45 900.46 401.19 840.67 501.98 723.35 574.59 866.77 592.40
00006154 00000008 554.29 215.06 412.66 518.94 726.66 375.36 899.05 398.08 836.90 499.94 719.73 570.68 864.91 588.15
00006155 00000009 550.09 206.91 414.95 527.47 724.25 372.00 897.92 395.81 833.95 499.10 716.82 569.86 862.67 588.14
00006156 00000010 547.69 202.58 414.35 533.97 722.55 370.20 897.02 393.67 833.13 499.58 716.19 570.64 862.47 588.73
00006157 00000011 543.60 188.19 419.67 548.07 724.87 370.00 896.68 395.39 836.13 492.91 718.08 566.13 865.44 587.46
00006158 00000012 544.04 188.73 420.22 544.64 724.57 366.51 896.97 391.86 834.85 488.85 718.15 563.31 864.86 584.60
00006159 00000013 543.78 190.99 418.40 538.37 723.11 362.63 897.39 386.32 835.29 484.95 719.30 562.38 865.75 582.01
00006160 00000014 542.83 188.60 419.58 536.25 721.00 361.21 897.40 382.33 835.31 479.91 720.67 561.29 867.91 578.68
00006161 00000015 544.71 187.68 417.12 528.23 722.31 360.79 898.23 379.98 837.94 475.63 723.10 557.45 869.78 573.44
00006162 00000016 543.08 188.17 419.38 533.46 721.27 360.25 897.21 380.02 837.46 475.15 723.05 559.25 870.02 575.57
00006163 00000017 541.61 187.47 420.72 546.33 721.37 361.44 895.05 382.79 836.61 478.27 723.17 565.83 867.22 583.34
00006164 00000018 545.30 201.84 416.50 537.80 722.29 364.15 893.74 385.92 833.09 490.75 719.87 571.48 859.45 587.98
00006165 00000019 546.54 206.55 414.34 532.69 723.01 367.83 894.56 388.83 834.34 493.43 719.69 571.97 861.14 587.80
00006166 00000020 547.38 211.56 413.72 520.51 725.58 373.35 896.79 393.69 836.84 492.62 723.12 571.29 863.23 585.90
00006167 00000021 548.48 203.57 416.47 521.63 726.33 377.48 901.85 398.04 841.45 487.51 724.53 565.23 869.04 582.95
00006168 00000022 549.97 203.97 416.52 521.88 726.79 373.33 904.23 395.16 842.56 486.17 724.40 564.01 871.21 582.82
00006169 00000023 550.03 199.63 416.57 527.56 727.27 371.67 903.89 393.28 842.53 486.28 725.56 565.01 871.51 583.53
00006170 00000024 552.03 206.10 413.38 524.65 726.10 367.62 898.57 387.52 837.26 489.47 724.97 569.87 864.83 584.65
00006171 00000025 551.30 205.84 414.11 527.23 725.49 366.19 897.98 386.21 836.21 489.58 724.36 569.70 863.74 584.58
00006172 00000026 550.13 202.57 414.73 532.67 725.07 365.89 897.65 385.89 835.96 489.77 724.30 570.32 863.59 585.28
00006173 00000027 549.90 206.08 414.21 528.62 724.02 365.83 896.52 386.21 834.89 491.11 723.81 570.26 862.90 585.51
00006174 00000028 549.30 204.07 414.63 528.87 723.01 365.91 896.60 384.93 834.78 491.76 723.88 570.70 863.34 584.83
00006175 00000029 548.29 196.33 417.75 534.25 724.79 367.11 901.06 386.01 841.55 485.54 730.55 567.63 873.36 583.29
00006176 00000030 549.88 196.87 416.73 530.60 725.56 367.83 903.19 385.27 843.63 484.52 733.41 568.48 875.41 582.98
00006177 00000031 547.43 194.48 418.76 541.11 726.97 368.70 903.23 385.38 846.85 486.01 735.10 571.80 878.09 585.57
00006178 00000032 543.15 195.81 419.63 538.15 726.71 369.75 898.08 384.86 845.26 485.66 737.52 571.95 874.46 584.14
00006179 00000033 535.76 187.01 421.18 542.08 720.48 368.49 895.86 380.18 843.73 483.60 734.52 570.58 874.67 579.77
00006180 00000034 532.97 182.17 418.47 539.85 716.09 365.84 892.11 372.70 842.07 478.36 735.00 567.27 874.51 572.53
00006181 00000035 527.48 185.66 419.28 538.11 710.46 364.24 883.18 366.78 837.79 474.99 735.01 565.83 872.67 567.61
00006182 00000036 527.03 182.91 415.62 540.82 710.60 364.70 879.21 363.82 837.44 474.27 737.26 568.03 870.34 566.87
00006183 00000037 526.63 182.22 412.61 542.14 710.27 369.56 876.49 367.65 836.45 477.27 739.25 570.72 869.48 568.83
00006184 00000038 526.15 185.72 405.06 540.03 708.93 373.83 872.55 371.59 833.52 481.77 741.96 576.61 865.62 574.30
00006185 00000039 525.36 189.04 402.47 537.56 708.54 375.73 870.20 370.56 833.22 483.26 744.47 579.10 865.44 574.59
00006186 00000040 523.16 181.78 402.33 543.56 706.86 375.63 868.07 368.47 832.78 481.50 745.78 579.40 865.42 573.23
00006187 00000041 527.62 182.06 397.30 542.65 708.47 375.07 868.90 368.01 835.19 482.22 750.37 580.76 867.64 574.49
00006188 DELETE   531.03 185.52 401.64 541.37 713.64 378.53 876.03 371.06 844.09 480.61 756.11 582.97 874.84 575.99
00006189 DELETE   541.75 179.76 403.37 542.01 722.61 382.31 890.33 373.76 856.82 481.30 765.02 584.44 886.77 576.35
00006190 DELETE   560.84 188.99 399.26 529.38 742.05 383.65 911.17 372.03 882.26 480.67 778.18 583.23 908.07 572.85
00006191 00000045 574.55 194.09 398.27 531.61 757.49 382.49 928.24 372.83 901.35 481.99 787.06 587.27 922.57 578.53
00006192 DELETE   582.20 188.59 399.10 537.96 778.03 379.47 936.26 374.69 909.84 486.33 807.36 579.40 929.97 576.44
00006193 00000047 591.94 190.59 398.52 535.38 787.14 381.43 946.41 379.37 919.17 487.74 816.86 581.36 938.78 580.08
00006194 00000048 594.26 197.54 402.30 525.51 788.29 382.82 949.43 382.53 920.67 488.77 815.73 577.85 940.39 577.64
00006195 00000049 592.19 188.91 404.01 535.14 788.43 376.31 949.44 380.68 918.46 484.75 809.89 573.91 936.59 577.54
00006196 00000050 590.44 185.39 402.69 530.57 787.13 368.83 951.11 372.30 919.55 478.49 808.09 567.54 937.51 570.53
00006197 00000051 591.23 185.42 395.83 525.63 782.01 363.22 945.50 367.54 918.27 466.07 795.90 565.92 932.37 569.18
00006198 00000052 578.87 177.28 398.64 529.39 767.84 360.88 931.04 361.78 905.38 460.29 788.68 565.04 923.39 564.91
00006199 00000053 564.42 182.24 403.64 521.47 755.42 355.84 918.25 355.49 895.39 458.97 780.49 562.41 911.61 561.23
00006200 00000054 555.81 174.84 406.90 520.97 747.73 354.08 912.31 352.75 885.13 455.99 778.30 560.03 903.95 557.29
00006201 00000055 553.37 170.89 408.23 520.65 742.18 352.76 910.87 348.85 881.05 452.15 779.08 559.16 904.62 553.77
00006202 00000056 554.72 163.14 405.09 525.55 741.82 345.02 907.21 344.92 875.08 448.37 774.32 551.07 898.59 549.18
00006203 00000057 553.25 151.29 402.29 531.89 740.79 332.11 906.38 340.49 873.31 432.14 773.42 540.74 894.84 545.13
00006204 DELETE   542.65 135.32 403.78 540.79 737.14 319.03 900.42 334.17 868.58 421.03 765.51 528.01 885.08 537.60
00006205 00000059 527.85 112.50 402.41 543.98 721.63 317.74 884.83 327.50 850.61 406.22 750.04 509.49 874.02 516.43
00006206 00000060 510.64 115.36 407.51 528.79 707.51 305.76 869.50 315.53 839.09 386.12 741.87 491.93 868.46 499.81
00006207 DELETE   494.82 109.19 406.05 511.02 684.59 297.10 849.35 306.61 820.55 371.95 716.86 485.22 846.96 491.56
00006208 00000062 485.74 100.76 408.39 519.95 672.79 290.82 841.61 303.77 809.80 362.50 708.84 479.45 841.30 487.53
00006209 00000063 484.18 93.48 405.52 522.63 675.30 289.10 839.39 302.43 814.73 355.65 714.93 476.46 844.37 484.42
00006210 00000064 487.03 95.96 402.17 516.29 680.16 286.64 840.09 303.17 818.17 348.87 718.41 472.70 844.78 484.07
00006211 00000065 486.90 95.83 401.58 514.46 680.20 285.76 842.71 305.83 818.34 346.22 718.45 471.34 844.69 485.13
00006212 DELETE   483.16 95.49 402.56 517.08 678.80 288.77 840.55 311.46 814.43 348.09 711.58 468.48 839.24 483.68
00006213 DELETE   474.03 105.04 408.47 513.91 665.37 287.68 828.85 313.51 797.03 352.05 695.12 466.43 826.46 483.71
00006214 00000068 467.54 110.67 412.23 517.94 657.43 291.47 824.15 320.60 783.84 361.32 679.20 470.63 815.72 491.42
00006215 DELETE   466.38 115.81 415.19 519.59 653.38 296.97 825.94 326.22 777.57 371.72 666.18 476.12 808.74 498.03
00006216 00000070 470.80 118.38 415.08 521.22 654.64 296.56 829.85 327.35 773.89 377.72 662.00 479.45 806.62 502.96
00006217 00000071 477.15 121.90 416.08 515.95 662.44 297.84 837.87 329.68 780.97 381.85 667.87 484.16 808.78 508.94
00006218 DELETE   486.87 123.10 411.85 521.35 670.10 300.00 847.68 332.58 789.52 386.66 669.95 489.76 812.21 515.66
00006219 DELETE   504.33 133.31 404.49 511.63 683.10 302.89 856.95 339.66 801.72 393.04 676.18 488.92 819.75 520.04
00006220 DELETE   508.41 138.24 418.05 522.57 692.39 311.53 870.22 348.34 806.07 402.05 685.24 492.21 836.51 522.71
00006221 00000075 517.90 125.43 425.98 549.68 705.23 317.32 883.84 357.29 816.50 411.87 692.18 502.04 841.83 535.16
00006222 00000076 526.94 138.70 422.92 543.09 713.97 321.12 894.39 367.53 824.17 421.30 694.81 505.89 847.83 543.85
00006223 00000077 538.60 158.21 416.66 524.16 728.50 317.31 897.41 373.42 826.45 429.79 699.07 502.78 844.66 547.46
00006224 00000078 540.93 160.54 418.30 530.19 733.53 316.60 898.76 376.26 828.08 439.72 699.25 505.90 843.96 553.83
00006225 00000079 539.05 158.79 419.19 535.72 730.49 315.86 896.76 373.26 825.66 444.08 697.86 510.51 842.00 556.79
00006226 00000080 533.29 154.97 421.33 537.58 725.42 316.62 893.64 370.29 823.56 441.82 697.35 511.44 840.08 554.54
00006227 00000081 532.05 168.05 418.68 519.41 719.61 324.32 890.95 371.90 819.71 436.57 698.13 510.79 841.83 548.36
00006228 00000082 526.99 159.46 419.13 525.19 716.60 326.72 888.01 375.21 818.60 428.10 696.46 506.56 841.41 545.08
00006229 00000083 522.56 163.10 422.65 527.57 709.49 324.50 882.84 371.06 812.06 430.81 692.00 509.26 839.46 545.91
00006230 00000084 518.03 166.62 425.44 530.95 705.58 322.64 880.83 367.79 809.12 436.70 685.08 513.71 837.11 549.53
00006231 00000085 518.51 163.40 423.58 539.60 707.75 324.58 879.24 369.11 810.97 440.81 685.93 520.22 836.79 555.73
00006232 00000086 520.36 165.95 425.21 541.55 708.23 328.38 880.29 371.42 812.55 444.74 687.61 525.13 839.83 559.45
00006233 00000087 520.54 168.71 427.13 538.57 709.76 331.25 883.12 374.41 814.17 448.34 689.49 526.63 840.75 561.00
00006234 00000088 521.98 174.61 426.95 531.10 707.49 334.12 882.88 374.28 811.75 452.01 691.43 528.83 840.83 560.45
00006235 00000089 521.15 171.97 426.86 537.79 702.59 335.98 880.44 373.11 807.06 455.34 689.53 532.90 839.66 562.08
00006236 00000090 518.94 171.47 429.49 544.04 700.59 338.63 876.17 370.37 804.61 462.04 690.16 539.29 836.91 564.23
00006237 00000091 516.74 168.15 430.48 546.53 698.73 343.09 874.92 374.32 803.62 464.12 692.15 542.46 836.25 566.64
00006238 00000092 518.40 172.08 428.16 542.25 699.38 347.29 876.40 376.70 805.95 466.54 697.19 545.31 837.62 568.05
00006239 00000093 521.37 172.16 429.15 551.03 701.93 350.51 880.66 377.48 809.24 474.66 697.90 552.99 839.91 574.01
00006240 00000094 524.18 177.67 432.84 556.03 706.87 354.98 885.73 383.76 813.49 483.97 699.71 561.11 846.78 584.12
00006241 00000095 529.57 174.91 434.77 559.22 714.66 358.44 894.13 389.91 822.51 489.26 704.03 566.21 850.78 591.81
00006242 00000096 534.63 182.60 436.63 562.79 724.07 369.63 900.90 404.34 830.35 496.59 710.01 572.42 855.48 600.93
00006243 00000097 541.56 218.44 434.51 540.65 727.43 371.65 907.62 409.41 834.17 517.82 710.36 581.44 855.86 611.25
00006244 00000098 548.05 229.42 432.46 535.55 730.80 380.34 910.36 412.79 840.19 525.95 716.12 588.85 867.35 614.92
00006245 00000099 553.67 230.46 431.85 537.10 738.03 386.07 914.91 416.05 848.61 530.66 724.37 594.62 869.27 618.84
00006246 00000100 559.76 234.24 429.04 536.66 742.42 393.30 919.73 421.41 854.47 534.33 732.32 604.80 874.24 627.40
00006247 00000101 563.93 239.34 430.56 544.52 749.75 401.16 926.58 428.24 863.33 542.97 738.41 616.43 881.19 638.18
00006248 00000102 566.19 236.62 432.35 554.51 762.02 413.89 932.31 438.10 864.38 558.89 740.85 623.70 876.03 643.03
00006249 DELETE   564.72 253.74 441.95 538.95 764.38 424.65 934.22 445.42 867.78 566.43 741.34 628.40 880.14 645.84
00006250 00000104 568.18 253.53 440.78 541.86 768.48 438.16 937.00 458.77 870.76 578.66 742.21 632.60 883.10 650.73
00006251 00000105 570.26 250.19 441.89 549.01 771.30 442.16 942.79 464.07 874.94 584.80 742.54 635.57 887.33 654.98
00006252 00000106 572.59 256.58 445.12 549.48 773.86 441.59 946.54 464.64 877.55 585.30 744.72 638.27 889.93 658.50
00006253 00000107 575.58 252.72 443.77 552.80 778.29 439.74 949.66 462.52 881.82 585.44 748.80 639.08 891.30 658.92
00006254 00000108 579.20 250.93 443.88 553.22 783.67 438.25 954.27 460.62 885.72 586.72 753.98 638.87 894.07 658.34
00006255 00000109 580.30 247.48 444.27 556.95 786.46 436.84 956.10 459.61 889.71 582.35 758.41 636.99 898.05 656.58
00006256 00000110 580.25 244.53 445.17 559.32 787.17 433.36 956.50 457.07 891.11 579.09 759.73 636.59 898.52 656.57
00006257 00000111 579.53 243.96 445.69 559.41 787.45 431.57 955.29 454.52 890.86 577.75 761.17 635.25 898.45 654.65
00006258 00000112 578.45 244.35 445.41 558.96 787.00 430.08 955.20 452.89 891.55 575.85 761.37 635.46 898.06 654.64
00006259 00000113 576.50 245.30 444.59 557.81 786.93 428.99 954.62 452.17 892.54 574.61 761.49 634.61 898.23 654.12
00006260 00000114 576.78 245.26 443.17 557.14 785.56 426.60 953.99 448.91 891.36 573.91 761.55 635.21 896.95 653.80
00006261 00000115 574.59 242.45 441.75 558.65 783.76 424.26 951.55 446.70 889.93 570.23 760.61 634.64 894.23 653.10
00006262 00000116 571.44 243.31 441.61 557.14 783.04 423.88 949.87 445.82 889.89 568.66 759.68 633.47 892.52 651.52
00006263 00000117 570.00 240.44 438.35 557.17 780.69 420.70 946.83 443.15 888.34 563.40 759.27 631.01 892.18 649.36
00006264 00000118 566.95 241.66 434.55 551.95 777.24 419.30 942.55 439.72 886.55 559.29 758.46 629.03 890.64 645.64
00006265 00000119 561.61 243.81 436.16 549.53 773.49 417.90 939.43 437.15 885.16 555.25 756.78 627.88 889.83 643.42
00006266 00000120 559.29 250.88 437.39 537.69 768.19 419.72 936.17 434.15 882.88 550.06 754.91 625.31 890.35 637.22
00006267 00000121 559.87 249.87 434.74 539.94 759.14 416.20 934.41 433.51 885.69 548.74 748.28 625.79 896.82 640.27
00006268 00000122 558.85 244.81 433.19 544.59 760.09 416.33 934.33 432.56 887.14 550.64 749.12 626.26 897.11 639.93
00006269 00000123 561.32 243.69 428.21 542.42 763.96 415.34 936.51 433.66 889.97 552.27 751.27 624.94 898.47 640.53
00006270 00000124 563.52 241.23 426.91 544.59 766.84 415.89 937.86 433.65 892.45 553.91 753.53 625.48 899.59 640.76
00006271 00000125 562.45 239.12 431.55 548.35 775.44 419.58 939.53 435.08 889.76 555.73 760.45 627.11 893.61 639.65
00006272 00000126 563.39 236.79 432.32 551.03 776.76 420.23 940.64 435.66 890.62 556.68 761.51 627.71 893.68 640.29
00006273 00000127 565.09 233.78 431.54 554.06 778.26 419.38 942.01 435.94 890.62 557.39 760.96 627.20 892.81 640.70
00006274 00000128 565.42 232.17 432.67 555.76 779.57 419.09 942.71 435.85 891.40 557.80 761.79 627.11 892.44 640.80
00006275 00000129 568.18 234.46 431.29 551.77 779.21 418.90 944.08 435.50 891.77 557.33 762.68 626.63 893.97 640.13
00006276 00000130 568.56 234.40 431.45 551.19 780.24 419.29 945.28 435.39 893.20 557.38 764.66 626.75 896.00 639.86
00006277 00000131 568.78 233.14 432.59 554.10 778.88 417.29 944.78 434.85 891.11 556.97 767.27 627.91 894.75 641.79
00006278 00000132 568.24 236.09 435.41 552.05 779.49 416.97 946.77 434.95 893.32 556.71 769.89 627.98 897.62 642.16
00006279 00000133 569.71 240.00 435.89 549.19 779.66 416.71 948.12 435.04 893.98 556.93 772.83 628.79 900.08 642.97
00006280 00000134 569.65 238.41 434.75 550.85 779.96 416.86 948.67 435.72 895.19 556.68 774.22 628.62 902.30 643.32
00006281 00000135 569.41 238.22 436.02 551.02 779.63 418.23 948.98 435.63 895.94 557.46 772.91 628.38 904.36 642.13
00006282 00000136 569.20 235.05 435.99 554.37 779.04 417.93 948.72 435.07 895.22 557.28 770.74 626.84 904.12 640.48
00006283 00000137 568.13 228.90 437.18 563.34 779.32 416.81 947.48 435.99 894.95 555.05 769.68 626.58 902.62 641.95
00006284 00000138 565.40 231.48 439.55 563.08 778.06 412.60 942.79 434.10 889.29 551.26 765.33 625.88 892.99 642.80
00006285 00000139 565.78 225.62 437.66 571.32 776.52 411.18 942.31 434.69 887.76 549.74 758.52 624.62 893.46 643.28
00006286 00000140 564.87 219.56 437.12 573.65 777.42 411.61 943.79 432.55 890.16 548.62 759.03 621.98 896.10 638.88
00006287 00000141 565.49 218.58 436.58 573.01 776.98 409.70 944.37 428.76 891.21 546.73 760.21 619.91 899.68 635.34
00006288 00000142 567.69 219.34 436.40 574.93 780.80 405.88 946.29 426.06 893.87 542.93 765.02 622.35 898.49 638.44
00006289 00000143 568.77 203.00 436.20 590.19 790.52 401.19 950.46 425.86 903.27 535.65 783.53 623.14 902.46 642.11
00006290 DELETE   575.60 191.65 428.56 589.51 798.82 395.60 954.10 420.24 913.94 525.90 800.65 617.81 909.65 636.69
CROP_BBOX: 260 0 1270 958
