Video ID: 	0DW-bhX73Js
H: 	1080
W: 	1920
FPS: 	25.0

FRAME INDEX X0 Y0 W H [Landmarks (5 Points)]

00003926 00000000 939.54 195.76 409.67 531.73 1003.92 384.71 1206.01 347.89 1100.21 500.22 1042.78 566.44 1255.27 534.39
00003927 DELETE   938.93 191.41 408.98 540.05 1003.20 388.69 1202.97 352.82 1096.30 501.65 1041.69 569.76 1251.17 538.28
00003928 DELETE   937.89 190.14 408.84 544.68 1001.24 390.85 1199.42 356.87 1090.66 503.50 1036.84 571.14 1244.96 541.31
00003929 DELETE   934.94 191.36 404.38 544.94 995.71 392.80 1192.12 360.69 1083.00 505.91 1032.54 572.86 1239.09 544.41
00003930 00000004 926.35 184.52 403.07 553.37 989.60 393.97 1184.58 363.18 1073.31 509.85 1029.02 574.92 1234.08 547.25
00003931 00000005 920.53 193.94 403.92 544.38 985.04 394.78 1180.09 362.78 1066.46 511.49 1027.55 580.51 1227.80 551.77
00003932 00000006 918.39 192.99 407.34 548.58 984.00 395.71 1181.90 363.26 1067.55 513.52 1026.84 583.21 1229.75 554.02
00003933 00000007 919.25 192.49 406.90 551.77 985.57 396.31 1181.72 364.52 1069.19 515.14 1027.45 583.55 1230.08 554.84
00003934 00000008 922.61 195.48 403.21 552.94 986.49 395.19 1181.70 364.00 1068.27 514.20 1025.61 583.44 1230.45 555.26
00003935 00000009 922.05 190.09 405.73 560.09 988.48 396.65 1182.79 364.69 1069.53 511.48 1029.15 586.02 1230.78 557.08
00003936 00000010 926.06 189.88 405.31 564.82 992.08 397.03 1184.15 365.52 1072.01 508.71 1033.67 592.41 1228.27 563.70
00003937 00000011 930.64 192.00 404.23 555.03 995.94 396.43 1188.52 365.83 1078.06 505.84 1039.14 596.95 1224.49 569.54
00003938 00000012 931.09 186.32 410.09 559.93 994.95 400.16 1187.36 367.38 1078.15 508.93 1042.85 603.08 1223.16 573.65
00003939 00000013 931.95 184.28 411.71 564.30 997.36 399.98 1188.12 368.72 1077.82 508.60 1043.35 604.85 1219.39 576.93
00003940 00000014 933.47 185.47 408.32 560.21 997.80 400.79 1189.74 371.01 1078.07 508.41 1042.45 606.31 1216.15 580.20
00003941 00000015 934.15 179.90 405.32 567.40 996.57 400.69 1187.46 370.14 1076.86 507.65 1043.22 610.72 1212.17 584.21
00003942 00000016 935.73 180.48 397.18 565.69 997.66 399.17 1186.22 372.48 1070.92 505.73 1043.95 616.94 1197.97 594.36
00003943 00000017 938.99 177.08 393.65 578.24 1002.25 395.77 1187.89 367.65 1073.11 501.56 1051.17 627.43 1189.45 604.00
00003944 00000018 942.63 180.25 390.11 583.43 1006.43 394.68 1191.31 365.22 1076.92 498.49 1053.84 633.18 1187.27 609.43
00003945 00000019 944.47 185.36 391.16 564.25 1008.32 392.36 1195.77 364.77 1080.30 495.63 1052.75 620.56 1193.53 597.87
00003946 00000020 947.90 182.23 394.98 560.74 1010.43 393.28 1200.15 362.90 1086.68 492.60 1054.57 612.98 1206.27 588.17
00003947 00000021 954.76 180.96 391.58 557.34 1018.50 386.98 1210.09 356.63 1096.16 485.07 1060.43 605.86 1216.93 581.05
00003948 00000022 966.08 177.08 396.81 559.93 1019.92 367.81 1228.48 351.05 1103.19 489.38 1069.97 607.16 1231.95 593.65
00003949 00000023 974.02 174.82 395.93 566.12 1029.21 368.47 1234.56 349.98 1112.14 489.28 1081.49 604.62 1245.03 588.53
00003950 00000024 979.97 192.37 390.88 558.26 1041.81 376.98 1242.52 357.01 1116.33 484.08 1077.04 595.44 1258.95 577.95
00003951 00000025 986.36 189.66 388.95 563.96 1048.85 379.16 1248.37 359.57 1122.89 484.65 1079.85 593.88 1265.24 576.77
00003952 00000026 991.34 179.46 388.66 572.12 1053.16 381.89 1252.52 361.33 1126.31 484.27 1084.98 597.50 1266.03 579.68
00003953 00000027 993.30 178.32 389.23 561.95 1056.11 386.69 1257.91 364.77 1133.98 483.04 1088.26 596.89 1269.96 578.08
00003954 00000028 996.43 177.52 387.14 557.63 1060.89 382.65 1261.77 363.09 1139.66 477.29 1090.05 591.84 1269.19 575.02
00003955 00000029 997.39 180.25 388.28 548.15 1061.93 377.46 1262.80 360.67 1141.43 474.54 1088.33 586.10 1266.28 571.86
00003956 00000030 996.94 178.99 389.33 547.56 1062.37 370.07 1263.86 356.54 1141.85 468.46 1085.99 580.98 1262.02 569.53
00003957 00000031 998.11 176.35 387.63 549.58 1062.50 363.87 1262.10 353.68 1138.40 464.09 1083.55 577.73 1253.58 569.21
00003958 00000032 997.79 177.55 388.47 546.83 1062.53 361.62 1261.92 353.23 1138.46 463.74 1081.71 576.83 1251.27 569.85
00003959 00000033 997.79 173.50 390.09 552.44 1064.07 362.18 1264.70 354.65 1140.22 465.00 1082.50 579.45 1251.86 573.36
00003960 00000034 994.59 176.47 390.77 549.62 1062.72 358.46 1263.22 350.19 1140.46 461.73 1084.79 580.63 1249.70 573.72
00003961 00000035 991.70 181.02 383.97 541.42 1056.45 353.15 1258.55 346.70 1130.73 458.87 1081.11 580.08 1240.64 574.47
00003962 00000036 990.98 170.41 378.61 545.96 1052.12 352.27 1248.09 347.29 1119.76 460.74 1071.90 580.23 1228.03 575.90
00003963 00000037 979.63 168.92 388.09 537.06 1033.86 336.39 1234.23 337.16 1104.97 462.09 1064.46 573.92 1219.41 575.36
00003964 00000038 972.30 157.52 382.77 545.16 1029.16 355.95 1224.32 344.12 1098.19 458.77 1057.27 574.04 1217.43 564.93
00003965 00000039 968.32 160.09 390.32 553.82 1030.74 356.86 1223.31 339.40 1104.86 458.20 1059.97 564.93 1230.39 550.04
00003966 00000040 968.24 160.83 393.55 561.44 1033.92 358.12 1227.20 336.40 1116.11 458.90 1064.91 560.34 1247.20 541.78
00003967 00000041 973.41 166.62 396.34 557.67 1042.98 357.35 1235.05 340.28 1126.91 460.76 1071.32 556.40 1254.26 541.90
00003968 00000042 976.92 179.15 397.09 547.47 1047.14 360.51 1239.69 339.67 1135.65 462.78 1078.85 559.97 1261.68 542.39
00003969 00000043 981.28 176.81 391.09 543.14 1046.40 353.03 1249.19 335.42 1130.06 457.03 1079.66 560.21 1264.31 542.93
00003970 00000044 982.97 167.33 393.11 551.06 1048.69 352.48 1250.46 335.80 1131.47 456.21 1079.35 557.72 1264.44 541.23
00003971 00000045 983.96 161.31 395.74 556.50 1052.01 353.69 1253.29 336.03 1136.06 455.42 1081.92 557.84 1267.89 540.62
00003972 00000046 978.56 143.15 407.03 567.57 1049.95 353.51 1255.62 331.40 1138.35 456.59 1084.31 558.41 1272.60 538.47
00003973 00000047 979.75 143.61 406.28 565.60 1051.23 352.84 1255.75 331.67 1138.76 456.32 1084.88 556.68 1272.81 537.57
00003974 00000048 988.86 161.37 393.81 554.81 1056.84 355.35 1256.26 338.05 1138.75 455.42 1084.78 557.58 1269.48 541.04
00003975 00000049 989.66 166.09 393.29 549.15 1056.45 356.80 1256.55 339.19 1138.44 455.56 1085.02 558.55 1268.87 541.71
00003976 00000050 991.28 174.11 390.98 541.93 1055.88 357.94 1256.81 340.15 1137.52 456.64 1084.43 559.88 1268.45 542.83
00003977 00000051 990.98 174.42 390.52 542.41 1055.23 358.95 1254.60 340.80 1135.26 457.39 1084.22 560.77 1267.42 543.44
00003978 00000052 991.22 174.30 389.57 543.40 1055.93 359.72 1254.50 341.93 1135.88 458.02 1085.20 561.02 1266.90 544.08
00003979 00000053 991.67 176.97 387.62 540.62 1055.64 358.39 1254.63 341.35 1135.98 457.50 1084.72 560.48 1266.57 544.20
00003980 00000054 991.15 175.16 386.39 542.02 1055.64 358.33 1253.87 342.45 1134.65 456.86 1082.99 560.15 1264.76 544.94
00003981 00000055 993.06 177.07 383.09 540.52 1056.67 356.01 1253.31 341.77 1135.18 456.15 1082.12 557.82 1263.46 543.99
00003982 00000056 993.56 175.86 382.67 542.91 1056.65 355.19 1253.35 341.25 1134.21 456.42 1081.75 557.85 1262.86 544.38
00003983 00000057 993.98 175.27 382.79 545.26 1057.00 353.98 1252.83 341.02 1133.79 456.50 1081.94 557.63 1262.05 545.13
00003984 00000058 995.25 172.76 384.30 550.08 1057.03 354.17 1253.18 340.06 1133.31 457.02 1083.53 559.30 1261.46 545.94
00003985 00000059 994.69 173.28 385.43 550.81 1055.67 353.40 1250.91 339.01 1130.55 456.78 1083.99 563.37 1257.73 549.99
00003986 00000060 994.16 173.06 384.70 549.31 1054.77 353.85 1252.62 339.61 1130.00 456.12 1082.70 567.06 1256.71 553.81
00003987 00000061 993.21 174.32 382.16 545.60 1054.68 354.66 1253.35 339.91 1130.98 454.67 1082.62 567.42 1255.24 553.88
00003988 00000062 992.82 175.20 381.61 541.95 1055.04 353.77 1253.71 340.82 1131.05 454.25 1081.46 566.61 1254.43 554.41
00003989 00000063 992.00 179.85 381.54 533.89 1054.90 352.84 1253.61 340.70 1132.25 453.95 1081.62 565.84 1253.36 554.30
00003990 00000064 992.14 180.53 381.30 531.49 1054.66 351.51 1253.04 340.85 1131.46 454.82 1080.56 565.35 1250.92 555.26
00003991 00000065 992.20 177.85 381.58 538.28 1054.96 349.72 1253.52 340.37 1131.78 456.36 1079.04 564.44 1250.07 555.53
00003992 00000066 991.89 180.33 384.26 542.35 1055.14 348.33 1253.25 338.31 1133.04 455.75 1080.95 564.08 1253.24 554.27
00003993 00000067 991.62 180.17 385.22 543.48 1055.57 347.45 1251.78 338.86 1132.43 455.69 1080.76 562.53 1252.56 554.00
00003994 00000068 992.19 174.98 383.66 545.04 1057.07 348.74 1253.38 340.81 1133.77 457.28 1081.93 562.88 1252.43 554.95
00003995 00000069 992.53 178.53 383.67 537.07 1057.43 349.92 1253.36 341.50 1134.65 456.88 1084.01 563.40 1252.03 555.02
00003996 00000070 992.69 175.20 385.38 541.92 1058.72 350.43 1255.79 341.88 1137.06 457.57 1085.15 564.73 1253.80 556.19
00003997 00000071 993.59 173.28 385.48 544.14 1059.74 351.27 1256.85 342.09 1138.42 458.12 1085.88 564.46 1256.38 555.32
00003998 00000072 993.59 171.21 387.77 547.24 1060.60 351.66 1257.29 341.92 1139.72 458.00 1086.64 564.08 1258.55 554.34
00003999 00000073 993.88 172.67 388.07 545.18 1060.45 351.65 1257.70 341.22 1140.79 458.11 1086.85 563.74 1259.83 553.40
00004000 00000074 994.05 174.12 388.62 543.35 1060.16 352.27 1258.95 340.37 1141.71 457.74 1087.59 562.65 1263.32 550.89
00004001 00000075 993.95 175.22 388.81 542.30 1059.53 352.34 1258.37 339.89 1141.78 457.72 1087.25 562.90 1263.44 550.67
00004002 00000076 994.14 177.30 388.08 539.61 1059.10 353.21 1257.99 340.23 1140.77 457.56 1086.54 563.43 1262.66 550.84
00004003 00000077 993.42 176.46 387.67 542.36 1059.34 353.36 1258.63 341.12 1141.61 458.32 1086.47 564.78 1262.44 552.69
00004004 00000078 993.40 177.01 388.87 543.40 1059.21 353.62 1258.99 341.12 1141.25 458.89 1086.56 565.82 1263.67 553.49
00004005 00000079 993.69 180.48 388.65 538.63 1058.73 355.09 1259.26 342.15 1141.11 460.51 1085.97 566.60 1264.19 554.09
00004006 00000080 994.26 178.21 390.00 542.04 1059.82 356.39 1259.95 342.76 1142.37 461.39 1086.94 566.59 1266.27 553.45
00004007 00000081 995.35 178.47 390.99 541.85 1060.60 358.18 1260.57 343.28 1142.98 461.32 1087.85 566.09 1267.97 551.92
00004008 00000082 995.41 176.80 392.46 542.84 1061.20 359.82 1261.02 343.64 1144.03 462.13 1089.60 565.62 1270.06 550.33
00004009 00000083 995.49 179.65 392.13 538.16 1061.16 360.59 1261.19 344.40 1143.69 462.03 1088.81 564.30 1270.33 549.04
00004010 00000084 994.46 179.94 392.72 535.64 1060.70 360.30 1261.11 344.35 1143.57 461.11 1087.52 562.93 1270.64 547.88
00004011 00000085 995.16 178.55 391.76 536.75 1062.38 358.06 1262.03 346.11 1144.00 462.26 1084.52 556.24 1271.95 544.66
00004012 00000086 995.96 178.38 391.76 539.14 1063.64 354.99 1262.06 345.82 1144.41 464.00 1082.35 550.52 1273.09 541.14
00004013 00000087 998.14 180.55 389.53 539.78 1065.44 352.53 1262.53 345.82 1145.89 465.97 1081.27 545.94 1274.69 538.57
00004014 00000088 999.86 182.30 387.83 536.88 1067.31 348.91 1265.44 343.76 1149.66 465.59 1081.26 542.64 1276.50 536.95
00004015 00000089 998.35 176.88 391.83 538.16 1069.18 348.71 1269.39 340.94 1153.21 462.76 1083.78 543.62 1277.44 535.69
00004016 00000090 996.82 181.52 394.25 528.88 1068.28 346.21 1271.85 337.27 1155.11 459.86 1085.24 545.70 1276.67 537.14
00004017 00000091 995.74 179.68 393.40 531.23 1068.25 344.37 1271.44 339.48 1153.89 460.46 1085.52 551.28 1267.45 546.17
00004018 00000092 992.87 176.78 395.69 537.18 1066.71 349.08 1269.21 346.14 1150.80 462.62 1082.84 558.45 1262.28 554.69
00004019 00000093 986.93 174.75 396.83 544.68 1064.34 354.70 1265.24 352.31 1147.93 461.60 1079.47 562.20 1260.34 558.67
00004020 DELETE   985.30 185.66 390.80 530.24 1058.41 346.28 1260.06 347.36 1136.71 458.22 1075.22 559.95 1250.47 559.71
00004021 DELETE   983.59 188.37 387.24 531.24 1049.99 340.40 1248.24 340.13 1125.80 453.11 1068.63 560.76 1236.26 559.47
00004022 DELETE   985.55 169.56 381.46 553.17 1047.88 329.81 1238.66 331.97 1112.76 443.13 1066.34 557.06 1222.81 557.94
00004023 00000097 977.23 158.86 389.34 566.57 1046.64 325.53 1236.70 325.68 1113.16 437.23 1062.03 555.93 1219.63 555.58
00004024 00000098 980.46 157.39 386.46 561.49 1050.93 322.19 1240.66 324.74 1114.73 431.58 1061.18 545.55 1227.48 547.48
00004025 00000099 993.63 153.62 379.08 547.53 1060.09 318.13 1245.97 325.05 1113.04 428.22 1063.72 533.68 1228.08 539.08
00004026 00000100 993.90 142.58 384.60 542.73 1064.62 318.44 1254.89 321.46 1125.81 425.98 1071.27 531.17 1236.37 533.61
00004027 00000101 996.92 154.51 382.64 516.13 1065.75 310.23 1260.48 310.73 1131.36 418.42 1073.29 520.12 1242.59 520.73
00004028 00000102 995.93 155.70 384.05 512.02 1065.39 311.21 1259.82 308.38 1132.68 413.70 1073.26 518.65 1242.98 516.46
00004029 00000103 994.35 151.25 386.18 518.41 1064.73 309.85 1259.52 309.45 1133.21 415.15 1073.74 518.10 1243.27 517.78
00004030 00000104 990.51 153.77 388.22 519.13 1063.83 310.19 1259.51 310.46 1134.06 416.90 1073.46 521.39 1242.93 521.17
00004031 00000105 987.35 153.59 388.87 523.55 1061.48 311.05 1257.02 310.55 1132.23 418.91 1072.20 524.04 1240.65 523.25
00004032 00000106 981.84 154.15 390.04 526.49 1056.34 312.17 1253.37 310.59 1130.99 421.79 1070.25 532.99 1237.87 530.83
00004033 00000107 981.85 151.36 389.48 540.54 1058.90 312.11 1253.23 313.80 1132.58 425.51 1071.12 535.38 1237.20 535.43
00004034 00000108 981.97 154.22 389.35 541.52 1059.59 311.50 1253.07 310.57 1134.63 424.32 1075.84 534.12 1239.86 531.82
00004035 00000109 979.66 135.62 399.15 548.76 1058.71 311.32 1253.16 303.26 1134.38 412.34 1079.33 528.90 1247.17 521.06
00004036 00000110 979.69 134.86 398.25 532.72 1056.88 299.78 1256.48 286.57 1137.38 396.31 1081.08 517.97 1253.91 506.87
00004037 00000111 970.87 120.59 400.57 538.06 1047.26 295.79 1254.40 282.81 1132.77 385.69 1079.64 511.61 1258.69 500.10
00004038 00000112 969.02 121.56 398.49 543.05 1047.70 300.15 1247.93 284.55 1133.14 390.36 1075.33 510.42 1252.76 497.08
00004039 00000113 975.91 134.31 397.51 530.38 1049.81 296.12 1251.30 280.94 1131.28 393.43 1076.84 515.28 1250.68 503.22
00004040 00000114 972.10 125.42 401.58 540.08 1049.79 300.83 1257.77 290.43 1135.35 393.39 1080.20 516.79 1258.68 507.42
00004041 00000115 979.60 139.57 400.11 529.81 1057.27 301.40 1259.25 286.16 1142.23 396.08 1083.31 518.52 1260.40 505.82
00004042 00000116 980.46 140.44 402.16 529.21 1059.14 301.61 1262.11 286.41 1146.30 395.64 1084.19 518.61 1262.67 506.16
00004043 00000117 980.62 130.46 404.69 540.55 1061.55 302.77 1266.41 289.29 1150.07 397.12 1084.18 519.04 1265.35 507.37
00004044 00000118 980.88 132.34 404.82 544.81 1066.48 304.27 1272.86 293.95 1159.01 403.05 1085.03 521.51 1266.52 512.28
00004045 00000119 978.72 127.77 405.06 550.05 1068.38 305.28 1277.53 301.36 1166.51 404.35 1090.58 520.09 1276.31 516.31
00004046 00000120 980.41 139.79 405.90 540.68 1071.55 307.13 1281.31 298.90 1169.88 413.77 1089.21 526.20 1272.11 517.85
00004047 00000121 979.89 140.17 403.94 544.26 1071.50 308.42 1280.42 301.11 1170.44 415.80 1087.54 527.60 1270.90 520.09
00004048 00000122 971.37 140.43 409.01 546.03 1063.81 311.05 1275.58 309.54 1166.31 417.60 1083.39 526.83 1272.24 524.81
00004049 00000123 965.87 142.05 411.48 546.84 1057.23 312.72 1269.62 311.02 1157.63 419.65 1077.84 530.10 1266.50 527.51
00004050 00000124 967.27 151.51 404.60 539.53 1053.08 319.85 1261.38 306.54 1157.70 423.82 1078.04 538.16 1259.78 526.55
00004051 00000125 963.08 149.52 403.67 539.47 1050.08 321.65 1257.58 306.51 1155.51 424.15 1075.99 536.82 1257.32 523.55
00004052 00000126 961.30 150.12 402.01 538.03 1048.09 324.17 1255.62 308.54 1154.56 429.14 1074.63 537.93 1256.24 524.10
00004053 00000127 961.89 154.04 402.27 535.14 1049.49 322.28 1259.10 309.55 1155.78 430.39 1074.77 537.65 1258.66 526.12
00004054 00000128 960.40 156.19 405.00 535.86 1051.33 325.55 1259.93 311.86 1158.45 432.92 1076.49 537.06 1262.94 524.60
00004055 00000129 961.37 161.73 404.68 528.86 1053.39 325.45 1260.87 311.86 1161.92 433.75 1079.39 537.05 1264.34 524.79
00004056 00000130 962.98 155.85 401.36 533.70 1055.33 324.85 1263.37 311.36 1166.85 433.37 1082.23 536.79 1265.54 525.12
00004057 00000131 964.67 159.53 399.14 526.69 1058.25 324.05 1266.04 309.98 1172.71 432.01 1089.00 537.72 1268.64 525.40
00004058 00000132 966.94 156.61 398.47 526.91 1061.57 324.74 1269.15 309.27 1177.41 431.20 1093.66 538.04 1271.07 524.29
00004059 00000133 968.56 158.83 396.77 521.16 1064.06 324.42 1268.68 307.16 1179.75 431.05 1098.17 537.63 1271.49 521.94
00004060 00000134 971.57 154.87 394.02 521.29 1066.91 318.33 1268.60 305.39 1176.07 427.32 1100.90 535.06 1262.70 521.84
00004061 00000135 973.78 156.04 393.60 517.42 1069.40 318.80 1271.71 306.27 1178.12 427.23 1103.75 534.86 1263.92 521.80
00004062 00000136 975.91 151.03 394.16 524.01 1072.73 320.03 1274.40 306.68 1182.35 428.16 1106.77 534.46 1266.89 520.93
00004063 00000137 978.41 143.98 394.01 533.71 1076.11 321.32 1277.85 305.86 1187.39 429.59 1108.97 533.40 1272.97 518.73
00004064 00000138 978.40 143.16 396.76 535.44 1080.02 322.14 1280.98 306.30 1192.84 430.33 1113.05 531.82 1277.41 516.87
00004065 00000139 982.14 150.88 396.20 529.00 1084.03 323.17 1287.40 305.48 1198.38 430.68 1115.04 532.88 1282.80 517.32
00004066 00000140 987.61 157.97 397.10 518.74 1094.39 323.55 1298.62 307.07 1215.07 433.30 1127.15 533.82 1295.07 518.84
00004067 00000141 991.81 145.74 395.65 529.74 1103.99 324.52 1308.01 303.25 1233.79 433.29 1141.46 536.70 1308.82 517.47
00004068 00000142 993.08 138.90 395.66 539.13 1108.55 327.35 1310.24 301.13 1242.32 433.79 1149.46 538.00 1317.52 514.46
00004069 00000143 996.75 141.83 392.80 537.82 1111.49 329.30 1311.81 303.35 1244.78 433.93 1152.41 538.34 1319.53 515.48
00004070 00000144 996.72 136.17 393.86 541.33 1115.07 329.73 1314.86 304.87 1249.62 431.58 1153.12 537.14 1321.61 515.10
00004071 00000145 996.31 137.31 394.22 542.46 1115.14 330.32 1314.58 303.78 1251.10 429.49 1152.18 537.24 1323.33 514.02
00004072 00000146 993.69 135.23 396.78 547.46 1115.44 329.97 1315.57 303.42 1253.91 429.37 1149.82 536.61 1323.50 513.51
00004073 00000147 990.75 136.00 398.66 549.44 1114.12 329.97 1314.02 303.08 1254.34 429.58 1144.97 535.69 1322.21 512.90
00004074 00000148 987.26 143.54 403.31 542.26 1113.23 329.70 1312.30 302.79 1254.15 430.05 1143.14 534.59 1321.54 511.90
00004075 00000149 985.17 145.47 406.52 542.30 1113.20 329.13 1311.19 301.46 1254.74 431.00 1143.58 533.97 1321.01 510.24
00004076 00000150 986.19 142.24 405.48 551.81 1112.06 328.35 1312.10 301.54 1253.92 431.78 1140.87 536.58 1320.60 513.56
00004077 00000151 988.21 143.02 403.62 550.56 1112.55 328.14 1310.51 301.51 1252.24 432.08 1141.38 535.05 1321.32 511.97
00004078 00000152 988.36 142.34 403.96 550.93 1112.75 328.79 1310.65 301.35 1252.38 432.31 1142.45 535.37 1321.97 511.57
00004079 00000153 988.85 143.45 403.21 549.46 1113.15 328.52 1311.08 301.55 1252.94 432.50 1142.53 535.47 1321.89 512.14
00004080 00000154 988.28 141.22 404.22 551.86 1113.50 328.53 1311.69 301.24 1254.33 432.34 1143.37 535.74 1322.22 512.19
00004081 00000155 987.93 138.71 404.88 552.73 1113.75 328.46 1312.54 301.41 1255.23 432.03 1143.83 535.36 1322.58 511.88
00004082 00000156 988.95 138.64 403.90 548.00 1114.37 329.41 1313.31 301.99 1253.62 431.79 1148.90 536.87 1323.48 512.56
00004083 00000157 991.20 141.33 403.69 539.80 1116.89 329.05 1315.12 301.97 1253.84 432.59 1156.79 538.11 1323.85 513.60
00004084 00000158 996.57 142.71 400.37 536.14 1118.86 329.10 1316.56 301.31 1253.68 433.43 1161.73 537.89 1326.05 512.61
00004085 00000159 1002.51 137.51 397.12 537.73 1120.48 327.10 1317.92 300.58 1252.89 432.01 1162.40 539.55 1324.03 515.53
00004086 00000160 1006.24 137.63 393.12 540.62 1120.13 322.12 1317.92 296.83 1251.25 427.37 1160.34 537.83 1322.48 514.86
00004087 00000161 1010.39 142.14 391.13 535.45 1121.43 315.23 1318.93 294.38 1249.43 421.23 1158.04 533.34 1319.62 514.43
00004088 00000162 1014.21 135.86 388.50 540.47 1121.60 312.07 1320.00 292.70 1246.30 417.19 1153.19 528.57 1320.02 511.34
00004089 00000163 1018.83 137.91 389.32 535.31 1122.24 308.88 1321.13 289.06 1245.43 413.79 1152.70 523.22 1323.06 505.54
