Video ID: 	z624pNAYDf0
H: 	2160
W: 	3840
FPS: 	29.97002997002997

FRAME INDEX X0 Y0 W H [Landmarks (5 Points)]

00082593 00000000 1697.04 353.68 599.43 823.76 1918.38 721.23 2166.33 667.57 2148.29 780.16 2037.01 989.24 2228.65 948.74
00082594 00000001 1702.64 356.86 591.12 806.91 1917.90 727.85 2163.48 669.82 2144.45 788.01 2043.23 988.36 2229.45 944.02
00082595 00000002 1711.77 367.72 582.39 793.10 1918.00 731.22 2164.61 672.31 2142.95 793.33 2040.44 988.31 2229.64 943.21
00082596 00000003 1716.88 371.77 582.79 784.02 1916.57 731.91 2163.18 671.15 2137.24 794.88 2043.11 989.10 2230.30 942.29
00082597 DELETE   1727.55 386.34 562.71 742.42 1927.10 722.40 2159.74 663.61 2140.21 793.27 2051.59 977.19 2227.94 932.17
00082598 00000005 1726.97 386.11 564.68 735.27 1928.09 718.00 2161.06 659.56 2138.98 787.63 2053.43 972.23 2229.61 927.43
00082599 DELETE   1718.68 384.52 575.96 738.97 1927.86 716.57 2162.51 656.93 2141.81 786.06 2052.29 971.25 2232.69 925.73
00082600 00000007 1710.47 373.79 582.02 749.18 1932.41 723.06 2164.33 654.48 2146.16 781.52 2053.31 972.39 2236.46 919.87
00082601 00000008 1718.60 382.24 577.53 725.45 1934.83 720.73 2166.69 653.74 2147.35 779.09 2058.16 967.48 2239.78 915.94
00082602 00000009 1725.73 381.75 572.28 726.36 1939.00 718.85 2171.36 654.99 2148.39 780.32 2062.67 969.08 2240.82 919.74
00082603 00000010 1732.44 387.71 570.03 716.58 1943.66 717.70 2173.35 654.74 2152.19 778.68 2065.86 965.67 2243.89 916.66
00082604 00000011 1735.21 380.49 573.96 731.78 1945.88 719.61 2176.25 656.07 2150.78 771.99 2065.63 965.26 2246.96 915.31
00082605 00000012 1734.79 383.91 575.92 725.76 1947.32 718.28 2175.88 654.96 2151.17 770.39 2066.05 962.01 2249.07 912.24
00082606 00000013 1735.40 382.32 578.91 725.98 1950.57 718.23 2180.25 657.10 2154.13 768.27 2069.06 960.34 2251.54 912.30
00082607 00000014 1742.44 386.21 573.21 709.09 1956.80 715.00 2182.57 658.84 2156.18 770.69 2068.39 952.71 2250.41 908.98
00082608 00000015 1754.74 388.54 569.21 694.84 1963.15 711.73 2188.67 656.64 2159.47 770.15 2072.57 945.73 2253.41 902.58
00082609 00000016 1753.21 376.82 573.53 714.38 1957.00 710.89 2195.27 658.08 2158.41 765.19 2072.03 945.99 2256.94 904.31
00082610 00000017 1749.87 374.80 582.15 720.81 1959.20 710.63 2198.56 657.44 2162.95 764.21 2078.19 946.19 2262.13 904.49
00082611 00000018 1751.33 375.27 584.12 719.32 1963.82 706.77 2199.42 656.82 2164.45 761.64 2080.16 940.07 2261.63 901.15
00082612 00000019 1755.61 377.93 578.52 714.64 1968.12 703.10 2202.33 655.50 2169.22 752.91 2082.35 937.48 2263.98 900.35
00082613 00000020 1767.78 390.63 568.71 703.18 1976.04 700.57 2199.29 656.41 2169.94 751.47 2091.43 938.18 2263.22 903.13
00082614 00000021 1773.41 394.33 566.28 699.31 1976.80 698.30 2202.91 655.89 2168.90 744.28 2097.93 936.49 2261.67 902.88
00082615 00000022 1774.00 399.09 563.93 706.83 1976.97 698.86 2204.16 657.54 2167.01 742.82 2098.19 941.24 2258.03 908.27
00082616 00000023 1776.24 396.01 565.49 721.45 1977.41 699.43 2207.39 656.83 2166.00 738.30 2098.02 944.48 2260.56 910.54
00082617 00000024 1778.15 392.58 563.24 726.75 1978.40 699.91 2208.41 658.16 2166.49 737.50 2097.82 944.51 2260.80 911.29
00082618 00000025 1779.71 389.58 564.12 730.04 1980.48 698.79 2211.21 662.05 2169.11 733.87 2097.42 942.29 2261.53 913.56
00082619 00000026 1780.99 385.62 567.06 738.18 1981.13 698.95 2212.50 662.21 2168.83 731.11 2099.15 941.84 2263.12 913.24
00082620 00000027 1783.28 385.99 562.43 735.72 1981.68 700.04 2214.30 662.84 2169.90 734.86 2098.54 944.35 2264.12 915.40
00082621 00000028 1779.90 376.63 565.50 755.57 1983.98 703.49 2215.11 665.91 2171.70 740.15 2097.47 949.96 2262.78 921.02
00082622 00000029 1781.79 382.08 564.79 750.45 1985.74 705.13 2218.31 670.35 2173.58 740.61 2098.33 949.89 2266.17 923.00
00082623 00000030 1786.33 382.27 565.69 736.71 1989.08 704.70 2221.65 670.45 2177.33 742.17 2100.18 944.73 2271.24 918.80
00082624 00000031 1788.78 368.93 564.99 740.82 1986.43 701.25 2224.68 670.42 2179.06 731.33 2096.79 936.92 2271.57 913.80
00082625 00000032 1790.52 366.88 566.02 734.68 1989.78 700.40 2227.40 667.29 2183.65 730.27 2099.59 932.16 2275.75 907.51
00082626 00000033 1795.57 364.21 567.43 737.66 1991.08 700.41 2228.17 661.38 2182.46 730.99 2101.17 932.27 2280.07 902.59
00082627 00000034 1796.91 365.71 569.99 732.56 1992.13 697.59 2230.04 660.71 2185.99 725.60 2106.35 929.48 2284.54 901.44
00082628 00000035 1795.31 352.56 574.40 733.84 1989.93 695.46 2218.92 659.14 2179.36 727.30 2096.03 927.46 2279.56 899.77
00082629 00000036 1798.59 351.59 570.66 721.90 1989.71 691.87 2217.53 655.51 2176.61 726.19 2093.85 923.86 2277.59 896.15
00082630 00000037 1803.61 368.35 563.67 697.78 1997.60 687.21 2225.04 656.08 2184.80 724.38 2099.49 919.45 2281.20 897.10
00082631 00000038 1806.01 362.38 563.60 721.09 1997.44 685.98 2227.65 654.78 2184.19 721.45 2101.91 925.70 2282.43 903.18
00082632 00000039 1813.12 367.79 557.25 724.30 1999.52 683.25 2231.60 653.81 2184.25 712.49 2102.89 922.63 2278.35 901.37
00082633 00000040 1812.07 364.25 560.60 716.63 1999.34 679.67 2231.26 649.50 2184.98 706.87 2105.88 915.55 2280.88 894.04
00082634 00000041 1820.31 364.91 551.84 717.23 2001.92 674.65 2233.62 647.69 2186.46 700.13 2104.44 908.85 2280.13 890.10
00082635 00000042 1816.00 355.48 554.88 723.40 2001.94 671.75 2231.15 643.58 2191.47 693.50 2111.49 904.06 2285.76 882.63
00082636 00000043 1807.98 343.56 561.18 703.16 2003.09 660.86 2233.58 633.60 2197.81 683.09 2111.81 889.39 2290.29 869.15
00082637 00000044 1808.56 344.61 552.42 686.48 2005.33 655.14 2232.46 627.61 2200.31 679.90 2113.59 880.41 2287.60 859.85
00082638 00000045 1806.08 350.60 555.81 666.98 2005.90 653.84 2233.06 627.23 2202.24 676.41 2114.23 874.64 2289.10 854.56
00082639 00000046 1808.46 357.52 556.36 656.08 2011.07 655.12 2237.43 627.01 2207.97 676.12 2120.44 871.08 2294.30 849.00
00082640 00000047 1811.22 350.44 559.60 654.48 2015.71 655.05 2243.16 628.37 2210.10 677.54 2119.40 867.38 2294.63 846.55
00082641 00000048 1816.00 348.31 560.05 648.51 2021.28 653.24 2246.46 627.45 2211.07 678.80 2122.79 861.13 2292.94 841.17
00082642 00000049 1823.97 340.78 556.01 657.30 2028.13 652.33 2254.47 625.31 2219.76 680.81 2131.24 865.14 2301.75 844.55
00082643 00000050 1833.53 342.59 556.00 656.30 2031.99 652.16 2260.94 628.04 2223.38 686.21 2133.40 869.30 2306.07 851.04
00082644 00000051 1832.33 336.75 571.62 673.17 2033.10 656.29 2269.62 628.35 2227.84 686.89 2139.16 874.91 2316.40 853.23
00082645 00000052 1843.86 337.61 565.86 675.22 2037.65 659.84 2269.28 627.69 2225.45 691.43 2145.44 875.14 2317.74 850.02
00082646 00000053 1842.54 331.88 566.60 679.01 2043.98 657.53 2274.84 630.39 2232.30 692.98 2145.81 873.49 2317.44 852.67
00082647 DELETE   1841.71 332.19 573.47 683.44 2047.45 659.35 2280.23 634.02 2238.29 695.87 2146.45 876.38 2323.69 857.05
00082648 00000055 1844.04 340.82 578.75 681.26 2046.47 661.06 2285.09 633.57 2239.63 694.86 2145.11 880.37 2331.70 858.90
00082649 00000056 1850.34 346.89 577.74 678.68 2048.60 663.78 2289.40 635.41 2243.66 695.78 2147.79 884.03 2338.86 861.86
00082650 00000057 1852.56 344.02 583.06 680.34 2050.88 664.51 2295.68 634.39 2246.46 695.08 2150.01 884.34 2345.47 860.99
00082651 00000058 1852.17 345.89 585.79 677.01 2054.38 670.68 2288.81 640.77 2240.53 708.81 2139.66 887.78 2337.45 865.75
00082652 00000059 1854.66 345.70 585.64 676.38 2059.43 671.88 2292.44 642.80 2249.31 709.16 2145.56 889.80 2344.63 868.69
00082653 00000060 1859.00 343.08 580.97 690.19 2063.66 674.40 2297.78 643.53 2255.25 716.78 2150.67 899.89 2350.01 877.00
00082654 00000061 1862.36 345.64 579.70 688.13 2067.61 673.88 2301.75 640.88 2258.92 718.81 2157.12 899.56 2351.79 874.46
00082655 00000062 1863.91 346.98 578.11 689.47 2070.64 672.01 2303.86 640.21 2263.01 721.26 2160.29 901.47 2354.24 877.08
00082656 00000063 1874.00 357.46 566.25 676.69 2073.63 668.71 2305.32 636.59 2261.78 719.05 2159.55 894.99 2353.59 869.64
00082657 00000064 1869.91 344.53 574.60 687.64 2080.36 661.92 2314.40 636.26 2271.95 707.14 2163.10 888.72 2358.26 869.18
00082658 00000065 1878.15 336.23 566.40 697.53 2089.03 662.39 2324.14 634.96 2279.76 709.24 2169.09 892.07 2365.63 870.65
00082659 00000066 1880.16 331.94 565.13 710.13 2089.63 664.62 2324.22 633.92 2281.81 710.28 2173.32 893.00 2367.49 868.93
00082660 00000067 1882.91 341.20 557.47 704.71 2087.22 666.52 2321.09 633.79 2276.18 715.72 2171.58 892.47 2363.41 866.47
00082661 00000068 1879.44 335.37 563.34 715.17 2086.09 665.90 2323.31 632.33 2275.91 713.26 2171.21 894.69 2362.99 868.20
00082662 00000069 1877.99 330.12 564.35 712.57 2086.74 664.38 2322.66 632.38 2276.08 713.50 2168.46 891.35 2361.03 866.52
00082663 00000070 1872.44 325.88 571.84 719.69 2084.05 662.41 2323.73 633.44 2275.36 709.20 2167.54 892.14 2356.18 870.46
00082664 00000071 1875.31 329.63 568.46 715.95 2084.95 661.82 2323.50 631.07 2274.81 708.59 2168.96 891.54 2357.94 868.04
00082665 00000072 1873.50 329.96 570.04 715.75 2084.05 660.82 2321.50 630.49 2274.81 707.50 2168.78 890.93 2357.51 867.77
00082666 00000073 1871.55 323.61 572.58 727.89 2081.26 659.17 2320.36 630.87 2271.92 705.05 2164.76 893.04 2354.77 872.10
00082667 00000074 1874.14 325.15 569.28 730.49 2079.94 657.49 2318.83 627.79 2268.01 703.77 2164.60 890.19 2351.72 868.08
00082668 00000075 1875.96 324.09 570.93 731.59 2082.87 659.10 2322.04 627.06 2272.54 703.05 2168.23 891.74 2358.64 867.46
00082669 00000076 1874.90 325.00 573.73 740.06 2084.16 660.81 2326.51 627.81 2280.09 700.15 2174.54 899.39 2365.86 874.28
00082670 00000077 1880.10 340.12 569.32 737.90 2087.09 659.41 2328.04 627.93 2280.99 695.66 2183.55 898.84 2364.77 874.10
00082671 00000078 1883.66 342.64 564.36 748.99 2085.94 661.95 2328.36 629.73 2277.36 697.77 2179.78 903.87 2363.62 878.28
00082672 00000079 1879.03 343.09 568.78 754.97 2084.41 664.61 2326.99 628.89 2276.86 700.53 2183.38 905.08 2361.30 876.32
00082673 00000080 1873.09 349.48 577.12 763.56 2089.34 665.46 2329.43 629.30 2275.98 708.96 2182.30 915.80 2360.40 887.41
00082674 00000081 1875.15 341.68 573.20 778.52 2085.38 664.87 2331.14 632.26 2283.42 707.79 2181.29 916.58 2363.75 890.70
00082675 00000082 1880.25 343.58 572.16 775.72 2088.37 663.25 2333.59 633.12 2285.30 705.97 2186.41 913.61 2365.14 891.40
00082676 00000083 1871.24 339.97 574.07 775.61 2085.23 666.29 2328.14 634.63 2282.00 711.60 2179.33 917.06 2359.40 891.92
00082677 00000084 1879.68 344.52 570.41 780.82 2086.32 663.96 2330.13 638.43 2281.38 709.38 2182.48 915.80 2358.57 897.38
00082678 00000085 1878.61 339.86 573.25 791.19 2086.10 664.84 2329.39 639.98 2280.10 709.21 2182.12 916.32 2356.64 898.43
00082679 00000086 1875.37 339.98 576.84 783.44 2083.72 665.46 2329.37 640.80 2279.61 711.93 2180.52 918.20 2357.01 900.29
00082680 00000087 1876.04 341.95 572.82 774.73 2083.76 665.96 2328.11 639.03 2277.33 714.22 2181.13 918.76 2357.58 898.84
00082681 00000088 1873.59 336.33 573.80 778.34 2079.44 668.57 2326.54 638.73 2273.69 718.14 2179.40 921.39 2357.12 899.18
00082682 00000089 1865.08 327.67 575.21 779.55 2072.85 670.86 2319.48 636.64 2268.23 721.79 2170.64 923.47 2348.89 897.60
00082683 00000090 1861.38 329.57 581.27 773.33 2067.75 673.87 2311.62 635.00 2263.16 724.15 2171.53 924.69 2348.30 895.04
00082684 00000091 1859.45 334.69 578.58 750.83 2062.41 672.52 2301.98 634.80 2257.53 721.17 2166.56 918.06 2341.29 889.79
00082685 00000092 1854.82 327.16 580.98 755.88 2056.24 673.37 2292.38 638.04 2246.59 717.98 2161.13 917.10 2332.38 891.68
00082686 00000093 1852.42 322.51 581.48 774.89 2051.30 672.01 2293.97 636.14 2240.64 715.47 2161.63 921.78 2332.63 895.42
00082687 00000094 1840.76 329.50 593.25 790.11 2041.51 673.40 2288.91 636.67 2232.28 716.00 2150.00 929.15 2329.03 901.31
00082688 00000095 1844.29 335.44 584.04 772.57 2035.97 673.85 2280.78 631.72 2220.59 716.36 2144.82 925.62 2322.71 892.75
00082689 DELETE   1837.46 336.15 589.00 787.64 2027.57 674.43 2274.40 631.07 2213.25 708.71 2135.47 928.76 2318.20 894.40
00082690 00000097 1837.83 341.34 577.33 772.50 2025.26 674.79 2270.63 632.38 2209.78 708.93 2131.49 925.37 2313.32 891.63
00082691 00000098 1829.83 330.90 575.24 781.70 2022.55 677.12 2265.79 634.30 2207.99 715.64 2131.80 927.13 2304.96 893.02
00082692 DELETE   1828.88 346.36 571.83 770.06 2020.78 677.08 2257.37 634.34 2199.31 712.16 2127.45 928.53 2299.32 895.46
00082693 00000100 1827.22 348.16 573.15 780.29 2018.46 673.25 2256.02 629.28 2200.83 710.21 2125.93 930.65 2303.73 896.00
00082694 00000101 1819.52 348.72 575.91 771.21 2013.28 668.35 2254.04 623.00 2198.54 701.12 2120.02 923.20 2301.19 887.51
00082695 00000102 1812.49 330.30 577.77 799.58 2001.71 670.72 2247.73 621.06 2198.93 694.58 2116.16 924.06 2300.35 883.86
00082696 00000103 1807.22 331.36 574.17 803.85 1997.28 667.70 2242.69 622.89 2197.15 692.09 2110.95 924.96 2290.64 889.18
00082697 00000104 1804.41 334.63 569.32 780.82 1996.11 665.38 2239.03 624.55 2195.31 692.83 2104.40 919.69 2286.27 887.51
00082698 00000105 1801.82 336.56 566.30 762.67 1993.67 664.90 2231.75 624.77 2191.17 694.92 2098.23 913.95 2280.54 882.70
00082699 00000106 1791.31 341.40 566.39 759.26 1988.27 662.58 2226.59 629.21 2189.05 687.57 2101.81 903.30 2274.37 878.90
00082700 00000107 1789.28 352.56 567.91 738.10 1986.71 658.61 2218.72 629.31 2181.84 691.69 2102.00 904.82 2276.33 882.01
00082701 00000108 1782.24 341.09 570.73 753.93 1983.96 658.73 2217.34 628.91 2181.76 688.63 2093.95 901.20 2266.40 879.82
00082702 00000109 1774.14 341.52 565.83 743.12 1980.49 656.75 2212.28 629.81 2182.00 693.24 2088.02 903.94 2263.97 884.16
00082703 00000110 1772.05 335.31 563.14 746.66 1979.40 655.78 2210.40 630.39 2179.87 693.73 2086.09 902.20 2258.70 883.72
00082704 DELETE   1759.64 325.75 567.07 778.49 1971.04 655.60 2205.27 631.55 2176.26 686.21 2078.55 902.93 2248.20 885.89
00082705 00000112 1756.96 322.39 567.72 798.69 1967.70 658.04 2202.93 633.06 2171.14 684.67 2075.00 907.84 2242.18 890.05
00082706 00000113 1753.89 331.64 567.70 789.61 1961.23 658.36 2199.66 632.95 2165.96 681.43 2072.59 909.03 2239.82 890.28
00082707 00000114 1755.80 352.02 562.55 758.21 1961.81 655.51 2195.15 635.16 2158.95 685.27 2068.71 907.59 2240.66 892.31
00082708 00000115 1753.51 359.26 558.62 760.93 1957.74 659.28 2191.50 635.50 2156.97 685.73 2065.29 915.01 2236.55 896.82
00082709 DELETE   1749.11 360.38 557.71 761.44 1957.80 660.81 2190.88 640.63 2160.64 685.91 2063.27 913.36 2234.31 898.44
00082710 DELETE   1738.64 355.38 563.54 762.44 1955.42 661.78 2185.97 641.66 2160.33 688.04 2063.88 914.17 2232.60 899.81
00082711 DELETE   1728.71 373.32 570.59 747.92 1951.50 665.28 2182.01 643.89 2160.81 693.12 2062.51 919.05 2230.28 903.28
00082712 00000119 1718.28 372.88 577.84 752.15 1947.89 669.08 2179.97 647.24 2163.92 696.16 2059.28 924.08 2231.34 908.26
00082713 DELETE   1709.56 384.03 583.10 744.64 1942.77 669.09 2176.71 649.54 2159.26 697.19 2050.93 926.56 2227.64 912.27
00082714 00000121 1707.97 370.48 583.98 753.11 1931.31 666.39 2170.11 649.34 2152.74 701.79 2051.96 916.92 2223.72 905.28
00082715 00000122 1702.14 376.81 587.76 748.03 1925.29 669.26 2165.45 649.60 2148.51 703.14 2046.46 921.05 2220.15 907.09
00082716 00000123 1697.83 377.24 589.85 745.25 1920.84 671.72 2160.52 650.16 2141.74 703.61 2043.98 921.68 2216.02 905.86
00082717 00000124 1691.81 372.23 591.68 743.84 1915.99 673.50 2153.97 652.27 2135.52 704.96 2040.92 920.75 2211.66 905.23
00082718 DELETE   1687.18 368.49 593.90 736.77 1914.69 677.16 2147.25 652.78 2132.47 705.94 2044.53 915.22 2210.48 897.39
00082719 DELETE   1689.93 380.89 580.76 729.89 1907.63 679.22 2141.17 655.37 2123.74 701.60 2038.35 919.71 2201.59 902.45
CROP_BBOX: 1342 0 2876 1412
