Video ID: 	YfoSLtRdUFQ
H: 	1080
W: 	1920
FPS: 	25.0

FRAME INDEX X0 Y0 W H [Landmarks (5 Points)]

00004671 00000000 1170.13 169.62 533.91 730.62 1310.18 471.23 1550.74 426.05 1468.33 600.64 1388.84 734.34 1587.75 695.22
00004672 00000001 1169.57 168.22 533.74 729.87 1309.36 477.80 1549.49 429.45 1466.81 599.03 1386.26 734.41 1588.09 692.97
00004673 DELETE   1178.33 164.99 521.52 735.31 1314.69 489.51 1554.99 438.27 1468.02 602.40 1384.45 733.68 1591.06 690.03
00004674 00000003 1173.54 163.21 525.68 738.22 1309.50 484.05 1551.44 432.82 1463.10 600.88 1379.64 731.78 1588.66 688.15
00004675 00000004 1169.12 160.30 529.22 740.31 1302.08 476.58 1548.52 424.55 1458.68 600.04 1374.96 730.35 1588.36 686.14
00004676 00000005 1165.02 158.25 529.61 749.77 1301.06 469.55 1545.85 420.12 1457.33 596.03 1374.83 731.35 1583.59 689.42
00004677 00000006 1157.36 161.58 530.38 745.24 1297.00 464.44 1535.84 420.97 1451.31 592.44 1369.75 731.57 1569.19 694.12
00004678 00000007 1158.51 155.13 531.80 749.71 1293.77 463.95 1541.90 414.69 1451.74 592.81 1368.12 727.63 1579.39 685.69
00004679 00000008 1156.96 155.01 533.27 742.51 1289.16 464.80 1539.58 414.58 1446.87 591.91 1363.09 724.75 1578.32 681.77
00004680 00000009 1155.59 156.13 535.64 741.54 1286.15 464.89 1536.87 414.33 1442.58 590.46 1359.52 724.02 1576.62 680.68
00004681 00000010 1153.01 155.31 537.79 743.36 1284.32 464.37 1534.12 414.08 1440.91 589.55 1359.51 725.82 1573.62 682.53
00004682 00000011 1153.16 156.41 536.27 741.61 1282.61 464.15 1533.00 413.93 1438.89 587.89 1357.61 726.17 1572.25 682.87
00004683 00000012 1150.96 154.46 537.65 741.05 1281.54 463.68 1532.41 413.45 1437.89 586.67 1355.98 724.72 1570.92 681.40
00004684 00000013 1148.89 154.11 538.68 742.56 1277.06 463.95 1528.89 412.58 1432.55 587.35 1352.38 726.23 1567.94 682.01
00004685 00000014 1145.15 155.07 539.76 751.31 1273.27 464.74 1524.57 413.83 1426.89 588.79 1349.09 731.32 1561.59 687.44
00004686 00000015 1139.96 164.09 536.58 737.01 1270.95 460.35 1518.87 415.94 1427.08 587.68 1350.62 735.22 1543.46 697.25
00004687 00000016 1136.12 163.07 532.72 734.30 1266.72 459.13 1513.91 418.62 1420.72 589.40 1346.68 735.89 1532.98 701.68
00004688 00000017 1132.48 165.12 531.36 730.36 1261.70 459.80 1509.23 420.87 1415.11 590.96 1342.60 735.46 1528.01 702.62
00004689 00000018 1136.85 160.78 530.09 740.13 1258.01 461.75 1499.91 421.63 1402.19 593.92 1333.04 731.74 1524.32 699.09
00004690 00000019 1131.41 163.27 535.84 738.58 1253.56 461.81 1496.75 420.22 1397.42 594.95 1329.77 731.12 1524.97 697.05
00004691 00000020 1127.71 162.51 537.90 739.26 1250.67 461.11 1494.63 418.19 1395.98 592.94 1327.52 728.79 1527.29 693.48
00004692 00000021 1125.73 161.14 537.90 738.43 1247.67 459.43 1492.67 416.50 1392.57 592.81 1323.59 726.48 1526.12 691.15
00004693 00000022 1125.21 159.39 535.64 737.39 1245.21 459.27 1490.23 416.16 1389.46 590.74 1320.15 724.65 1523.25 689.22
00004694 00000023 1121.92 159.60 537.33 737.00 1242.62 458.84 1487.92 415.13 1387.12 589.04 1318.29 723.79 1520.70 687.72
00004695 00000024 1120.85 158.29 535.75 736.86 1240.51 459.39 1485.90 416.18 1383.91 590.21 1315.49 723.26 1516.20 687.58
00004696 00000025 1119.41 159.82 535.05 737.04 1238.57 459.89 1484.83 417.10 1382.33 589.97 1312.97 722.88 1514.34 687.41
00004697 00000026 1116.81 159.51 534.46 737.43 1236.40 461.00 1482.87 417.88 1380.38 589.43 1310.57 722.92 1511.90 686.96
00004698 00000027 1114.15 160.94 533.64 733.18 1232.91 463.07 1480.55 419.04 1377.60 591.84 1307.87 725.30 1509.55 688.51
00004699 00000028 1113.23 161.46 532.16 734.06 1232.51 466.07 1477.19 421.70 1375.50 590.71 1306.20 726.76 1506.01 689.54
00004700 00000029 1111.16 162.44 531.33 734.87 1231.59 467.07 1475.14 421.97 1374.70 590.09 1305.57 727.45 1505.06 689.53
00004701 00000030 1109.93 161.11 530.64 735.16 1229.38 467.35 1473.99 421.72 1372.50 591.56 1302.64 727.43 1502.17 689.13
00004702 00000031 1109.65 161.25 527.99 738.19 1228.71 467.97 1472.57 422.64 1371.19 591.88 1301.57 730.77 1498.03 692.82
00004703 00000032 1105.34 161.16 529.24 740.91 1226.38 469.37 1472.67 423.92 1370.67 594.31 1299.76 735.05 1493.51 696.95
00004704 00000033 1103.97 162.15 528.55 739.36 1225.98 469.87 1469.65 425.59 1367.10 591.48 1297.94 734.53 1487.74 697.42
00004705 00000034 1103.61 163.96 526.43 740.54 1223.22 471.90 1467.02 427.28 1364.69 592.77 1295.10 736.44 1486.51 698.94
00004706 00000035 1099.49 161.94 530.38 745.93 1220.72 470.34 1465.40 425.43 1362.11 591.96 1291.28 736.16 1486.20 698.27
00004707 00000036 1098.37 164.01 529.95 742.34 1217.34 470.85 1462.83 425.47 1358.36 592.79 1289.14 738.41 1483.51 700.18
00004708 00000037 1094.30 164.55 534.27 741.79 1214.10 472.27 1461.16 425.96 1355.25 592.68 1286.85 740.11 1480.15 700.99
00004709 00000038 1093.13 167.17 531.09 743.31 1213.20 473.28 1459.53 427.66 1353.95 595.38 1286.30 742.66 1478.09 704.13
00004710 00000039 1092.72 168.23 530.51 747.74 1212.86 473.82 1458.05 429.46 1352.85 596.90 1284.62 748.00 1473.50 710.42
00004711 00000040 1092.60 172.16 530.37 744.21 1210.80 478.22 1455.22 433.11 1348.19 602.34 1281.48 749.84 1474.20 711.64
00004712 00000041 1091.03 178.90 529.65 734.78 1207.53 484.87 1455.06 441.98 1344.10 607.22 1271.74 749.81 1474.03 713.24
00004713 00000042 1090.34 181.77 530.85 731.78 1206.54 483.62 1452.62 450.28 1337.31 611.37 1266.50 744.63 1467.91 715.90
00004714 00000043 1089.88 185.63 532.29 730.93 1206.34 483.86 1452.88 452.81 1336.23 614.95 1266.34 746.72 1465.05 720.14
00004715 00000044 1090.62 187.45 531.53 728.98 1208.36 485.10 1454.30 455.30 1337.47 617.10 1269.83 750.82 1461.76 725.82
00004716 00000045 1091.83 187.00 531.40 730.34 1210.39 486.86 1456.48 457.92 1339.39 618.11 1270.79 752.71 1461.26 728.46
00004717 00000046 1092.39 188.05 530.89 729.81 1210.56 488.97 1458.24 459.85 1341.77 622.20 1271.04 754.13 1464.37 729.73
00004718 00000047 1093.40 190.80 528.94 727.84 1212.98 489.68 1460.15 462.13 1343.88 622.83 1271.15 754.83 1463.66 731.82
00004719 00000048 1094.28 190.61 526.72 728.65 1213.94 489.10 1460.30 462.33 1344.38 624.18 1271.59 754.94 1462.37 732.70
00004720 00000049 1096.08 192.16 524.99 729.91 1214.99 490.43 1460.31 463.01 1345.21 625.08 1273.06 756.74 1463.88 734.16
00004721 00000050 1096.49 192.22 524.64 730.31 1215.08 490.17 1461.11 463.26 1345.57 626.41 1272.85 756.92 1465.21 734.72
00004722 00000051 1097.60 191.91 523.94 729.67 1215.70 490.30 1462.79 463.44 1346.66 626.72 1272.98 756.67 1466.61 734.54
00004723 00000052 1099.13 192.03 522.52 729.24 1216.67 490.50 1463.43 464.03 1347.68 627.56 1273.64 756.23 1467.58 734.41
00004724 00000053 1099.05 192.20 522.99 729.02 1217.23 490.42 1464.29 464.26 1348.49 627.56 1274.03 755.91 1468.58 734.37
00004725 00000054 1099.01 192.53 522.66 728.07 1217.51 490.40 1464.57 464.47 1349.29 628.19 1274.34 755.81 1468.65 734.45
00004726 00000055 1099.67 194.62 522.89 726.29 1217.80 490.56 1465.79 464.63 1349.66 628.09 1274.45 755.93 1468.89 734.61
00004727 00000056 1099.67 192.96 523.29 727.27 1218.00 489.88 1466.40 464.32 1350.08 628.42 1274.62 755.90 1468.57 734.92
00004728 00000057 1099.97 194.46 523.21 726.43 1218.44 489.71 1465.90 465.11 1349.45 627.52 1274.25 754.73 1468.24 734.43
00004729 00000058 1099.38 194.01 524.25 727.44 1218.10 488.75 1465.37 464.34 1348.80 627.07 1273.94 754.62 1466.96 734.48
00004730 00000059 1099.66 192.79 522.73 727.24 1217.65 488.52 1464.93 464.13 1348.15 627.21 1273.35 754.57 1465.75 734.48
00004731 00000060 1098.27 192.68 523.98 727.81 1217.01 487.92 1464.05 463.74 1347.09 627.18 1273.05 754.57 1464.56 734.68
00004732 00000061 1097.61 192.97 523.40 727.97 1216.54 487.63 1463.09 463.44 1346.28 627.05 1272.62 755.16 1463.01 735.27
00004733 00000062 1096.55 192.08 523.95 727.97 1215.39 487.88 1461.39 463.51 1344.35 625.28 1271.25 754.85 1461.21 734.80
00004734 00000063 1093.93 191.76 526.71 727.84 1212.95 487.93 1459.49 462.60 1342.11 625.19 1270.32 755.94 1458.80 735.07
00004735 00000064 1092.67 191.88 526.64 727.71 1211.59 488.08 1457.80 462.00 1340.08 624.51 1269.96 756.78 1456.19 735.40
00004736 00000065 1088.80 190.28 529.64 728.97 1208.47 487.19 1455.89 461.30 1337.84 625.27 1268.02 758.05 1454.38 736.89
00004737 00000066 1086.49 191.02 530.11 727.92 1205.97 487.36 1454.19 460.96 1335.59 625.21 1265.68 758.26 1452.95 736.69
00004738 00000067 1084.76 190.86 528.54 728.28 1206.03 490.40 1454.05 462.46 1335.45 625.21 1260.44 761.85 1450.20 738.57
00004739 00000068 1084.69 199.35 527.75 712.11 1201.65 485.94 1453.38 461.39 1334.42 624.31 1264.04 753.87 1452.12 733.49
00004740 00000069 1083.94 196.95 527.44 714.35 1200.22 484.66 1451.54 459.68 1332.87 623.00 1263.21 753.30 1450.03 732.63
00004741 00000070 1083.25 196.13 525.51 718.01 1198.60 484.98 1449.18 459.37 1331.18 624.22 1261.54 755.66 1446.89 734.68
00004742 00000071 1081.77 194.65 526.76 724.21 1197.70 484.47 1447.76 459.20 1329.79 624.96 1261.15 758.18 1444.29 737.61
00004743 00000072 1081.90 193.36 525.92 729.84 1196.12 485.60 1445.96 459.30 1328.58 627.62 1260.27 761.76 1443.50 740.34
00004744 00000073 1081.37 186.78 527.99 740.67 1197.10 490.48 1446.13 461.00 1324.38 627.95 1257.92 764.33 1445.36 740.24
00004745 00000074 1083.10 184.74 518.67 745.00 1205.05 504.27 1439.10 473.70 1325.20 627.36 1256.25 765.05 1441.24 739.50
00004746 00000075 1081.78 182.78 520.98 752.24 1202.51 505.80 1441.08 473.23 1325.78 626.96 1251.75 764.23 1449.06 736.57
00004747 00000076 1080.29 186.01 525.20 747.66 1202.76 502.68 1444.07 471.29 1328.58 626.55 1251.11 761.97 1452.66 735.17
00004748 00000077 1079.73 186.21 528.64 748.98 1199.86 502.00 1445.52 471.41 1328.10 628.63 1247.76 761.49 1457.38 735.06
00004749 00000078 1081.80 187.91 528.99 744.56 1199.39 498.98 1445.03 468.08 1325.65 631.54 1252.95 761.30 1456.44 735.16
00004750 00000079 1077.85 190.98 529.08 737.38 1197.38 503.93 1445.15 473.21 1326.72 632.91 1248.02 766.02 1451.80 739.75
00004751 00000080 1078.74 191.26 528.29 737.19 1197.97 504.86 1443.68 475.27 1324.70 635.55 1248.33 765.80 1450.46 740.55
00004752 00000081 1077.84 194.43 527.13 731.35 1198.66 505.49 1443.46 475.37 1326.09 637.91 1250.04 766.12 1449.24 740.65
00004753 00000082 1077.50 199.66 529.24 727.43 1199.44 504.74 1444.80 475.91 1326.90 639.45 1250.47 766.49 1448.86 742.14
00004754 00000083 1080.81 203.66 529.89 723.39 1196.14 503.97 1445.69 480.27 1323.73 643.30 1250.92 762.16 1450.41 742.86
00004755 00000084 1079.39 199.01 531.79 732.47 1197.80 500.31 1444.17 474.20 1323.80 640.31 1250.14 761.65 1451.26 739.30
00004756 00000085 1077.72 203.30 530.60 726.47 1198.93 506.72 1443.52 479.26 1324.65 640.51 1246.57 763.46 1450.70 739.97
00004757 00000086 1077.60 200.82 531.03 726.55 1198.45 507.16 1443.18 480.06 1323.90 640.09 1245.99 762.15 1450.50 738.90
00004758 00000087 1077.76 201.20 530.95 726.54 1198.20 506.09 1443.12 478.74 1323.48 638.99 1246.06 762.34 1450.16 738.94
00004759 00000088 1078.39 198.48 529.37 726.57 1198.72 504.86 1443.48 476.94 1324.00 638.05 1248.40 764.61 1447.31 741.00
00004760 00000089 1081.42 195.77 527.04 730.59 1196.42 499.64 1444.36 477.21 1322.81 638.23 1254.44 763.89 1442.70 745.78
00004761 00000090 1080.95 188.42 524.81 745.39 1203.00 499.06 1445.37 472.04 1325.92 629.88 1254.59 775.97 1434.72 754.05
00004762 00000091 1082.71 187.46 525.11 742.86 1202.90 492.07 1442.36 465.77 1325.40 630.09 1262.81 769.99 1432.79 749.33
00004763 00000092 1083.72 182.21 525.44 747.30 1203.93 487.27 1444.71 461.42 1328.03 627.33 1263.09 767.26 1434.87 747.09
00004764 00000093 1084.43 184.89 525.01 743.58 1204.03 488.54 1445.58 462.91 1328.63 629.68 1262.90 766.45 1436.74 746.29
00004765 00000094 1082.26 187.95 528.15 751.76 1206.56 496.88 1451.14 471.72 1333.58 631.88 1259.47 778.98 1440.11 758.27
00004766 00000095 1082.10 197.04 531.13 748.51 1205.52 510.11 1454.32 482.63 1333.74 643.91 1258.29 786.12 1451.06 763.30
00004767 00000096 1086.33 209.66 528.70 739.11 1204.94 514.58 1454.88 491.47 1333.91 664.81 1257.63 784.50 1452.37 765.18
00004768 00000097 1087.59 215.17 528.36 736.95 1204.25 519.38 1454.57 497.41 1331.46 672.30 1255.42 787.44 1452.58 768.99
00004769 00000098 1089.17 218.38 529.04 737.69 1206.21 521.64 1456.40 500.33 1332.83 676.02 1256.17 790.37 1453.17 772.49
00004770 00000099 1089.56 219.66 527.77 736.77 1208.32 523.45 1457.24 502.51 1334.80 677.06 1258.81 793.80 1449.00 776.44
00004771 00000100 1090.69 224.04 528.09 735.33 1208.91 525.28 1460.11 504.06 1337.43 682.44 1260.32 796.54 1453.01 778.81
00004772 00000101 1093.17 224.85 527.22 739.23 1210.22 526.30 1460.07 505.54 1338.29 686.02 1261.82 799.35 1452.23 782.16
00004773 00000102 1092.58 225.35 528.91 742.43 1211.89 526.74 1460.09 506.07 1339.47 687.07 1263.78 800.94 1452.53 783.74
00004774 00000103 1093.15 224.62 527.13 741.37 1212.02 525.64 1460.58 506.05 1339.57 686.41 1263.19 799.80 1451.51 783.57
00004775 DELETE   1092.55 222.61 526.85 741.58 1212.76 523.22 1459.51 505.19 1339.00 683.51 1262.75 797.16 1448.44 782.24
00004776 00000105 1090.92 217.00 529.03 741.85 1213.81 519.65 1459.70 501.40 1338.77 677.27 1262.57 790.80 1448.98 775.63
00004777 00000106 1092.27 214.49 527.60 734.13 1213.75 515.20 1462.23 496.73 1339.89 671.37 1262.30 784.01 1451.65 768.73
00004778 00000107 1092.45 208.78 526.51 732.28 1214.13 511.97 1462.31 492.68 1340.66 664.73 1264.30 778.39 1453.68 762.32
00004779 00000108 1091.11 203.77 526.46 732.53 1213.89 506.89 1463.80 488.16 1342.54 658.62 1264.12 773.00 1455.14 757.42
00004780 00000109 1089.30 198.45 527.33 732.83 1212.70 501.16 1460.79 482.77 1340.88 650.09 1265.24 769.26 1452.95 753.99
00004781 00000110 1090.46 193.32 525.94 734.67 1211.87 497.19 1459.11 478.05 1338.32 645.13 1264.94 766.63 1450.47 751.04
00004782 00000111 1089.20 192.50 526.46 734.94 1210.66 497.25 1455.42 476.64 1336.19 643.14 1265.24 766.70 1447.70 749.93
00004783 00000112 1088.86 193.44 527.05 735.24 1209.96 496.20 1454.38 474.98 1335.14 642.61 1265.57 766.84 1447.74 749.57
00004784 00000113 1088.76 193.92 526.68 733.57 1210.26 495.98 1453.93 475.04 1334.57 641.54 1266.82 767.30 1445.59 750.44
00004785 00000114 1088.37 193.16 528.51 736.86 1208.78 495.53 1453.28 472.45 1333.40 639.07 1266.88 768.04 1448.52 749.34
00004786 00000115 1088.13 192.59 532.58 744.51 1208.76 495.32 1452.93 472.08 1332.66 638.99 1264.75 767.36 1452.77 748.34
00004787 00000116 1088.26 191.99 533.18 753.69 1208.77 496.34 1453.23 472.99 1333.16 638.57 1261.52 766.39 1459.47 746.96
00004788 00000117 1088.17 193.10 535.28 755.28 1208.61 497.32 1455.41 475.19 1334.63 641.75 1260.56 766.17 1463.49 747.40
00004789 00000118 1087.92 196.51 534.09 749.38 1207.85 499.81 1456.81 478.43 1335.18 645.38 1257.93 766.46 1464.38 748.15
00004790 00000119 1088.03 196.04 533.43 748.70 1208.22 501.06 1456.68 479.42 1335.27 644.38 1257.41 766.05 1463.50 747.51
00004791 00000120 1087.61 197.67 533.95 746.52 1207.92 500.99 1456.93 479.70 1335.25 645.31 1257.13 765.31 1464.30 746.96
00004792 00000121 1087.83 198.87 534.00 740.90 1207.24 500.96 1456.75 480.71 1333.81 645.50 1255.58 763.24 1462.45 745.71
00004793 00000122 1086.58 198.53 534.57 739.21 1206.01 501.76 1455.48 481.09 1332.22 646.38 1254.46 761.45 1462.61 743.49
00004794 00000123 1085.86 200.05 534.32 740.92 1204.60 502.63 1453.80 481.87 1330.53 647.58 1252.71 763.46 1460.45 745.40
00004795 00000124 1083.66 200.31 534.49 743.41 1203.20 504.13 1452.44 482.67 1329.01 647.39 1251.76 766.07 1458.46 747.44
00004796 00000125 1083.27 200.40 533.21 745.99 1200.76 505.38 1450.75 483.82 1326.37 649.12 1249.47 768.66 1457.21 749.97
00004797 DELETE   1083.08 202.82 529.51 745.56 1200.73 511.34 1444.71 486.12 1324.68 650.73 1250.89 771.94 1455.46 750.09
00004798 00000127 1081.44 201.51 529.29 745.93 1199.89 514.15 1441.52 488.10 1322.85 652.77 1250.81 773.87 1451.79 751.33
00004799 00000128 1080.16 203.31 528.72 741.55 1196.40 515.45 1439.83 488.31 1320.63 660.55 1252.97 779.12 1446.06 756.10
00004800 00000129 1079.15 207.93 527.30 736.99 1193.56 516.78 1439.22 492.43 1316.77 669.30 1250.77 782.77 1440.46 762.20
00004801 00000130 1076.80 209.18 530.21 739.61 1190.54 514.49 1437.96 492.33 1313.23 671.94 1247.79 784.21 1438.30 765.49
00004802 00000131 1075.40 209.96 533.62 744.70 1191.32 507.65 1438.46 489.10 1312.25 669.23 1246.23 782.05 1434.60 766.50
00004803 00000132 1075.01 216.08 531.27 734.71 1186.56 501.04 1440.37 480.88 1316.03 663.24 1251.73 785.36 1434.27 767.16
00004804 00000133 1076.05 207.67 533.74 738.68 1189.38 498.18 1438.70 476.13 1316.14 663.52 1254.76 783.49 1433.19 765.34
00004805 00000134 1076.14 206.31 536.30 737.47 1191.53 493.22 1441.71 470.35 1320.11 657.22 1258.45 780.58 1436.95 761.71
00004806 00000135 1079.79 203.29 536.84 736.01 1194.36 486.87 1444.42 463.56 1321.69 648.30 1261.26 775.63 1439.65 756.81
00004807 00000136 1081.67 196.01 536.39 737.57 1197.91 480.24 1445.71 458.71 1323.32 639.02 1263.96 769.02 1437.01 752.01
00004808 00000137 1085.28 194.81 534.73 738.28 1199.89 477.36 1446.28 457.06 1322.75 635.93 1263.27 766.62 1436.07 750.86
00004809 00000138 1085.58 193.94 534.09 738.84 1200.32 477.86 1447.36 458.34 1323.77 636.85 1262.93 766.51 1436.73 751.21
00004810 00000139 1083.89 197.20 535.79 734.08 1198.05 482.09 1448.26 461.14 1322.75 641.11 1260.81 767.09 1440.71 750.26
00004811 00000140 1083.44 201.49 536.80 731.02 1196.56 484.53 1445.46 463.68 1319.42 643.18 1258.34 767.60 1438.74 750.75
00004812 00000141 1083.47 199.71 537.00 731.11 1194.50 483.67 1443.99 462.94 1316.99 644.16 1255.99 765.96 1439.09 749.14
00004813 00000142 1083.52 197.63 534.98 730.07 1193.86 483.21 1446.15 462.57 1318.12 645.82 1250.25 770.25 1439.49 753.53
00004814 00000143 1083.87 196.28 535.53 732.90 1193.55 481.29 1445.73 460.32 1317.38 641.54 1250.45 769.26 1438.89 752.22
00004815 00000144 1081.51 192.06 537.25 738.66 1192.47 489.97 1442.69 464.08 1313.99 636.25 1248.48 771.80 1437.04 750.81
00004816 00000145 1082.97 188.07 530.85 738.10 1189.90 486.89 1433.94 461.92 1303.98 630.16 1242.17 764.83 1426.45 744.99
00004817 00000146 1076.57 181.82 535.16 737.63 1184.35 471.59 1430.41 450.83 1298.35 618.20 1240.21 751.44 1422.03 734.65
00004818 00000147 1072.57 175.09 537.52 738.58 1177.92 462.87 1426.29 441.25 1291.31 609.20 1233.89 746.93 1416.58 729.23
00004819 00000148 1070.05 168.92 539.14 742.92 1175.92 455.08 1423.62 434.67 1288.35 602.76 1231.37 741.93 1411.84 725.18
00004820 00000149 1065.23 166.60 542.30 742.54 1173.23 450.31 1422.24 431.75 1287.19 601.97 1229.66 738.88 1409.89 723.61
00004821 00000150 1063.91 166.60 541.88 743.22 1171.70 449.09 1420.10 430.73 1285.47 600.73 1228.56 739.49 1408.57 724.43
00004822 00000151 1062.31 165.90 542.17 743.91 1170.79 448.36 1418.47 429.72 1284.97 600.42 1228.22 739.07 1408.10 723.65
00004823 00000152 1062.33 164.78 542.45 745.77 1170.47 448.09 1418.63 428.66 1285.28 600.19 1228.60 739.35 1410.35 723.18
00004824 00000153 1061.94 164.85 543.18 744.41 1169.34 446.43 1418.52 426.46 1284.87 599.78 1228.23 737.54 1412.36 720.81
00004825 00000154 1060.79 164.43 543.02 742.81 1168.20 445.87 1417.72 424.83 1284.09 597.97 1227.76 734.63 1412.48 716.89
00004826 00000155 1059.68 163.77 543.98 744.19 1167.35 445.23 1416.66 423.96 1283.42 597.19 1226.33 734.26 1412.29 716.30
00004827 00000156 1060.22 163.51 544.30 742.35 1167.71 444.31 1417.45 423.83 1283.45 598.30 1227.32 732.75 1412.40 715.36
00004828 00000157 1061.22 163.49 543.01 742.80 1167.68 445.50 1417.93 426.02 1283.16 601.77 1225.16 731.21 1413.23 714.72
00004829 00000158 1062.27 165.13 541.42 741.17 1169.36 447.21 1419.21 428.98 1284.08 603.67 1224.91 731.85 1412.98 716.44
00004830 00000159 1063.87 165.74 540.32 741.93 1171.19 448.92 1421.10 431.18 1285.37 603.96 1226.05 734.43 1412.16 719.66
00004831 00000160 1064.00 167.03 539.61 744.98 1172.99 450.02 1421.63 433.10 1286.67 605.01 1226.40 736.86 1410.75 722.96
00004832 00000161 1061.69 167.73 539.64 746.55 1173.56 454.22 1420.72 435.02 1288.05 604.14 1229.57 742.98 1406.37 727.45
00004833 00000162 1067.75 169.94 534.69 741.07 1177.95 459.22 1426.54 442.92 1289.29 603.69 1227.32 738.00 1410.73 724.81
