Video ID: 	VJnw2tddTQc
H: 	2160
W: 	3840
FPS: 	23.976023976023978

FRAME INDEX X0 Y0 W H [Landmarks (5 Points)]

00009458 00000000 843.81 518.83 646.56 904.24 1044.36 894.26 1329.90 868.09 1214.72 1035.78 1087.36 1197.07 1338.61 1177.07
00009459 00000001 844.56 522.41 647.28 899.89 1045.20 895.35 1329.62 868.13 1216.35 1037.20 1092.66 1200.81 1337.47 1179.51
00009460 00000002 842.64 525.99 647.05 903.91 1045.28 895.16 1325.77 869.53 1212.80 1036.48 1091.56 1203.62 1330.09 1183.54
00009461 00000003 841.70 529.34 648.91 904.36 1043.15 893.25 1324.05 869.20 1208.46 1035.14 1089.01 1204.26 1325.60 1185.45
00009462 00000004 840.70 531.42 652.17 909.85 1041.71 892.57 1323.45 869.58 1206.69 1034.65 1083.65 1205.06 1326.44 1187.10
00009463 00000005 841.87 532.07 650.42 917.32 1034.72 894.06 1319.70 870.76 1199.54 1035.98 1074.10 1206.67 1324.54 1188.73
00009464 00000006 841.82 538.82 645.25 921.45 1026.90 902.24 1313.35 881.01 1185.62 1053.66 1069.06 1218.17 1313.97 1199.03
00009465 DELETE   833.97 556.38 644.80 914.68 1011.60 912.61 1295.46 892.33 1160.93 1066.20 1049.53 1224.77 1301.74 1206.20
00009466 00000008 823.53 568.13 647.42 913.65 996.37 931.53 1281.45 903.13 1146.89 1072.21 1039.83 1231.30 1295.02 1206.06
00009467 00000009 815.32 567.86 658.44 924.14 983.57 936.40 1271.29 900.02 1146.02 1083.46 1042.76 1234.43 1293.87 1202.65
00009468 00000010 823.16 570.54 646.94 915.93 994.98 938.89 1277.12 908.49 1144.33 1078.15 1040.90 1237.24 1296.48 1210.36
00009469 00000011 824.94 571.28 644.94 917.06 992.39 940.99 1272.18 911.26 1137.11 1080.12 1036.43 1240.16 1292.99 1214.08
00009470 DELETE   820.65 570.08 655.17 918.22 982.17 948.02 1262.10 915.61 1118.90 1085.37 1027.04 1242.58 1286.38 1217.60
00009471 00000013 820.62 581.77 655.82 914.41 979.94 947.63 1262.81 917.20 1114.25 1086.58 1024.07 1244.79 1284.55 1221.07
00009472 00000014 821.10 585.04 655.53 913.28 982.13 949.33 1265.52 918.85 1117.35 1087.72 1026.93 1246.85 1286.38 1223.04
00009473 00000015 822.15 582.98 656.26 915.14 983.60 950.58 1268.11 920.26 1119.75 1088.19 1029.67 1248.53 1288.33 1224.92
00009474 00000016 824.08 576.95 656.27 922.16 982.79 950.96 1268.31 922.75 1116.84 1091.87 1028.29 1249.37 1286.39 1227.52
00009475 00000017 827.60 582.59 652.71 918.52 985.75 952.77 1271.36 926.01 1119.87 1094.92 1031.76 1252.74 1285.41 1232.10
00009476 00000018 831.31 583.45 653.55 916.37 990.97 954.24 1276.61 929.66 1126.12 1098.17 1036.75 1255.19 1288.96 1236.17
00009477 00000019 830.16 592.53 654.14 898.75 989.19 958.34 1276.17 934.23 1125.52 1101.56 1035.77 1255.41 1286.06 1237.24
00009478 00000020 830.43 587.14 652.38 884.26 984.70 957.86 1275.50 937.39 1121.03 1099.04 1027.89 1248.10 1278.26 1233.61
00009479 00000021 830.52 588.08 650.65 870.23 982.34 949.36 1272.52 933.75 1116.66 1096.83 1023.32 1243.62 1269.49 1231.79
00009480 DELETE   829.71 583.85 649.09 869.72 978.84 952.93 1271.91 936.30 1113.08 1100.49 1020.79 1240.77 1268.06 1229.09
00009481 00000023 830.76 585.74 649.97 876.47 984.40 948.98 1272.11 930.44 1118.25 1094.58 1028.09 1241.74 1272.17 1227.07
00009482 00000024 827.16 576.04 657.43 904.29 979.34 952.63 1270.09 931.28 1112.45 1101.50 1022.42 1246.47 1276.96 1230.93
00009483 00000025 827.44 574.41 655.39 908.29 978.17 950.25 1271.26 929.02 1112.44 1098.91 1019.44 1245.06 1277.93 1229.31
00009484 00000026 831.66 582.71 649.52 892.27 989.66 942.64 1277.48 924.05 1125.57 1091.13 1031.32 1244.87 1281.29 1229.25
00009485 DELETE   838.88 560.94 650.34 888.03 1004.08 940.02 1285.24 924.41 1138.77 1088.68 1047.27 1234.13 1284.26 1221.53
00009486 00000028 848.34 565.25 646.38 861.94 1010.56 936.32 1293.75 923.02 1146.33 1085.62 1051.68 1228.01 1285.60 1217.70
00009487 DELETE   850.47 560.10 644.99 863.88 1010.71 935.53 1293.74 921.56 1146.39 1083.52 1050.59 1222.24 1288.76 1211.39
00009488 00000030 853.05 563.18 641.13 860.49 1014.03 935.09 1292.37 919.07 1148.55 1081.29 1055.18 1216.48 1290.43 1203.31
00009489 00000031 857.09 560.18 639.90 857.76 1019.01 931.36 1298.82 913.85 1158.91 1080.99 1062.39 1213.26 1297.66 1197.77
00009490 00000032 862.62 565.69 639.30 854.37 1026.51 933.89 1306.09 911.85 1171.53 1083.62 1073.05 1213.05 1310.49 1192.28
00009491 00000033 867.69 568.76 639.33 853.88 1032.48 935.88 1315.13 914.56 1179.17 1085.69 1078.30 1215.04 1317.80 1194.35
00009492 00000034 868.82 570.59 642.31 852.16 1033.38 935.90 1318.55 915.84 1179.74 1087.19 1079.36 1216.12 1317.38 1196.54
00009493 00000035 874.88 576.54 637.00 846.80 1038.10 938.08 1323.78 919.79 1183.70 1088.96 1082.72 1216.82 1320.43 1198.47
00009494 00000036 876.23 582.19 647.51 852.81 1041.90 939.58 1333.50 916.93 1192.52 1088.05 1081.07 1224.05 1331.08 1207.40
00009495 00000037 880.00 583.89 646.33 856.60 1047.49 941.03 1339.29 917.29 1200.17 1087.53 1090.62 1231.73 1336.14 1214.27
00009496 00000038 879.31 573.87 647.54 865.60 1049.57 939.34 1339.04 917.09 1200.63 1089.00 1090.60 1230.04 1332.95 1213.89
00009497 00000039 878.51 577.37 647.32 860.27 1046.97 938.07 1336.20 917.99 1195.67 1089.58 1086.94 1228.35 1326.64 1214.23
00009498 00000040 879.47 581.34 645.19 856.99 1047.45 937.89 1336.73 919.67 1194.21 1088.78 1087.87 1227.85 1324.14 1215.43
00009499 00000041 881.82 579.52 645.15 860.89 1052.18 937.17 1339.94 917.16 1200.71 1088.78 1095.37 1229.64 1329.52 1215.09
00009500 00000042 884.72 575.96 647.04 874.79 1055.47 934.27 1341.94 915.20 1202.95 1089.75 1101.31 1233.04 1332.19 1218.68
00009501 00000043 883.18 578.58 647.54 877.37 1052.22 937.52 1340.72 918.90 1199.30 1092.22 1100.69 1238.80 1327.95 1225.64
00009502 DELETE   884.14 583.87 645.33 862.39 1055.97 938.57 1347.73 923.31 1207.66 1098.71 1098.14 1230.35 1336.23 1218.51
00009503 00000045 886.99 585.02 643.87 857.22 1063.21 942.05 1354.50 927.46 1218.76 1106.09 1101.96 1227.27 1346.68 1215.08
00009504 00000046 888.33 589.54 644.46 856.93 1066.33 941.30 1358.61 929.25 1222.26 1107.63 1103.51 1226.97 1351.92 1216.19
00009505 00000047 887.66 594.78 641.25 856.52 1062.26 943.81 1354.17 931.82 1217.03 1108.99 1098.38 1230.43 1347.55 1220.35
00009506 00000048 886.58 589.46 642.18 864.54 1061.57 945.20 1351.66 933.62 1213.48 1106.79 1097.54 1232.92 1340.09 1224.09
00009507 00000049 886.52 580.05 642.47 868.04 1061.22 944.70 1353.34 933.50 1214.20 1108.94 1097.51 1236.87 1336.30 1229.18
00009508 00000050 886.20 582.29 641.77 862.51 1059.96 942.41 1354.22 930.83 1214.07 1106.98 1096.84 1236.35 1337.08 1228.19
00009509 00000051 885.30 580.16 638.91 865.44 1056.58 940.36 1349.68 928.44 1208.57 1101.59 1094.77 1235.76 1329.84 1228.11
00009510 00000052 881.53 578.84 643.47 872.62 1049.37 939.55 1341.84 926.29 1196.16 1099.89 1092.24 1238.29 1319.09 1230.24
00009511 00000053 878.85 581.77 642.60 864.90 1046.09 936.05 1337.27 924.36 1190.11 1097.90 1087.05 1236.16 1312.72 1229.57
00009512 00000054 874.16 586.55 645.13 859.10 1042.06 936.15 1334.12 922.85 1187.35 1095.54 1084.81 1236.51 1309.48 1228.80
00009513 00000055 870.26 588.79 645.57 856.14 1037.43 936.49 1329.22 919.89 1184.86 1093.13 1082.03 1236.28 1309.94 1225.78
00009514 00000056 866.47 578.20 636.92 859.68 1033.06 937.31 1320.53 923.73 1178.07 1091.78 1080.07 1232.43 1304.56 1219.54
00009515 00000057 859.63 578.21 636.55 850.37 1025.11 935.11 1310.54 925.15 1166.44 1089.21 1065.32 1228.23 1295.62 1219.32
00009516 00000058 848.82 574.09 641.47 859.19 1015.84 937.97 1301.36 926.84 1156.12 1088.32 1055.19 1228.32 1289.47 1219.01
00009517 00000059 840.23 571.05 645.75 864.24 1012.31 939.49 1297.12 928.44 1152.39 1088.07 1053.75 1229.06 1283.40 1220.04
00009518 00000060 836.48 570.63 648.01 864.38 1009.10 939.63 1296.93 928.18 1151.54 1089.11 1049.88 1226.53 1286.37 1216.83
00009519 00000061 833.09 566.59 648.71 867.27 1005.70 940.32 1292.71 927.57 1149.24 1090.84 1046.30 1227.58 1286.43 1216.92
00009520 00000062 830.84 561.36 649.68 871.43 1003.21 940.75 1290.47 927.78 1146.77 1092.57 1041.83 1227.27 1284.73 1216.70
00009521 00000063 833.56 562.79 649.74 867.43 1005.01 940.34 1291.56 927.12 1147.92 1091.73 1046.17 1226.97 1284.28 1216.05
00009522 00000064 837.51 567.63 647.87 868.61 1008.96 940.98 1297.33 927.89 1152.71 1089.99 1050.13 1229.92 1288.28 1219.03
00009523 00000065 841.01 575.71 647.04 862.97 1016.73 941.22 1300.55 928.13 1158.67 1089.52 1061.13 1231.42 1287.72 1220.33
00009524 00000066 845.10 582.82 643.12 858.92 1018.42 949.31 1298.27 934.33 1158.08 1094.28 1062.31 1234.98 1288.66 1222.67
00009525 00000067 844.80 580.06 644.84 865.15 1017.44 952.38 1295.34 937.19 1156.12 1100.91 1058.86 1236.59 1290.02 1224.01
00009526 00000068 849.10 589.40 645.90 859.74 1022.89 951.17 1301.90 937.78 1162.66 1100.19 1060.90 1235.26 1294.21 1223.64
00009527 00000069 858.42 589.84 647.41 866.08 1028.80 948.16 1312.12 932.66 1169.83 1098.52 1066.03 1236.65 1303.49 1226.89
00009528 00000070 864.57 588.78 646.76 864.87 1030.65 945.14 1318.67 930.20 1174.37 1095.66 1067.31 1236.04 1308.00 1226.72
00009529 00000071 864.67 585.79 640.13 859.88 1032.58 943.08 1316.08 933.68 1173.73 1097.21 1069.53 1235.74 1302.78 1226.79
00009530 00000072 864.76 579.22 636.77 856.67 1030.14 940.36 1312.62 931.91 1169.34 1094.56 1066.64 1234.75 1298.45 1227.39
00009531 00000073 862.48 580.97 637.76 849.48 1028.69 937.05 1310.09 928.71 1167.52 1091.86 1066.92 1230.41 1295.94 1222.81
00009532 00000074 859.99 577.48 639.84 847.92 1026.05 935.18 1306.94 924.62 1165.70 1087.50 1066.14 1225.58 1295.92 1216.23
00009533 00000075 857.39 572.06 641.63 856.14 1023.04 934.79 1305.15 924.06 1160.72 1083.99 1062.49 1224.74 1292.74 1215.73
00009534 00000076 850.17 570.49 644.32 865.22 1020.47 937.48 1302.44 926.73 1157.17 1084.08 1060.15 1228.01 1287.20 1219.43
00009535 00000077 842.69 567.77 651.47 876.92 1018.30 941.67 1301.75 928.65 1156.90 1087.58 1058.42 1235.71 1281.44 1228.88
00009536 00000078 836.52 572.46 655.82 880.03 1013.47 947.55 1299.89 929.18 1157.66 1087.47 1065.84 1246.96 1280.12 1236.08
00009537 00000079 834.59 571.79 648.44 882.66 1015.04 945.99 1296.32 925.88 1162.53 1084.72 1072.28 1247.44 1286.49 1231.21
00009538 00000080 830.93 574.22 651.01 896.17 1015.93 941.22 1297.99 918.41 1167.79 1080.84 1070.79 1249.37 1293.80 1229.87
00009539 00000081 827.19 568.44 655.50 908.55 1015.43 938.53 1297.61 912.87 1169.46 1077.75 1067.25 1247.38 1300.50 1225.16
00009540 00000082 825.44 564.96 653.73 909.31 1010.95 935.83 1292.97 910.23 1163.67 1075.82 1060.95 1243.10 1298.18 1220.89
00009541 00000083 821.58 565.27 655.96 909.07 1005.85 936.58 1288.17 910.01 1158.01 1074.05 1054.82 1239.44 1297.41 1216.62
00009542 00000084 821.05 563.36 653.94 909.91 1004.29 934.37 1286.15 905.65 1156.51 1070.99 1054.83 1236.19 1298.97 1211.22
00009543 00000085 822.35 552.52 653.68 921.76 1006.26 930.64 1288.67 901.52 1159.96 1066.43 1056.92 1234.32 1303.42 1208.95
00009544 00000086 825.89 548.24 653.28 922.29 1006.83 924.48 1293.45 895.76 1161.99 1059.40 1060.43 1230.95 1303.78 1205.87
00009545 00000087 825.07 542.95 656.12 912.23 1000.96 918.48 1295.82 890.18 1159.52 1054.85 1058.30 1223.66 1299.98 1198.98
00009546 00000088 828.39 542.31 655.29 896.73 1000.57 915.57 1296.10 887.47 1157.57 1055.67 1052.63 1212.32 1301.10 1187.79
00009547 00000089 831.32 540.71 651.52 889.03 1001.76 916.66 1293.61 888.14 1156.41 1058.08 1052.92 1207.99 1300.19 1183.20
00009548 00000090 831.36 549.53 649.90 883.73 1000.42 922.94 1290.19 893.83 1154.31 1065.98 1049.70 1213.76 1301.68 1188.28
00009549 DELETE   823.95 562.23 646.89 869.02 988.68 934.71 1275.69 895.42 1145.55 1074.50 1044.19 1227.91 1289.41 1198.25
00009550 00000092 819.10 561.38 652.45 893.53 985.73 937.20 1273.56 905.52 1135.91 1078.63 1046.59 1244.21 1278.44 1218.06
00009551 00000093 821.71 562.01 647.21 878.65 980.45 938.24 1266.26 902.48 1130.56 1078.00 1045.96 1240.92 1270.96 1214.49
00009552 DELETE   820.69 560.70 643.97 864.04 979.38 930.94 1262.76 894.73 1128.45 1071.85 1039.89 1225.94 1270.48 1198.63
00009553 DELETE   824.07 552.62 634.21 860.23 982.87 917.23 1264.67 886.53 1129.30 1065.52 1044.57 1208.17 1269.54 1180.43
00009554 DELETE   825.51 547.96 637.22 866.55 981.38 911.31 1263.54 881.51 1127.57 1059.71 1038.10 1198.79 1275.08 1171.96
00009555 00000097 823.29 548.28 639.08 866.00 977.02 913.66 1259.72 883.07 1123.35 1063.50 1033.53 1200.57 1275.85 1172.51
00009556 DELETE   820.86 548.82 638.32 878.69 975.71 918.50 1255.29 887.32 1118.27 1067.01 1031.52 1209.71 1272.10 1180.98
00009557 00000099 814.19 556.47 651.69 900.50 972.62 922.20 1255.02 885.89 1116.23 1064.21 1024.21 1227.13 1276.56 1198.85
00009558 00000100 811.87 556.87 655.28 904.13 968.63 921.10 1254.32 885.71 1110.74 1066.22 1019.42 1229.80 1273.85 1202.46
00009559 00000101 813.04 551.28 646.03 880.09 965.32 917.54 1250.46 885.50 1107.27 1066.66 1013.64 1220.81 1265.59 1196.16
00009560 00000102 811.07 543.61 646.94 881.25 962.69 915.20 1246.77 883.25 1104.54 1066.09 1009.68 1220.50 1262.16 1195.93
00009561 DELETE   808.87 555.27 648.72 877.88 961.17 916.09 1244.90 881.25 1103.97 1064.86 1013.14 1221.01 1261.10 1193.74
00009562 DELETE   809.02 554.55 637.14 875.07 959.40 919.98 1242.11 884.99 1102.89 1063.04 1024.06 1220.28 1252.35 1189.73
00009563 00000105 806.42 551.91 638.53 872.35 956.78 921.53 1239.36 886.42 1100.67 1064.14 1022.65 1217.48 1248.50 1186.57
00009564 00000106 806.73 555.98 637.86 864.10 956.21 921.41 1238.33 887.07 1099.75 1064.36 1022.17 1215.30 1247.09 1184.93
00009565 00000107 807.03 555.59 637.44 861.74 957.10 921.56 1238.22 887.70 1100.59 1065.12 1022.49 1213.78 1246.87 1183.69
00009566 DELETE   808.57 557.51 634.86 865.36 959.30 924.81 1239.20 890.99 1101.97 1068.22 1023.65 1215.50 1249.02 1185.24
00009567 DELETE   811.50 568.80 643.46 866.05 963.31 932.38 1241.92 895.19 1104.53 1072.94 1022.68 1228.66 1254.57 1200.61
00009568 00000110 811.88 573.54 645.78 869.53 963.41 940.25 1245.13 900.40 1108.95 1081.81 1025.67 1237.86 1260.86 1207.70
00009569 00000111 813.97 576.46 643.74 869.08 964.52 944.74 1245.98 904.69 1108.61 1086.95 1022.64 1236.29 1263.19 1206.01
00009570 00000112 815.26 577.57 641.33 859.99 965.75 945.91 1246.05 906.16 1110.37 1088.17 1022.95 1232.64 1264.29 1202.67
00009571 00000113 817.11 567.41 641.31 863.04 966.77 944.48 1248.38 905.60 1113.81 1087.90 1021.45 1228.55 1269.04 1199.14
00009572 00000114 819.08 564.07 641.71 863.60 968.36 940.13 1249.99 900.72 1115.54 1083.89 1022.56 1225.68 1271.95 1195.60
00009573 00000115 819.39 558.75 642.88 866.75 968.70 939.62 1251.55 899.65 1118.16 1083.33 1021.92 1225.67 1276.52 1195.23
00009574 00000116 818.98 554.13 644.61 867.54 968.30 938.59 1253.52 899.67 1119.27 1083.21 1018.86 1224.77 1279.38 1195.24
00009575 00000117 818.09 563.29 644.44 857.41 967.25 942.97 1253.71 905.34 1118.11 1087.11 1018.94 1225.60 1276.64 1197.14
00009576 00000118 815.95 582.72 650.20 858.22 967.38 953.56 1252.97 914.04 1114.02 1094.58 1022.67 1230.57 1275.75 1200.21
00009577 00000119 808.07 590.68 665.02 909.11 965.67 958.65 1252.51 916.17 1108.33 1097.44 1027.46 1257.88 1283.03 1224.74
00009578 00000120 808.79 593.59 665.43 917.53 965.63 965.78 1254.61 922.35 1110.07 1109.85 1029.83 1270.84 1281.20 1237.04
00009579 00000121 808.61 590.38 661.90 916.34 966.37 968.64 1257.08 928.73 1117.93 1120.94 1028.51 1274.12 1275.93 1243.64
00009580 00000122 807.72 596.96 661.09 899.95 964.06 979.25 1252.05 944.65 1105.76 1130.89 1020.86 1275.94 1268.20 1249.66
00009581 00000123 808.52 598.89 658.17 896.81 962.52 980.82 1248.72 944.48 1104.10 1133.52 1020.19 1276.90 1267.01 1249.12
00009582 00000124 810.04 602.42 656.21 892.55 961.69 979.55 1250.48 943.23 1105.06 1134.98 1022.24 1280.98 1266.47 1253.02
00009583 00000125 812.70 600.40 651.57 896.71 961.79 981.63 1254.79 940.58 1115.11 1137.75 1024.68 1283.32 1270.70 1252.27
00009584 00000126 812.40 605.99 655.63 889.37 962.92 981.66 1252.86 946.67 1105.15 1138.83 1024.53 1284.52 1265.39 1257.65
00009585 00000127 813.62 609.23 654.04 884.89 962.24 983.64 1253.71 951.49 1102.79 1140.67 1021.59 1284.49 1263.13 1259.94
00009586 00000128 816.02 609.26 651.93 886.05 961.87 983.94 1255.22 952.73 1102.10 1141.25 1019.64 1286.06 1262.68 1262.17
00009587 00000129 815.15 611.27 652.54 882.69 961.43 984.03 1255.51 952.07 1102.72 1140.84 1020.65 1285.94 1262.97 1261.44
00009588 00000130 814.78 609.81 652.19 881.32 963.10 983.67 1255.17 950.26 1105.51 1140.02 1023.05 1284.04 1265.07 1258.33
00009589 00000131 814.52 609.34 652.99 880.28 963.35 980.92 1256.08 948.20 1106.28 1138.81 1021.93 1282.23 1265.90 1256.96
00009590 00000132 815.36 611.20 650.54 875.00 963.71 978.38 1255.98 946.21 1106.66 1136.47 1021.98 1279.99 1264.62 1255.15
00009591 00000133 815.26 610.69 650.69 874.77 963.48 976.22 1256.33 944.75 1106.42 1135.07 1020.82 1278.70 1264.74 1254.50
00009592 00000134 815.07 609.91 650.90 873.47 963.41 975.52 1256.99 944.23 1107.55 1134.88 1021.41 1278.98 1264.88 1254.83
00009593 00000135 815.62 611.05 650.52 873.07 964.03 975.54 1256.33 944.70 1106.64 1135.30 1021.15 1277.72 1264.40 1254.00
00009594 00000136 815.84 611.98 650.14 872.18 964.15 976.58 1256.70 945.03 1107.57 1135.53 1021.39 1277.93 1265.34 1253.56
00009595 00000137 815.75 610.66 650.03 871.88 963.91 976.64 1256.73 944.74 1108.05 1135.74 1021.46 1278.28 1265.58 1253.69
00009596 00000138 816.11 608.64 650.50 875.18 964.90 976.43 1257.25 943.83 1109.04 1135.65 1022.48 1277.65 1267.41 1252.64
00009597 00000139 813.62 609.18 650.33 873.78 964.61 978.58 1251.95 943.39 1111.88 1137.80 1021.37 1279.71 1268.34 1251.43
00009598 00000140 814.44 607.95 650.13 874.00 964.98 977.31 1252.93 942.63 1112.48 1136.61 1021.57 1278.78 1268.88 1250.90
00009599 00000141 814.64 609.12 649.67 871.68 964.78 976.86 1253.31 941.93 1112.49 1136.13 1021.62 1278.98 1269.19 1250.88
00009600 00000142 815.24 609.13 650.34 871.94 964.83 975.77 1254.95 941.50 1112.86 1135.93 1021.18 1278.96 1269.77 1251.33
00009601 00000143 817.72 606.67 650.75 871.60 966.33 973.40 1261.38 941.83 1112.04 1132.70 1023.82 1276.54 1269.17 1252.22
00009602 00000144 814.75 606.44 650.92 873.04 965.31 975.75 1255.73 941.48 1114.05 1135.94 1022.34 1279.39 1270.04 1251.87
00009603 00000145 813.97 605.72 651.66 873.07 965.42 975.33 1255.82 940.49 1114.49 1135.35 1023.01 1278.99 1270.25 1250.97
00009604 00000146 814.56 605.23 651.46 872.13 966.24 973.83 1256.67 939.71 1114.71 1134.02 1024.21 1277.85 1270.38 1250.32
00009605 00000147 814.43 607.75 651.89 869.40 966.26 973.79 1257.01 939.30 1115.15 1133.67 1024.96 1278.12 1270.53 1250.32
00009606 00000148 814.69 608.79 652.46 868.83 967.15 973.57 1257.91 939.78 1115.75 1133.95 1025.20 1278.30 1270.95 1251.04
00009607 00000149 815.32 608.89 651.69 868.21 967.50 973.85 1258.15 939.98 1116.71 1133.97 1025.26 1279.28 1271.67 1252.03
00009608 00000150 815.61 606.73 651.30 870.86 967.87 973.62 1258.35 939.78 1117.27 1133.89 1025.97 1279.30 1271.92 1252.04
00009609 00000151 815.93 605.87 650.49 870.76 968.33 973.82 1259.84 939.84 1118.81 1133.71 1026.41 1279.76 1272.87 1252.47
00009610 00000152 820.30 599.39 648.81 875.82 972.30 977.96 1264.19 947.53 1117.64 1130.56 1029.45 1275.65 1270.88 1252.55
00009611 00000153 820.29 602.18 650.04 871.25 973.11 979.47 1260.87 950.57 1116.35 1130.80 1028.83 1272.25 1270.03 1250.34
00009612 00000154 819.83 601.50 650.57 870.74 973.30 977.55 1262.20 949.44 1116.87 1129.56 1027.70 1269.99 1270.21 1248.74
00009613 00000155 820.30 599.43 651.36 876.27 974.28 977.50 1266.19 950.88 1118.21 1129.82 1027.80 1272.26 1270.23 1252.26
00009614 00000156 815.97 596.37 658.41 897.98 977.19 973.02 1266.28 939.10 1124.24 1121.63 1041.68 1284.29 1270.95 1257.72
00009615 00000157 818.39 582.36 660.91 915.54 984.65 963.06 1273.16 925.89 1132.58 1106.96 1060.24 1291.11 1274.06 1262.14
00009616 DELETE   823.04 559.41 662.86 901.62 990.96 951.11 1282.54 901.73 1153.51 1088.53 1078.50 1264.68 1287.71 1228.77
00009617 DELETE   835.78 543.88 651.94 891.12 1013.18 937.82 1296.63 893.30 1175.08 1076.95 1090.71 1237.93 1315.10 1200.23
00009618 00000160 849.00 541.11 646.98 888.25 1025.14 927.29 1306.25 880.05 1193.71 1072.70 1106.66 1231.83 1336.53 1190.47
