Video ID: 	39NHDKe5aIc
H: 	1080
W: 	1920
FPS: 	25.0

FRAME INDEX X0 Y0 W H [Landmarks (5 Points)]

00002560 00000000 551.38 234.03 474.09 701.05 729.63 480.25 943.93 481.52 887.34 611.10 758.56 745.69 941.20 746.74
00002561 00000001 556.27 239.73 476.48 700.18 737.54 485.01 950.91 482.85 899.68 620.60 770.62 753.83 948.81 752.48
00002562 00000002 559.01 244.81 477.49 699.52 737.70 490.09 953.51 483.37 901.94 625.80 772.43 759.55 951.72 754.85
00002563 00000003 558.98 250.01 476.30 698.63 732.66 493.76 951.67 486.73 895.48 630.01 768.67 763.55 950.03 758.77
00002564 00000004 555.42 251.65 477.51 699.18 728.36 494.92 950.06 489.93 889.46 631.78 765.49 764.21 947.57 760.62
00002565 00000005 553.42 254.47 477.24 696.74 723.72 496.08 945.80 489.47 883.34 634.30 762.02 764.98 944.42 760.00
00002566 00000006 553.11 249.74 477.73 700.99 720.71 497.25 943.03 490.30 877.71 635.42 759.92 765.46 941.95 760.05
00002567 00000007 552.02 250.57 478.34 694.97 716.07 496.76 940.58 487.92 872.30 636.40 755.71 762.54 939.69 755.63
00002568 00000008 550.57 249.58 478.38 693.24 713.51 495.21 938.26 486.25 869.48 635.83 753.04 760.43 937.26 753.41
00002569 00000009 549.87 251.20 477.64 691.23 712.06 496.41 936.33 486.25 867.89 635.99 753.32 761.05 936.86 753.02
00002570 00000010 549.79 250.57 478.22 689.93 712.07 497.30 936.38 486.31 868.21 636.30 754.02 760.94 937.03 752.19
00002571 00000011 549.77 252.14 478.43 689.81 711.97 498.89 936.97 487.45 868.02 638.33 754.80 762.54 937.46 753.40
00002572 00000012 550.21 252.37 477.87 689.77 712.34 499.51 937.07 488.29 868.61 638.96 755.40 762.81 937.73 753.83
00002573 00000013 550.30 253.48 478.54 692.59 712.77 501.11 937.17 489.30 869.53 640.54 757.10 765.80 939.28 756.33
00002574 00000014 550.72 253.37 478.34 693.50 713.05 502.50 937.39 489.80 870.64 641.67 757.93 767.24 940.00 757.04
00002575 00000015 550.38 252.42 478.32 695.01 714.64 508.48 938.89 494.83 872.63 643.35 758.34 768.90 942.05 757.84
00002576 DELETE   551.44 250.68 474.81 695.04 716.52 510.25 938.64 497.01 874.82 641.52 756.94 767.03 941.01 756.33
00002577 DELETE   550.89 250.69 476.84 697.25 722.22 511.50 944.14 496.26 885.45 641.73 763.31 768.01 947.55 755.64
00002578 DELETE   553.98 251.56 479.14 690.18 732.07 510.40 952.33 493.11 898.23 641.69 776.76 767.60 956.71 753.71
00002579 00000019 556.38 252.35 481.92 691.51 739.68 507.85 957.53 489.05 909.42 642.83 786.50 769.75 962.35 754.91
00002580 00000020 556.08 255.21 482.68 691.78 740.82 510.13 958.70 489.52 912.31 645.47 790.75 774.38 964.00 758.22
00002581 00000021 550.89 257.29 481.49 700.13 742.70 501.98 959.76 489.39 909.14 652.70 785.62 780.82 958.84 768.32
00002582 00000022 547.29 258.79 480.09 705.39 733.46 506.22 950.66 492.59 896.63 659.42 773.17 785.61 947.07 772.94
00002583 00000023 541.13 259.39 485.96 710.55 723.42 508.92 943.79 497.93 882.97 667.83 762.80 790.44 937.72 780.08
00002584 00000024 535.44 264.73 488.44 705.81 713.06 513.30 937.34 501.97 870.84 672.43 751.84 793.51 929.45 783.20
00002585 00000025 536.05 271.68 482.10 701.98 706.42 522.57 930.63 508.65 864.85 667.71 750.91 792.98 926.85 781.58
00002586 00000026 535.42 275.38 480.01 689.38 700.70 521.97 930.67 502.60 862.63 672.87 748.43 801.20 926.33 783.47
00002587 00000027 534.59 275.95 479.69 688.91 700.41 521.57 930.08 501.62 863.38 675.07 748.59 801.96 925.19 783.60
00002588 00000028 534.32 275.53 479.14 688.45 701.13 521.12 930.65 500.47 865.23 674.24 749.01 801.90 925.54 783.11
00002589 00000029 533.75 269.70 481.90 700.13 705.38 520.12 931.01 506.70 865.93 670.75 750.27 792.03 926.99 780.96
00002590 00000030 531.77 268.92 482.18 701.91 705.80 519.59 931.95 506.28 869.28 671.46 751.31 792.78 928.53 781.78
00002591 DELETE   530.64 265.43 485.05 706.18 708.39 526.48 935.34 506.69 878.48 669.07 755.69 794.72 933.59 778.74
00002592 DELETE   532.76 262.12 485.43 704.65 719.27 528.81 943.78 500.33 896.27 667.63 767.77 793.85 943.65 771.96
00002593 DELETE   534.90 266.09 486.30 701.87 739.80 523.12 946.76 497.29 909.81 670.38 773.86 795.89 948.14 774.00
00002594 00000034 538.71 263.43 486.61 707.47 753.59 516.36 955.69 492.84 922.91 667.52 784.50 793.49 952.40 773.40
00002595 00000035 537.51 263.66 486.42 706.68 752.19 514.78 955.42 492.13 921.06 670.05 780.65 792.54 950.18 773.26
00002596 00000036 526.07 266.77 490.81 704.17 737.41 517.33 945.68 496.42 906.04 675.60 765.86 794.36 938.16 776.74
00002597 DELETE   521.58 281.07 487.68 689.08 717.74 520.91 941.32 503.49 885.10 674.21 756.57 798.79 926.11 783.11
00002598 DELETE   504.76 276.53 486.96 690.95 701.79 525.13 921.44 504.75 868.78 681.50 736.91 799.01 915.68 781.08
00002599 DELETE   492.97 275.69 488.47 688.83 687.53 525.40 908.71 509.00 851.06 684.18 720.04 795.48 900.15 781.05
00002600 00000040 478.86 275.96 489.54 695.62 671.84 527.15 887.87 513.32 830.88 684.57 703.49 795.44 882.50 783.60
00002601 DELETE   473.82 274.28 483.83 698.78 656.47 526.87 875.68 513.04 814.11 686.16 689.26 796.96 870.36 785.20
00002602 00000042 466.62 272.33 487.07 702.32 644.56 525.42 868.70 510.43 802.82 685.53 679.64 798.74 862.09 786.19
00002603 00000043 462.43 272.95 487.34 702.15 637.79 524.44 861.44 510.93 794.10 684.88 674.52 799.33 854.98 787.92
00002604 00000044 457.08 287.31 483.77 688.01 629.14 528.47 857.03 510.90 785.69 681.96 668.60 802.77 842.89 786.46
00002605 00000045 448.87 278.52 479.37 692.82 621.05 523.43 846.97 504.59 780.26 680.42 662.60 802.38 843.60 784.85
00002606 00000046 444.71 272.86 479.14 693.67 615.04 518.73 843.36 499.45 777.02 676.73 658.09 798.22 839.12 780.50
00002607 00000047 439.69 269.35 479.49 691.14 608.46 515.19 836.91 495.46 772.02 672.06 654.57 793.73 834.00 775.65
00002608 00000048 428.62 265.86 483.63 689.77 599.63 512.75 826.48 494.49 762.42 667.79 646.33 787.12 822.73 770.05
00002609 00000049 423.47 262.95 480.13 686.20 594.23 508.98 818.30 493.95 754.93 663.41 641.03 781.03 817.50 766.36
00002610 DELETE   420.28 254.34 482.34 685.79 587.05 519.13 810.41 495.45 745.85 655.76 635.64 771.04 817.27 752.42
00002611 DELETE   418.39 248.65 480.46 689.00 582.88 516.80 808.45 494.43 741.61 650.98 626.79 767.58 814.27 749.68
00002612 DELETE   415.43 247.30 479.20 687.35 579.97 511.38 803.48 488.95 740.48 644.20 626.16 764.12 812.13 746.00
00002613 00000053 412.05 244.74 479.03 687.54 576.56 503.35 799.56 482.70 736.75 638.79 623.23 759.84 808.05 743.24
00002614 00000054 409.65 243.55 478.55 685.36 574.22 496.88 795.16 477.60 734.05 634.45 619.21 754.57 802.36 739.34
00002615 00000055 410.29 239.46 478.14 689.21 574.91 492.31 796.52 472.80 736.96 630.32 622.53 754.02 804.20 738.40
00002616 00000056 412.05 238.51 476.72 686.22 578.51 488.88 797.64 470.64 740.41 627.76 625.84 750.81 806.59 736.17
00002617 00000057 413.46 235.17 475.85 686.13 583.82 484.87 799.61 467.39 745.64 624.98 631.58 748.19 807.54 734.11
00002618 00000058 414.37 229.91 476.78 688.69 589.32 479.86 803.44 463.43 751.01 621.48 635.89 746.37 809.70 732.94
00002619 00000059 416.22 226.54 478.42 690.25 591.91 476.73 806.07 460.18 753.06 618.74 637.98 744.23 812.09 730.57
00002620 00000060 416.44 225.83 480.02 690.12 591.41 475.84 806.62 458.19 752.95 617.23 637.50 743.59 812.98 729.00
00002621 00000061 419.43 223.19 479.59 691.82 592.12 472.50 806.97 453.93 753.14 614.47 638.68 741.54 814.12 726.09
00002622 00000062 421.41 222.63 480.12 693.38 593.04 472.61 808.42 453.61 753.57 615.30 639.86 742.11 815.44 726.23
00002623 00000063 423.80 223.08 482.76 693.02 594.47 472.83 810.50 453.95 754.77 614.95 641.94 742.59 817.16 726.79
00002624 00000064 428.30 228.16 482.01 692.74 597.67 470.28 820.72 450.25 757.22 612.49 648.66 745.44 818.89 725.75
00002625 DELETE   430.99 228.10 484.50 694.38 599.80 479.22 824.03 457.09 758.60 613.25 653.13 747.75 824.39 725.99
00002626 DELETE   434.29 224.23 483.73 702.52 604.20 479.12 827.51 455.06 765.29 614.08 656.20 749.29 827.67 726.20
00002627 DELETE   443.76 221.49 483.45 704.59 611.07 476.27 836.25 451.78 771.49 611.34 664.37 750.72 835.87 727.49
00002628 00000068 451.38 222.43 483.80 700.54 617.93 473.32 844.31 450.57 776.39 611.19 671.13 749.60 840.54 728.01
00002629 00000069 456.10 221.63 481.82 694.13 619.22 472.87 847.27 448.17 777.43 611.14 675.90 747.67 845.37 724.48
00002630 00000070 457.81 222.77 484.07 688.87 618.94 470.06 849.51 446.56 777.72 610.82 674.41 744.01 846.04 721.84
00002631 00000071 459.90 223.38 486.45 688.41 620.56 468.91 850.21 445.45 777.94 609.78 676.28 744.04 845.73 722.07
00002632 00000072 464.65 215.15 483.26 695.90 622.94 469.16 846.80 454.26 774.41 613.04 668.99 734.76 852.27 722.13
00002633 00000073 465.41 215.12 484.41 692.67 622.84 468.50 846.67 452.64 773.66 612.17 668.97 732.79 853.43 719.34
00002634 00000074 466.08 213.23 485.90 693.82 622.27 465.80 846.46 450.86 771.57 611.61 667.41 730.78 853.04 718.15
00002635 00000075 466.70 212.24 487.16 695.46 622.99 464.20 846.55 449.17 771.11 610.28 668.13 731.08 852.62 718.36
00002636 00000076 468.39 212.68 487.77 694.77 624.43 461.94 848.91 446.23 774.15 608.97 670.71 730.63 855.09 717.45
00002637 00000077 471.13 210.88 485.83 698.98 629.17 460.66 851.33 443.40 780.53 606.95 675.76 731.63 858.59 717.17
00002638 00000078 474.42 213.25 482.61 696.66 634.67 459.41 854.22 441.00 788.29 604.94 681.55 731.83 862.00 716.56
00002639 00000079 477.99 211.87 480.29 695.24 643.43 459.83 862.00 443.10 799.22 603.72 690.18 731.65 869.52 717.27
00002640 00000080 483.89 213.49 478.88 695.44 653.45 463.09 870.35 445.52 812.08 605.95 701.29 733.69 878.64 718.57
00002641 00000081 488.42 216.53 482.12 694.55 665.37 464.68 878.06 445.35 826.81 607.90 714.06 736.76 887.56 720.04
00002642 00000082 495.15 218.49 481.27 691.00 672.63 465.20 885.68 444.58 837.17 607.98 722.80 738.67 896.08 720.61
00002643 00000083 497.95 218.22 483.33 689.14 677.18 463.95 891.29 442.99 842.42 609.36 727.92 739.35 900.02 720.81
00002644 00000084 496.81 218.67 485.06 689.32 676.06 461.18 892.04 440.84 841.42 608.29 726.32 737.46 899.80 719.36
00002645 00000085 493.73 217.46 484.22 688.71 674.14 460.43 888.00 440.97 837.19 607.13 721.87 734.25 896.31 717.11
00002646 00000086 488.08 215.43 482.22 689.92 669.07 459.64 882.08 441.25 830.72 608.91 716.03 733.90 888.06 717.91
00002647 00000087 484.61 212.64 481.44 692.35 663.38 460.52 877.62 443.26 823.48 609.23 710.54 734.07 883.64 719.04
00002648 00000088 482.33 213.70 481.85 694.57 659.61 460.51 872.85 445.59 816.51 608.28 705.96 735.52 876.60 722.56
00002649 00000089 482.52 213.11 480.36 691.61 654.85 460.93 871.38 446.12 812.23 609.87 701.37 736.03 872.64 723.34
00002650 00000090 481.17 215.11 480.70 688.07 652.71 464.08 870.06 449.10 809.20 612.13 699.74 736.84 871.50 724.13
00002651 00000091 480.30 216.25 481.68 688.00 652.22 466.69 870.10 451.04 810.18 615.10 701.61 738.64 873.25 725.28
00002652 00000092 480.93 217.89 481.14 687.85 657.23 467.31 872.49 450.75 816.50 616.33 706.32 739.99 876.35 726.00
00002653 00000093 481.97 219.68 480.40 686.64 666.03 467.02 875.69 449.76 825.07 615.97 713.24 739.32 879.53 724.72
00002654 00000094 483.06 217.60 481.03 691.61 673.19 463.92 880.31 448.52 833.73 614.72 716.48 738.88 883.48 725.47
00002655 00000095 480.76 215.20 483.10 697.05 674.90 462.44 881.32 448.25 836.34 615.02 714.88 739.50 882.52 727.15
00002656 00000096 476.75 214.33 482.23 697.35 672.00 461.48 878.27 449.36 831.07 615.74 710.57 739.36 876.15 728.68
00002657 00000097 474.76 211.46 482.14 698.34 666.63 458.09 876.02 447.84 824.70 613.14 705.73 736.93 872.28 727.76
00002658 00000098 473.04 205.88 481.64 700.98 664.43 453.93 874.36 444.92 820.62 610.97 701.92 733.02 869.18 724.81
00002659 00000099 469.04 203.47 483.02 701.06 659.72 451.35 872.42 442.92 815.83 608.39 696.54 730.85 863.72 723.19
00002660 00000100 465.37 198.28 484.97 704.51 652.91 446.09 870.80 438.25 809.44 606.73 689.32 727.10 859.81 719.78
00002661 00000101 460.63 196.26 484.30 708.77 640.93 447.82 865.53 433.98 806.30 595.78 685.84 724.63 857.57 713.41
00002662 00000102 454.34 197.25 478.20 694.45 630.08 444.81 858.02 426.88 799.17 597.95 679.16 729.08 851.91 712.45
00002663 00000103 447.95 194.08 480.51 695.76 625.02 439.91 852.90 425.53 793.39 596.15 675.14 724.85 846.66 710.74
00002664 00000104 442.05 190.42 483.90 702.86 620.93 436.60 848.57 421.40 790.70 594.57 671.16 723.51 843.05 708.55
00002665 00000105 437.00 190.23 484.81 702.29 613.90 433.97 843.43 418.75 784.74 592.61 664.26 722.04 837.68 707.03
00002666 00000106 430.22 189.49 487.77 702.54 611.72 433.33 837.99 419.92 780.14 591.16 660.46 720.60 829.99 707.12
00002667 00000107 427.90 187.94 487.26 700.87 610.01 433.89 834.61 420.78 776.15 591.22 656.09 718.10 825.20 705.04
00002668 00000108 422.59 190.19 490.00 700.65 608.03 434.22 829.62 422.47 772.23 591.03 651.72 715.86 821.47 704.00
00002669 00000109 420.71 189.97 490.42 702.83 608.05 433.64 827.73 421.75 772.01 590.09 650.98 715.74 820.89 703.91
00002670 00000110 420.47 190.25 489.32 704.30 606.34 434.36 825.33 422.38 769.60 589.83 648.39 715.58 818.60 703.79
00002671 00000111 418.74 189.43 489.98 708.04 604.25 434.43 822.38 422.10 767.16 588.96 646.09 716.49 816.43 704.60
00002672 00000112 416.20 191.97 490.05 705.66 603.22 434.20 820.12 422.79 765.58 589.20 643.22 716.17 813.73 705.17
00002673 00000113 416.02 190.70 489.67 707.08 601.96 435.08 819.54 423.25 765.40 589.25 642.34 717.05 813.41 705.77
00002674 00000114 416.07 190.21 490.12 707.04 601.04 435.62 819.80 423.98 763.83 589.90 641.93 717.10 813.71 705.88
00002675 00000115 416.18 191.19 490.60 704.00 600.59 434.29 819.90 423.46 762.81 588.40 643.10 715.51 814.41 704.81
00002676 00000116 416.95 188.87 489.14 703.99 599.02 432.94 818.17 420.35 761.24 586.00 642.80 713.09 814.56 700.85
00002677 00000117 415.49 184.91 488.98 708.68 597.30 431.71 815.50 418.73 758.90 583.61 640.02 711.69 813.13 699.18
00002678 00000118 412.44 183.99 489.33 708.40 593.65 430.37 811.84 418.23 752.83 582.23 635.76 710.41 810.09 698.57
00002679 00000119 412.32 179.32 486.52 710.64 589.68 428.11 810.33 416.00 749.49 578.79 633.38 708.35 810.41 696.23
00002680 00000120 410.15 177.88 484.85 711.16 581.83 426.17 805.82 412.98 742.62 576.52 628.18 707.51 807.58 694.51
00002681 DELETE   410.33 177.83 483.92 708.27 575.50 440.21 799.43 422.31 734.95 573.14 625.63 706.67 806.16 692.19
00002682 DELETE   406.30 178.41 482.02 710.02 567.10 441.38 789.97 424.18 724.57 571.47 617.49 707.08 796.82 692.93
00002683 DELETE   404.03 181.90 481.51 711.06 563.70 443.74 786.34 426.26 717.41 572.69 613.11 708.98 792.54 694.56
00002684 00000124 400.66 178.47 482.46 716.26 558.51 441.69 782.86 425.01 711.72 573.09 608.06 710.20 787.28 696.31
00002685 00000125 394.71 186.59 488.74 704.64 548.76 438.60 780.79 418.78 706.37 574.60 602.77 718.81 775.55 700.01
00002686 00000126 393.32 189.58 485.93 702.01 542.78 438.90 776.07 419.48 700.27 575.81 598.85 719.88 771.71 701.41
00002687 00000127 390.09 188.09 486.51 703.77 539.10 438.59 774.42 418.14 698.06 574.22 595.20 719.63 770.39 700.44
00002688 00000128 387.52 188.93 485.54 706.07 536.05 439.35 770.65 419.50 694.84 576.55 591.06 719.78 767.28 701.08
00002689 00000129 381.93 189.19 486.47 710.13 531.81 441.39 764.61 421.90 688.55 578.51 585.37 721.26 762.59 703.04
00002690 00000130 376.84 189.94 487.78 710.80 527.81 442.33 760.58 422.64 684.34 581.43 580.80 722.04 759.33 703.76
00002691 00000131 376.13 191.58 486.26 712.69 526.33 442.77 758.28 423.48 681.77 582.71 578.34 723.31 757.58 705.32
00002692 00000132 374.35 191.92 486.34 716.09 523.99 443.68 755.28 423.36 680.58 583.75 574.71 724.11 756.49 705.20
00002693 00000133 374.47 205.15 490.89 708.11 531.70 449.47 757.63 429.03 681.11 585.12 577.99 724.11 754.97 703.92
00002694 00000134 371.65 206.25 491.65 711.74 529.27 451.29 756.35 428.76 680.20 585.31 571.55 722.51 755.17 700.81
00002695 00000135 370.48 207.39 491.42 710.32 527.47 452.56 754.86 428.97 679.08 585.39 568.39 720.85 754.79 698.53
00002696 00000136 369.36 192.64 489.24 719.28 522.34 452.36 749.38 429.82 675.79 585.10 565.71 718.72 758.51 698.40
00002697 00000137 369.19 190.68 489.99 716.98 520.85 452.09 749.83 428.85 674.58 585.09 566.13 717.22 758.75 696.24
00002698 00000138 371.36 190.06 488.58 709.63 519.69 450.10 751.53 428.13 672.58 585.46 566.14 713.80 759.02 693.93
00002699 00000139 370.63 189.56 486.78 704.50 517.25 451.45 749.51 427.90 671.83 586.29 565.52 712.25 758.47 691.52
00002700 00000140 371.06 190.26 486.10 703.37 516.23 452.17 749.44 428.34 671.53 587.94 564.47 712.75 758.21 692.06
00002701 00000141 372.67 190.49 487.05 700.93 518.18 453.26 751.69 429.24 673.10 590.07 566.00 712.96 758.99 692.41
00002702 00000142 375.08 192.26 485.42 697.95 518.81 454.54 751.84 429.60 673.74 592.94 567.65 715.25 758.30 694.01
00002703 00000143 374.66 193.59 485.09 699.41 519.71 456.41 751.23 430.17 674.45 594.98 569.06 719.40 757.61 697.03
00002704 00000144 376.27 196.10 483.91 697.45 519.69 458.72 750.56 431.21 674.04 597.15 572.54 725.83 756.86 702.03
00002705 00000145 377.38 199.43 482.38 697.80 520.29 459.50 750.76 432.16 675.12 600.22 572.73 733.26 754.57 709.47
00002706 00000146 378.92 202.19 485.08 705.18 522.49 459.31 752.21 434.87 675.49 601.39 575.73 737.69 754.03 716.00
00002707 00000147 377.39 210.65 490.07 703.42 525.38 461.65 755.57 440.06 673.07 601.46 575.36 740.97 748.17 720.08
00002708 00000148 376.79 212.01 490.70 703.88 525.62 462.60 755.45 439.88 673.79 601.59 577.19 742.44 748.92 720.54
00002709 00000149 377.78 213.08 492.74 699.41 524.94 459.58 758.80 436.94 675.89 602.43 578.74 741.69 751.10 719.89
00002710 00000150 383.78 208.20 484.15 698.54 523.63 457.75 756.64 435.16 678.82 603.89 580.69 740.86 756.49 720.24
00002711 00000151 385.57 206.98 481.99 695.50 524.54 457.60 759.14 433.55 682.08 602.34 584.50 739.37 760.29 717.29
00002712 00000152 389.74 203.74 481.66 697.96 530.46 455.81 762.37 432.00 686.93 598.09 589.63 736.98 763.75 714.88
00002713 00000153 392.41 203.55 479.38 698.72 534.94 453.63 764.37 431.04 690.16 594.74 594.96 736.08 766.28 714.94
00002714 00000154 393.55 201.08 479.75 699.96 539.73 452.18 768.13 431.34 695.20 590.75 598.20 733.77 768.09 714.03
00002715 00000155 393.90 200.60 480.32 699.83 541.51 450.92 771.09 430.16 698.11 589.28 600.71 733.80 771.07 714.16
00002716 00000156 393.75 201.94 481.21 698.20 541.03 452.08 771.63 430.41 699.39 592.22 602.06 735.05 771.86 714.56
00002717 00000157 394.25 205.08 480.97 694.99 541.62 453.42 773.05 430.99 700.91 592.52 604.59 736.43 774.45 715.29
00002718 00000158 395.33 207.28 479.23 691.49 544.22 456.03 774.87 432.57 704.60 594.70 607.69 737.01 778.11 715.14
00002719 DELETE   396.87 208.20 478.95 687.41 554.44 464.21 777.88 440.08 712.19 596.25 613.83 736.59 780.76 714.35
00002720 DELETE   394.65 198.77 483.15 701.87 559.94 459.50 779.52 445.37 713.13 594.95 606.36 726.63 784.23 714.00
00002721 DELETE   403.19 194.54 475.57 707.32 575.62 452.62 790.50 437.09 733.83 587.71 622.77 723.54 795.69 709.52
00002722 00000162 401.47 191.40 476.48 708.41 583.02 442.14 793.43 426.96 744.77 582.63 626.96 718.52 797.03 704.58
00002723 00000163 402.16 191.80 475.37 706.08 587.12 436.98 796.27 421.47 750.40 581.14 630.90 717.28 799.82 703.09
00002724 00000164 401.86 192.38 475.95 703.92 587.80 435.53 797.02 419.68 751.43 580.06 631.46 715.57 800.54 701.02
00002725 00000165 403.06 190.37 475.88 703.74 588.13 433.03 799.41 419.03 751.49 579.13 631.42 713.37 801.06 700.23
00002726 00000166 404.52 187.33 476.13 701.61 587.98 428.62 800.95 415.67 751.00 574.67 632.68 709.04 803.74 696.51
00002727 00000167 405.49 184.78 475.80 702.32 586.94 427.13 801.28 413.69 749.67 573.50 632.79 708.17 804.34 695.17
00002728 00000168 406.05 183.81 475.36 703.35 585.49 426.77 800.72 412.72 748.80 573.03 632.36 707.78 804.60 694.34
00002729 00000169 407.59 181.48 474.72 703.57 585.30 425.75 802.09 412.37 748.38 571.76 632.59 706.30 806.45 693.23
00002730 00000170 411.61 185.40 474.88 692.28 581.29 435.48 799.93 417.54 746.10 569.00 635.73 703.33 807.94 689.07
