Video ID: 	RTDR77KKjjM
H: 	1080
W: 	1920
FPS: 	29.970033712413155

FRAME INDEX X0 Y0 W H [Landmarks (5 Points)]

00046219 00000000 941.72 124.59 338.24 599.46 961.11 397.61 1103.54 398.32 966.06 473.20 974.45 591.56 1088.29 592.37
00046220 DELETE   944.27 127.48 344.56 593.30 965.96 401.69 1110.79 399.17 974.63 472.67 978.33 592.21 1093.52 591.17
00046221 00000002 950.07 121.19 342.63 598.10 975.06 393.68 1116.68 395.90 978.98 468.93 985.11 588.23 1097.98 591.46
00046222 DELETE   954.41 122.29 341.54 594.46 979.66 385.84 1123.01 394.48 982.04 470.22 986.89 582.39 1103.56 590.73
00046223 DELETE   954.46 122.41 346.26 593.67 983.39 380.44 1130.16 389.51 987.34 468.74 989.78 580.54 1107.41 589.32
00046224 00000005 955.62 125.00 348.54 588.77 980.97 389.32 1128.26 390.97 982.19 472.96 991.53 583.54 1110.12 583.40
00046225 00000006 959.05 120.46 348.25 592.22 984.26 384.38 1133.99 389.68 987.41 471.45 991.89 579.59 1112.50 582.44
00046226 00000007 958.98 117.92 353.29 593.79 986.62 381.57 1142.55 388.38 995.45 469.97 993.64 579.39 1117.62 583.67
00046227 00000008 958.98 118.21 356.99 596.76 986.50 382.14 1146.36 388.42 999.55 471.00 992.96 581.53 1119.64 585.58
00046228 00000009 959.79 118.59 356.45 594.25 992.81 376.33 1150.93 386.83 1005.39 468.34 996.58 577.77 1122.50 587.90
00046229 00000010 959.59 121.29 356.17 594.02 992.32 377.09 1151.22 389.23 1004.97 470.18 995.41 577.59 1123.39 589.03
00046230 00000011 958.26 119.96 358.83 597.35 991.82 377.49 1151.65 390.28 1006.12 471.47 994.28 578.21 1123.59 590.03
00046231 00000012 955.91 123.11 360.90 594.65 991.54 378.13 1152.81 392.03 1006.34 473.25 992.54 577.59 1124.33 590.26
00046232 00000013 954.38 125.90 361.21 595.26 990.35 378.80 1152.85 394.04 1005.86 476.63 990.65 578.28 1125.40 592.04
00046233 00000014 953.05 126.71 364.12 595.63 990.01 381.20 1153.36 396.28 1006.89 478.61 989.94 579.15 1126.73 592.76
00046234 00000015 952.00 127.46 363.44 597.03 989.17 382.81 1152.48 398.34 1006.15 481.52 989.57 581.31 1125.94 595.30
00046235 00000016 950.74 127.61 364.15 598.05 988.73 383.90 1152.78 400.76 1006.37 486.51 989.40 582.49 1127.42 597.37
00046236 00000017 951.73 130.96 364.54 597.65 990.15 387.14 1153.86 402.95 1008.37 489.34 990.39 584.04 1130.38 597.92
00046237 00000018 950.82 131.62 366.26 597.21 990.10 389.15 1154.81 404.81 1010.64 492.12 991.23 585.92 1131.31 599.53
00046238 00000019 952.04 131.59 362.36 598.44 991.24 390.31 1155.12 406.55 1012.93 495.01 992.33 585.99 1133.17 599.96
00046239 00000020 953.49 136.27 363.36 594.23 992.83 392.50 1155.82 408.43 1014.24 498.26 993.76 587.67 1132.16 601.63
00046240 00000021 955.36 141.33 363.34 589.17 995.07 396.18 1157.17 410.18 1016.66 500.28 996.34 590.01 1132.77 602.86
00046241 00000022 957.82 141.27 363.50 589.59 996.71 397.87 1159.72 410.47 1018.91 501.29 998.12 590.87 1136.66 602.33
00046242 00000023 961.96 144.21 361.19 585.02 1000.21 402.60 1163.89 413.58 1023.96 502.20 1000.07 592.23 1138.64 602.33
00046243 00000024 965.84 148.29 353.85 582.94 1005.10 416.27 1167.82 420.56 1030.77 500.46 1005.84 595.84 1144.40 600.52
00046244 00000025 969.71 148.36 353.18 581.93 1008.87 415.41 1169.96 420.27 1036.98 503.01 1009.83 594.36 1149.15 599.32
00046245 00000026 968.89 147.58 358.16 585.80 1008.68 414.46 1175.94 419.01 1039.17 505.32 1009.09 595.41 1154.29 600.08
00046246 00000027 969.07 149.90 362.63 585.28 1009.69 412.67 1178.49 417.47 1041.02 505.96 1010.50 597.07 1155.92 601.63
00046247 00000028 968.01 142.01 371.43 587.87 1009.23 408.76 1180.71 418.18 1037.35 507.86 1008.41 593.92 1162.43 601.03
00046248 00000029 969.61 143.47 371.31 585.91 1011.28 407.95 1183.35 419.56 1038.68 509.42 1010.55 594.05 1163.52 602.91
00046249 00000030 970.44 145.10 370.27 583.65 1012.96 408.34 1185.64 420.61 1041.07 511.39 1013.50 595.09 1166.04 604.51
00046250 00000031 970.91 145.10 370.40 583.77 1013.44 408.23 1184.77 421.16 1041.40 513.37 1014.81 595.53 1166.45 605.33
00046251 00000032 971.10 146.10 370.86 582.46 1013.98 409.05 1184.35 422.46 1040.98 514.54 1015.89 596.37 1165.15 606.63
00046252 00000033 971.28 145.86 371.63 582.97 1014.42 409.21 1183.64 423.91 1040.06 516.95 1016.64 596.75 1164.77 607.96
00046253 00000034 970.40 147.54 372.62 580.77 1013.88 408.76 1183.85 424.32 1038.17 516.20 1013.46 596.63 1162.34 608.62
00046254 00000035 970.71 146.34 371.32 583.66 1013.52 408.72 1182.68 424.08 1037.41 516.37 1013.15 596.97 1160.76 608.87
00046255 00000036 970.94 146.83 372.63 583.49 1013.01 408.99 1181.52 424.81 1037.47 516.87 1012.33 597.91 1158.87 610.08
00046256 00000037 970.93 145.61 372.36 585.76 1013.26 410.10 1181.54 426.67 1037.25 518.14 1012.39 598.23 1158.83 610.84
00046257 00000038 970.65 147.25 373.56 584.73 1012.61 410.36 1181.12 426.80 1036.49 518.55 1011.89 598.19 1158.85 610.73
00046258 00000039 971.27 148.75 371.81 583.55 1012.83 410.23 1180.69 427.16 1036.17 519.40 1011.95 599.25 1158.19 612.30
00046259 00000040 970.73 148.11 372.06 584.58 1013.12 410.20 1181.26 428.16 1036.54 519.89 1010.97 598.43 1158.02 612.28
00046260 00000041 970.34 148.83 371.22 583.42 1013.34 410.61 1181.28 428.72 1037.62 520.33 1011.17 598.64 1158.03 612.71
00046261 00000042 969.31 147.66 372.75 584.36 1011.39 410.85 1181.95 428.61 1035.82 520.47 1008.72 600.47 1157.14 614.19
00046262 00000043 968.52 149.88 372.72 581.36 1010.87 410.95 1181.51 429.88 1035.92 522.08 1007.96 599.98 1156.81 614.64
00046263 00000044 967.09 150.91 373.94 580.15 1010.44 410.07 1181.77 430.38 1034.51 522.68 1006.64 599.45 1156.48 615.12
00046264 00000045 966.20 149.47 377.11 583.16 1008.60 410.58 1181.01 430.83 1033.03 524.24 1006.29 601.32 1156.67 616.79
00046265 00000046 967.37 149.21 375.20 583.60 1008.83 410.87 1181.70 430.63 1032.74 525.27 1006.76 602.48 1157.97 617.46
00046266 00000047 966.86 150.67 375.53 581.99 1009.03 410.67 1181.65 431.33 1033.49 525.76 1006.80 601.37 1158.18 617.06
00046267 00000048 966.49 152.38 375.60 580.12 1009.20 411.18 1181.80 431.61 1033.57 525.38 1006.65 601.66 1157.97 617.29
00046268 00000049 965.75 152.36 378.51 581.14 1009.25 411.69 1182.28 432.18 1033.96 526.19 1006.81 601.28 1159.08 616.84
00046269 00000050 965.83 152.47 378.50 580.63 1008.93 411.99 1181.90 432.84 1033.81 527.52 1007.37 601.70 1159.55 617.40
00046270 00000051 965.86 152.10 379.25 580.16 1008.93 412.73 1182.52 433.45 1034.17 527.23 1007.47 601.79 1160.22 617.32
00046271 00000052 966.03 153.07 380.68 579.24 1009.24 413.23 1182.93 433.42 1034.64 528.48 1008.46 602.93 1160.66 618.12
00046272 00000053 965.74 153.33 379.90 579.21 1009.50 414.30 1182.56 433.71 1035.82 528.00 1009.07 603.42 1160.44 617.98
00046273 00000054 965.69 153.72 381.56 579.35 1009.72 414.56 1182.97 433.73 1036.22 528.84 1009.77 604.07 1161.30 618.41
00046274 00000055 966.37 153.65 380.42 579.93 1009.85 415.69 1182.99 434.10 1036.60 528.78 1010.57 604.93 1161.34 618.65
00046275 00000056 966.14 153.81 381.89 580.21 1010.20 415.85 1183.72 433.88 1037.11 528.97 1011.14 604.79 1162.67 618.22
00046276 00000057 966.64 153.75 381.95 579.68 1010.43 415.74 1183.82 433.48 1036.81 529.01 1011.40 605.22 1161.90 618.52
00046277 00000058 967.46 153.55 380.98 580.42 1010.89 414.89 1184.08 432.38 1037.29 529.17 1012.34 605.20 1163.13 618.27
00046278 00000059 967.13 154.96 382.32 578.51 1010.94 414.77 1184.21 432.08 1036.76 528.81 1012.35 605.53 1162.62 618.58
00046279 00000060 967.47 155.08 381.82 578.17 1011.71 414.74 1184.26 432.51 1037.94 528.93 1012.74 604.58 1162.94 617.94
00046280 00000061 967.23 154.12 382.94 579.26 1012.13 414.58 1184.27 432.20 1037.98 528.83 1013.68 604.85 1162.88 618.01
00046281 00000062 967.59 154.65 382.03 578.58 1012.45 415.30 1184.77 432.17 1038.68 528.80 1014.21 604.74 1164.18 617.36
00046282 00000063 968.06 155.15 381.14 578.60 1012.76 415.24 1184.71 432.32 1039.24 529.56 1014.74 604.69 1164.62 617.53
00046283 00000064 967.84 156.80 381.25 575.76 1012.50 415.24 1184.93 432.31 1039.19 529.36 1014.48 604.42 1164.08 617.34
00046284 00000065 968.40 156.47 380.70 575.76 1012.97 415.09 1185.07 432.11 1039.74 529.40 1014.88 604.24 1163.92 617.16
00046285 00000066 967.78 156.02 381.16 576.02 1013.25 415.05 1185.00 431.93 1040.50 529.11 1015.49 604.32 1163.93 617.15
00046286 00000067 967.66 155.50 381.34 577.73 1013.65 415.22 1184.63 432.39 1040.22 528.64 1015.58 603.85 1163.85 616.88
00046287 00000068 968.03 154.84 380.64 579.39 1013.30 415.06 1184.16 431.86 1040.08 528.46 1015.85 604.34 1164.19 617.06
00046288 00000069 968.67 155.58 379.61 578.79 1014.02 414.90 1184.25 432.06 1040.48 528.18 1015.94 603.90 1163.50 617.01
00046289 00000070 968.92 156.77 378.78 578.10 1014.71 415.66 1184.40 432.06 1041.13 528.11 1017.49 604.02 1165.14 616.49
00046290 00000071 968.76 157.01 378.06 578.07 1015.17 415.28 1184.45 432.06 1042.05 528.41 1018.25 603.83 1165.46 616.60
00046291 00000072 969.30 156.33 376.35 578.91 1015.28 415.36 1184.26 432.41 1041.60 527.73 1017.95 603.18 1164.92 616.14
00046292 00000073 970.13 156.10 376.13 579.28 1015.92 414.32 1184.81 431.89 1042.31 527.58 1018.68 602.39 1166.12 615.74
00046293 00000074 970.25 155.69 376.54 579.11 1016.24 413.51 1184.65 431.88 1042.15 527.53 1019.49 601.35 1166.29 615.35
00046294 00000075 971.23 155.76 375.56 578.19 1016.43 413.44 1184.70 431.58 1042.62 526.51 1019.28 600.54 1166.34 614.38
00046295 00000076 972.23 155.10 372.60 578.49 1016.31 414.05 1184.29 430.73 1042.14 525.66 1019.97 602.07 1165.85 614.80
00046296 00000077 971.34 154.08 374.52 579.63 1015.73 412.81 1184.44 430.51 1041.51 524.90 1018.94 600.26 1166.25 613.69
00046297 00000078 972.31 155.12 372.07 578.37 1016.12 413.85 1184.47 430.93 1042.15 525.14 1019.59 600.84 1166.28 613.85
00046298 00000079 971.76 155.73 374.50 577.84 1016.59 414.75 1185.09 431.16 1042.86 525.08 1019.73 600.82 1166.72 613.28
00046299 00000080 971.91 155.86 374.37 577.69 1016.42 415.42 1185.79 431.11 1043.08 524.47 1019.96 601.63 1167.36 613.53
00046300 00000081 971.95 155.87 373.45 577.36 1016.75 415.54 1186.15 430.64 1044.03 524.26 1020.67 602.21 1167.43 613.73
00046301 00000082 972.17 156.58 373.87 575.93 1016.84 415.42 1187.10 430.52 1044.35 524.14 1020.67 602.09 1167.96 613.63
00046302 00000083 972.24 156.54 374.02 575.61 1016.98 415.36 1187.20 430.34 1044.48 524.15 1020.43 602.02 1167.80 613.50
00046303 00000084 972.70 156.99 372.39 574.39 1017.21 415.41 1187.01 430.53 1045.22 524.11 1020.79 601.74 1167.66 613.39
00046304 00000085 972.41 157.61 375.14 572.87 1017.18 416.31 1187.99 430.61 1044.77 524.40 1020.42 602.62 1167.62 613.57
00046305 00000086 973.36 158.68 374.40 571.80 1016.54 420.80 1190.46 434.80 1044.72 523.75 1020.63 604.22 1169.77 614.76
00046306 00000087 976.96 157.06 364.28 573.24 1018.17 423.31 1190.26 437.41 1049.63 523.61 1023.16 604.56 1169.81 615.34
00046307 00000088 974.87 158.91 370.42 571.15 1017.56 420.96 1192.03 434.17 1047.80 523.29 1022.18 604.30 1171.04 614.49
00046308 00000089 975.11 157.17 371.61 572.81 1018.17 418.81 1191.61 433.45 1046.49 523.83 1021.44 603.07 1170.27 614.37
00046309 00000090 975.41 156.90 373.18 573.98 1018.06 417.77 1191.72 432.60 1044.91 523.21 1020.79 602.77 1170.11 614.16
00046310 00000091 975.95 157.82 371.99 572.35 1019.71 417.39 1189.69 432.49 1046.47 524.13 1022.86 601.62 1169.58 613.13
00046311 00000092 976.57 156.98 371.09 573.42 1020.52 417.09 1190.40 432.30 1047.51 523.53 1023.59 601.18 1169.76 612.83
00046312 00000093 976.51 157.58 370.93 572.33 1021.14 416.37 1190.78 431.38 1047.75 523.47 1024.15 600.72 1170.25 612.33
00046313 00000094 976.46 157.44 370.81 572.41 1020.59 416.07 1190.70 430.51 1047.37 522.93 1023.63 600.77 1170.50 611.89
00046314 00000095 976.87 157.21 369.31 571.83 1021.05 415.01 1191.11 429.56 1048.33 523.37 1024.55 600.45 1171.63 611.69
00046315 00000096 976.71 156.65 370.01 572.67 1020.75 414.73 1191.26 429.41 1047.82 523.15 1024.22 600.58 1171.82 611.90
00046316 00000097 976.72 156.42 370.20 572.89 1020.57 415.28 1191.44 429.82 1048.14 522.48 1024.01 600.39 1171.45 611.49
00046317 00000098 976.57 155.67 371.09 573.68 1020.95 415.20 1191.41 429.68 1047.91 522.54 1024.30 600.28 1171.66 611.35
00046318 00000099 976.49 155.51 371.18 574.01 1020.80 415.47 1191.27 429.85 1047.71 522.61 1024.25 600.54 1171.55 611.55
00046319 00000100 976.30 156.08 372.01 573.31 1020.88 415.22 1191.29 429.51 1047.61 522.36 1023.88 600.40 1170.98 611.45
00046320 00000101 976.08 155.87 372.28 573.31 1020.90 415.07 1191.35 429.41 1047.42 522.40 1023.86 600.40 1170.87 611.50
00046321 00000102 975.80 155.83 372.70 573.52 1020.94 415.20 1191.40 429.54 1047.33 522.33 1023.66 600.48 1170.75 611.64
00046322 00000103 976.32 155.21 371.77 574.36 1020.65 414.90 1191.13 429.05 1047.07 522.04 1023.51 600.51 1170.90 611.44
00046323 00000104 976.00 155.20 371.48 573.70 1021.46 413.75 1190.64 428.41 1047.75 522.37 1024.18 599.57 1170.97 610.93
00046324 00000105 975.52 155.53 372.66 573.72 1021.45 411.86 1190.86 427.02 1048.03 522.92 1023.99 599.20 1171.30 611.02
00046325 00000106 975.77 153.53 372.07 576.80 1021.64 411.12 1191.38 426.39 1048.61 522.88 1024.32 599.82 1171.39 611.82
00046326 00000107 975.08 151.75 374.02 578.70 1021.39 410.45 1191.46 425.80 1048.63 522.52 1023.87 599.41 1171.33 611.38
00046327 00000108 974.83 152.61 374.23 577.81 1021.79 410.75 1192.00 425.80 1049.27 522.25 1023.88 599.21 1171.64 610.99
00046328 00000109 975.59 151.96 371.96 578.21 1022.16 410.45 1191.98 425.43 1049.84 522.28 1025.08 599.37 1172.32 611.09
00046329 00000110 975.86 152.41 370.91 577.25 1022.14 410.31 1192.16 425.47 1049.68 522.40 1025.07 599.08 1172.80 610.96
00046330 00000111 975.34 152.35 371.67 577.59 1022.18 409.76 1192.76 425.08 1050.21 522.23 1024.94 599.01 1173.09 611.04
00046331 00000112 976.46 152.44 368.94 576.93 1022.01 409.79 1192.33 425.45 1049.96 522.03 1024.93 598.51 1172.97 610.78
00046332 00000113 976.02 151.96 369.83 577.96 1022.16 409.86 1192.10 425.34 1050.17 521.76 1025.22 598.58 1172.94 610.69
00046333 00000114 976.43 152.76 369.76 576.84 1022.51 409.64 1192.55 425.46 1049.99 521.66 1024.66 597.94 1172.67 610.32
00046334 00000115 976.29 151.59 371.11 578.10 1022.54 409.77 1192.07 425.86 1049.66 522.06 1024.79 597.58 1172.97 610.03
00046335 00000116 976.75 150.09 371.71 580.29 1022.57 409.48 1191.88 425.78 1049.29 521.98 1024.98 597.48 1173.52 610.01
00046336 00000117 976.71 150.19 371.81 580.43 1022.57 409.75 1192.05 425.99 1049.42 521.83 1025.02 597.76 1173.66 610.23
00046337 00000118 976.68 151.09 371.56 579.30 1022.61 409.98 1192.15 426.07 1049.26 521.56 1024.58 597.68 1173.27 610.09
00046338 00000119 976.90 150.93 371.21 579.49 1022.60 410.08 1192.15 426.08 1049.34 521.74 1024.80 598.08 1173.21 610.44
00046339 00000120 976.63 151.10 371.72 579.47 1022.74 409.95 1192.65 426.23 1049.62 521.94 1024.90 597.77 1173.54 610.32
00046340 00000121 977.00 150.49 372.65 579.73 1022.58 410.27 1192.84 426.07 1049.18 521.80 1025.06 598.28 1173.70 610.37
00046341 00000122 977.21 150.06 371.83 579.98 1022.45 410.20 1192.56 425.90 1049.39 521.92 1025.21 598.00 1174.04 609.94
00046342 00000123 977.16 150.22 371.83 579.92 1022.04 410.68 1192.15 426.06 1048.94 521.64 1024.84 598.11 1173.80 609.78
00046343 00000124 976.49 150.27 372.20 579.72 1022.16 410.14 1192.38 425.92 1049.20 521.66 1024.69 597.86 1173.46 609.88
00046344 00000125 977.00 150.50 371.81 579.67 1022.25 410.40 1192.42 425.82 1049.10 521.48 1024.94 597.87 1173.90 609.61
00046345 00000126 977.05 150.97 371.74 578.81 1022.27 410.07 1192.35 425.83 1049.27 521.72 1024.82 597.67 1173.59 609.70
00046346 00000127 976.24 149.90 373.07 580.35 1022.22 409.85 1192.26 425.43 1049.09 521.98 1024.93 597.67 1174.26 609.52
00046347 00000128 976.57 150.12 373.15 580.09 1022.32 410.21 1192.27 425.38 1049.44 522.02 1025.19 597.87 1174.03 609.40
00046348 00000129 976.31 149.21 372.51 580.45 1022.38 410.22 1192.68 425.51 1049.91 521.42 1024.82 597.72 1173.73 609.35
00046349 00000130 976.78 148.46 370.98 581.38 1022.50 410.04 1192.65 425.46 1050.06 521.27 1025.09 597.31 1174.19 608.99
00046350 00000131 976.80 148.22 371.26 581.54 1022.57 409.42 1192.63 425.03 1049.97 521.22 1025.05 597.30 1173.85 609.14
00046351 00000132 978.65 148.49 367.77 581.30 1022.68 414.56 1196.81 431.51 1052.40 520.08 1024.58 598.75 1175.40 611.50
00046352 00000133 979.01 148.51 366.13 581.04 1023.39 417.19 1198.43 434.47 1056.67 518.67 1027.79 599.57 1178.00 612.57
00046353 00000134 978.21 148.73 369.21 581.26 1022.50 416.79 1198.41 433.17 1054.04 518.70 1025.96 600.02 1177.17 612.33
00046354 00000135 978.97 147.70 368.83 582.46 1022.61 414.42 1197.63 430.58 1052.63 519.15 1025.26 599.54 1176.56 611.71
00046355 00000136 978.84 148.97 367.90 580.29 1022.74 412.44 1193.70 428.47 1050.55 519.70 1024.60 597.64 1173.52 609.88
00046356 00000137 977.96 149.51 369.83 580.05 1023.14 410.95 1193.59 425.97 1051.07 520.52 1025.18 597.81 1173.83 609.37
00046357 00000138 978.04 149.25 369.50 579.71 1023.43 410.01 1193.07 425.31 1050.84 520.45 1025.19 597.13 1173.49 608.92
00046358 00000139 977.63 149.64 370.62 579.27 1023.59 409.63 1193.90 424.59 1051.62 519.86 1025.05 597.03 1174.01 608.60
00046359 00000140 977.36 148.24 370.36 581.00 1023.79 409.18 1194.42 424.76 1051.92 519.67 1025.16 597.04 1174.39 609.05
00046360 00000141 977.60 147.99 370.26 581.48 1023.46 408.81 1193.99 424.43 1050.98 519.71 1024.70 596.87 1174.17 608.87
00046361 00000142 977.11 149.02 372.11 580.89 1023.59 409.55 1193.51 424.54 1051.05 520.39 1024.96 596.92 1174.07 608.38
00046362 00000143 976.95 148.83 372.71 580.61 1023.48 409.94 1193.87 424.77 1051.40 520.41 1025.11 596.81 1174.65 608.07
00046363 00000144 977.47 148.93 370.76 580.32 1023.75 409.87 1193.93 424.68 1051.59 520.08 1025.11 596.93 1174.18 608.25
00046364 00000145 978.35 149.52 369.96 579.46 1023.88 409.49 1194.00 424.18 1051.25 520.08 1025.27 596.92 1174.04 608.21
00046365 00000146 977.65 149.28 370.34 579.51 1023.35 408.84 1193.86 423.67 1050.57 519.97 1024.60 596.66 1173.72 608.08
00046366 00000147 977.78 148.57 370.14 580.69 1023.35 408.34 1193.62 423.39 1050.55 519.67 1024.38 596.75 1172.99 608.43
00046367 00000148 977.85 148.37 370.19 580.85 1023.60 408.18 1193.79 423.37 1050.13 519.44 1024.21 596.48 1172.79 608.36
00046368 00000149 977.50 148.81 370.11 580.57 1023.20 408.21 1193.81 423.10 1050.06 519.25 1023.87 596.67 1172.79 608.33
00046369 00000150 977.46 147.36 369.30 581.73 1022.75 407.43 1193.30 422.31 1049.58 518.60 1023.70 596.41 1172.98 608.06
00046370 00000151 977.16 147.02 369.79 582.40 1022.60 407.38 1193.42 421.92 1049.76 518.34 1023.67 596.97 1172.91 608.39
00046371 00000152 977.93 147.06 368.07 582.60 1022.42 407.69 1194.61 422.16 1049.73 518.28 1023.15 597.39 1173.33 608.87
00046372 00000153 978.34 148.36 365.59 580.82 1022.17 407.37 1194.24 422.59 1049.10 517.37 1022.43 596.49 1172.52 608.56
00046373 00000154 978.15 149.19 365.06 577.92 1022.96 405.65 1194.11 422.67 1048.68 516.31 1021.48 594.44 1170.95 608.13
00046374 00000155 978.75 150.29 364.64 577.61 1022.90 406.07 1193.32 424.05 1046.37 517.55 1021.08 594.31 1170.24 608.73
00046375 00000156 976.64 158.92 370.89 568.73 1023.51 407.54 1195.48 428.97 1046.47 523.80 1021.44 595.74 1169.93 613.02
00046376 DELETE   976.61 172.14 373.57 563.74 1025.43 414.45 1198.57 437.88 1053.66 533.82 1024.78 602.07 1170.81 621.37
00046377 DELETE   989.44 186.23 363.38 572.06 1034.92 419.86 1208.46 455.18 1062.84 542.86 1033.83 615.76 1181.59 643.84
00046378 00000159 986.26 189.98 369.90 586.34 1029.57 433.87 1204.54 464.51 1060.12 555.34 1030.44 631.62 1179.04 656.27
00046379 DELETE   983.38 190.41 371.60 584.78 1030.03 430.65 1203.89 463.20 1059.15 552.76 1028.44 628.10 1176.63 654.26
00046380 DELETE   984.05 186.21 370.04 580.53 1033.39 421.39 1205.04 456.30 1060.45 544.04 1029.58 619.15 1177.75 647.03
00046381 DELETE   975.15 182.98 371.10 576.10 1026.23 423.27 1196.85 447.50 1052.46 543.01 1021.01 614.92 1165.76 635.41
00046382 00000163 975.93 177.91 369.26 580.92 1025.28 420.49 1191.96 447.96 1046.88 539.50 1018.35 608.85 1163.48 631.57
