Video ID: 	y53X_26lzDc
H: 	1080
W: 	1920
FPS: 	25.0

FRAME INDEX X0 Y0 W H [Landmarks (5 Points)]

00008056 00000000 455.62 201.73 479.79 674.22 591.55 454.13 801.90 455.81 705.77 570.40 613.29 692.27 789.14 692.33
00008057 00000001 457.66 204.25 480.68 665.49 596.25 459.84 808.31 459.88 716.19 571.06 618.39 687.83 801.54 686.68
00008058 DELETE   463.12 210.68 479.60 651.40 613.85 463.96 817.04 460.64 729.04 574.24 637.75 690.54 808.59 686.88
00008059 00000003 467.71 203.28 482.67 664.81 616.89 474.29 824.52 466.97 732.71 581.14 640.21 696.97 814.66 691.02
00008060 DELETE   466.16 198.53 480.96 666.98 613.59 472.19 818.09 464.60 728.06 584.22 636.02 694.60 810.05 688.41
00008061 00000005 459.34 205.17 480.25 668.07 605.89 468.54 809.52 462.81 722.13 587.06 631.82 702.05 804.21 696.45
00008062 00000006 456.32 194.02 488.96 700.04 607.04 461.52 803.89 461.07 716.83 585.55 629.16 703.65 800.91 702.43
00008063 00000007 457.01 193.14 489.38 701.24 608.65 462.02 807.71 462.37 720.19 585.79 630.43 703.03 805.66 702.39
00008064 00000008 466.48 199.96 482.38 683.05 610.97 469.02 818.91 463.47 727.74 588.55 637.74 705.89 814.05 700.79
00008065 00000009 468.14 200.10 482.70 670.03 612.16 468.54 819.82 462.14 727.80 586.73 641.48 701.70 813.17 696.17
00008066 00000010 470.04 200.15 482.34 664.57 613.88 467.87 822.61 461.07 729.19 586.65 641.68 698.70 814.47 693.01
00008067 00000011 471.38 202.83 482.22 663.38 618.34 467.29 826.79 461.09 736.37 585.07 646.12 697.81 819.20 692.58
00008068 00000012 477.08 205.49 482.31 659.39 627.01 468.77 834.62 459.15 748.79 586.01 659.42 699.84 829.35 691.87
00008069 00000013 482.66 200.87 477.54 665.71 635.40 472.76 841.33 459.63 762.85 586.40 672.59 702.10 843.20 691.37
00008070 00000014 477.75 198.40 482.04 680.19 642.94 463.71 841.72 461.09 763.68 584.69 668.93 700.10 840.92 696.84
00008071 00000015 476.48 198.04 481.42 689.07 643.50 461.56 839.69 460.20 763.72 584.44 663.25 698.81 842.19 696.63
00008072 00000016 477.24 194.43 480.98 688.55 642.89 463.90 840.52 461.55 764.24 584.94 661.42 695.71 844.66 692.48
00008073 00000017 483.66 202.10 475.83 666.00 641.24 471.99 848.68 459.15 772.39 587.10 677.17 698.56 850.42 688.56
00008074 00000018 484.72 199.82 474.95 664.66 650.60 468.17 847.93 460.16 777.24 582.39 680.99 693.20 855.50 685.20
00008075 00000019 485.60 200.90 473.92 663.25 652.65 469.38 849.09 460.27 780.65 582.14 684.52 693.53 858.48 684.63
00008076 00000020 485.03 200.93 474.22 662.10 652.06 470.14 849.68 461.09 779.96 583.62 684.34 695.59 857.49 686.85
00008077 00000021 484.54 201.01 473.61 661.24 649.73 471.82 849.29 462.13 778.28 585.92 682.25 698.46 856.51 689.29
00008078 00000022 484.10 202.10 473.76 662.72 649.75 472.00 849.72 461.58 779.32 587.19 683.12 700.48 857.74 690.73
00008079 00000023 485.61 201.82 472.22 659.37 651.66 472.60 852.24 460.87 783.45 587.68 688.29 701.69 861.49 690.87
00008080 00000024 492.20 213.37 471.34 647.42 665.13 471.15 866.12 458.97 804.17 584.37 703.34 701.43 874.30 690.08
00008081 DELETE   502.39 213.16 468.82 643.03 687.60 467.01 885.99 453.11 835.45 573.78 728.79 697.78 893.63 684.73
00008082 00000026 515.12 215.88 471.53 638.61 705.76 460.08 901.04 442.71 860.58 558.33 758.52 691.30 919.59 675.43
00008083 00000027 521.46 215.83 468.88 635.91 718.54 452.48 910.30 437.15 875.17 552.94 771.89 687.99 928.29 673.25
00008084 00000028 519.63 213.86 469.84 640.75 716.96 456.99 908.83 440.57 874.04 558.17 771.22 693.11 928.06 677.62
00008085 00000029 516.18 217.33 469.54 642.46 712.88 468.38 903.88 448.78 872.05 568.57 766.50 702.43 924.27 685.43
00008086 00000030 515.09 226.85 468.59 637.27 716.54 472.65 904.07 451.06 869.37 575.66 769.08 709.68 920.37 689.36
00008087 00000031 516.69 217.69 468.17 639.63 714.57 464.09 905.74 447.33 873.32 565.45 769.40 699.39 925.98 684.13
00008088 00000032 516.51 213.34 469.19 640.03 715.15 458.25 907.58 442.26 873.27 559.64 769.36 694.49 925.84 679.40
00008089 00000033 516.93 215.41 469.65 640.22 717.53 462.28 909.00 446.27 876.42 565.76 770.95 698.95 926.98 684.12
00008090 00000034 519.31 224.30 468.89 634.58 717.84 470.10 909.11 452.80 875.39 571.77 771.93 704.61 927.36 689.50
00008091 00000035 521.59 226.05 468.42 632.26 719.52 469.57 911.82 452.47 877.57 570.93 773.68 704.46 929.51 689.41
00008092 00000036 524.36 214.19 467.31 639.74 722.20 459.93 916.30 443.31 881.82 562.28 774.80 696.68 932.72 681.32
00008093 00000037 524.18 213.31 468.14 641.12 722.37 454.69 917.15 441.74 880.61 556.76 774.59 694.18 931.41 681.63
00008094 00000038 526.68 214.99 464.05 651.62 726.67 461.40 913.44 447.97 882.00 562.12 777.73 702.82 929.90 690.66
00008095 00000039 527.31 216.72 465.49 652.82 726.54 467.89 917.07 450.51 885.66 569.53 781.36 709.74 936.17 694.18
00008096 00000040 531.02 216.09 464.96 648.95 728.52 464.90 921.40 447.93 888.60 567.53 781.41 704.84 940.22 689.52
00008097 00000041 533.68 210.55 467.28 651.46 732.57 460.71 925.38 446.14 891.18 560.25 781.39 696.03 943.31 682.28
00008098 00000042 535.54 214.95 467.66 646.14 735.70 459.50 925.39 446.95 891.62 557.48 780.31 692.22 940.70 680.40
00008099 00000043 538.30 211.65 466.49 655.84 743.43 459.77 925.36 449.07 891.24 564.60 778.56 691.74 939.22 681.39
00008100 00000044 539.43 211.04 466.78 659.24 745.25 464.51 927.80 453.23 893.37 574.95 784.41 699.67 941.90 688.57
00008101 00000045 539.22 212.55 466.89 654.66 744.64 463.31 927.72 452.40 893.24 573.47 784.73 698.58 941.66 687.73
00008102 00000046 539.24 211.94 465.83 650.01 741.21 459.18 926.25 446.99 890.66 563.78 778.37 690.41 940.46 678.63
00008103 00000047 537.38 213.66 464.90 645.45 733.73 462.22 926.73 448.68 890.91 562.24 780.32 695.54 941.64 682.78
00008104 00000048 537.17 215.44 465.23 646.00 733.27 464.04 927.21 450.78 890.57 567.05 782.84 701.38 941.30 688.89
00008105 00000049 536.62 216.29 464.56 647.71 733.55 467.07 925.36 453.83 889.48 571.15 784.39 705.91 939.84 693.67
00008106 00000050 534.54 218.84 465.40 641.37 731.58 467.69 924.19 452.61 888.13 570.94 784.01 705.00 939.13 691.19
00008107 00000051 535.57 218.36 464.36 637.59 729.92 466.92 924.08 450.99 886.72 569.44 783.08 702.30 939.86 687.58
00008108 00000052 531.41 217.61 466.61 642.17 727.07 466.84 921.68 451.77 883.90 568.73 780.22 703.71 937.58 689.84
00008109 00000053 530.19 218.31 466.04 652.37 728.21 467.35 917.57 452.79 884.16 567.31 779.83 706.46 935.66 693.18
00008110 00000054 527.67 213.85 468.20 663.32 728.93 465.00 917.74 451.73 884.96 566.73 777.55 706.11 935.06 693.94
00008111 00000055 527.85 212.83 465.51 648.05 725.82 464.34 918.13 450.87 882.47 565.72 773.60 698.75 932.98 686.30
00008112 00000056 527.66 214.20 466.72 641.99 724.03 464.62 920.46 449.31 882.67 567.48 771.93 697.03 935.17 682.96
00008113 00000057 526.85 212.82 466.66 641.99 723.94 465.41 919.26 449.78 882.82 567.55 772.69 696.38 935.00 682.06
00008114 00000058 526.89 212.85 466.94 642.01 723.76 465.49 919.20 450.76 882.37 567.35 772.89 696.60 934.87 683.01
00008115 00000059 526.83 213.64 467.58 639.38 723.07 465.23 920.21 449.93 882.45 568.12 773.44 697.21 935.83 683.09
00008116 00000060 527.35 214.86 467.52 639.35 723.01 465.98 920.15 450.62 882.37 568.14 774.20 698.11 936.47 683.94
00008117 00000061 525.76 216.93 468.37 639.70 721.78 466.90 918.73 451.32 880.91 569.23 773.31 699.72 935.75 685.50
00008118 00000062 524.77 215.78 468.27 645.69 724.11 466.69 916.08 451.93 881.10 567.88 776.28 701.90 933.26 688.42
00008119 00000063 524.65 216.55 468.29 647.00 730.08 471.87 916.62 455.25 882.38 569.33 773.19 703.37 927.13 689.17
00008120 00000064 522.53 214.03 467.25 651.66 727.68 476.81 915.19 460.36 878.52 570.68 767.22 704.91 922.61 690.74
00008121 00000065 519.16 216.50 468.07 662.18 727.23 474.50 911.23 458.50 875.01 571.22 769.96 709.19 919.32 693.84
00008122 00000066 513.42 217.59 470.32 671.01 719.71 472.86 900.51 456.13 865.73 568.71 767.14 711.52 915.50 695.18
00008123 00000067 509.38 214.93 469.50 674.41 709.89 469.37 894.38 451.29 855.08 571.14 757.18 706.51 910.95 688.38
00008124 00000068 505.16 215.16 468.14 673.27 701.79 467.38 887.46 448.69 846.30 569.90 748.49 702.84 905.09 683.99
00008125 00000069 496.46 214.60 469.02 667.77 692.00 465.92 875.41 448.72 841.19 565.24 734.65 701.29 895.36 685.81
00008126 00000070 492.09 213.96 468.06 665.53 685.72 464.75 869.86 446.79 833.00 565.97 727.82 700.77 888.01 684.69
00008127 00000071 484.48 214.12 470.42 660.63 674.75 464.02 863.55 445.45 822.71 563.72 719.54 698.72 880.75 682.29
00008128 00000072 478.58 210.15 469.35 664.14 668.91 464.30 854.95 443.45 815.44 563.87 713.40 696.96 874.99 678.24
00008129 00000073 476.42 212.36 468.39 658.11 663.49 462.94 849.92 440.90 809.02 562.29 708.69 695.00 871.20 675.12
00008130 00000074 475.13 211.26 467.77 653.65 654.88 464.80 844.93 441.03 799.43 561.45 699.19 690.73 868.39 669.42
00008131 00000075 471.59 214.52 468.44 651.03 649.44 463.41 838.51 440.54 791.64 560.49 693.30 688.66 862.37 668.03
00008132 00000076 460.73 221.15 477.96 656.43 644.04 468.61 835.78 439.50 787.23 569.15 693.70 701.31 852.67 674.36
00008133 00000077 456.96 212.99 474.47 661.78 639.74 466.62 834.51 443.13 787.83 565.23 694.54 704.31 852.10 683.36
00008134 00000078 457.07 212.80 474.11 655.94 635.81 466.85 836.11 441.46 786.25 566.83 689.34 701.86 852.99 679.54
00008135 00000079 458.06 213.49 473.26 649.02 635.18 465.01 838.49 438.86 787.40 565.40 688.30 698.44 854.90 675.46
00008136 00000080 461.59 214.43 472.63 643.46 636.21 464.47 840.55 437.71 789.15 564.26 691.68 698.65 857.67 674.96
00008137 00000081 466.71 217.14 473.26 641.95 640.00 463.97 843.63 437.36 791.68 562.57 696.38 699.57 861.62 675.97
00008138 00000082 470.59 208.39 468.89 660.94 649.42 459.80 838.64 440.18 789.13 556.35 696.22 694.18 857.14 676.11
00008139 00000083 470.68 209.15 469.52 663.18 650.30 459.19 837.46 439.92 789.38 556.32 696.88 696.76 854.96 679.14
00008140 00000084 470.82 207.89 469.65 658.02 647.43 458.85 836.98 439.27 786.23 557.13 690.53 690.93 855.82 672.93
00008141 00000085 466.24 211.12 470.91 644.53 640.39 459.16 838.25 435.87 786.65 558.61 692.26 691.35 855.01 670.09
00008142 00000086 460.86 208.67 473.71 658.48 636.86 457.08 835.93 435.90 782.71 559.12 686.08 693.82 851.08 674.49
00008143 00000087 455.58 209.03 475.44 668.27 635.37 457.76 829.23 439.66 779.52 559.36 687.39 700.93 843.08 684.47
00008144 00000088 449.34 204.57 476.81 658.49 629.24 457.30 825.25 438.33 774.15 558.95 682.79 696.62 836.90 679.56
00008145 00000089 447.41 202.60 477.63 656.06 625.02 457.90 824.86 433.20 774.44 559.06 678.61 692.92 841.90 670.94
00008146 00000090 446.87 201.78 477.53 648.40 621.69 458.01 823.24 428.69 772.19 556.88 676.80 689.23 842.86 663.33
00008147 00000091 447.05 201.84 478.22 649.98 622.60 457.86 824.42 428.45 773.85 557.62 676.74 689.24 844.50 663.24
00008148 00000092 447.62 201.88 478.75 649.32 623.11 457.51 824.99 429.40 773.54 557.27 677.62 689.59 843.86 664.75
00008149 00000093 448.47 203.16 478.55 645.06 623.00 457.31 826.93 428.37 774.76 555.04 678.08 688.94 845.57 663.42
00008150 00000094 447.89 200.01 479.90 646.08 622.56 457.01 827.09 426.88 775.66 552.33 679.30 687.81 846.82 661.13
00008151 00000095 448.31 199.96 478.51 644.77 622.21 456.82 827.90 425.83 775.83 551.62 678.67 687.16 847.77 659.79
00008152 00000096 447.22 200.12 479.56 643.83 620.45 457.11 826.57 425.37 774.83 551.81 676.75 685.54 847.88 657.51
00008153 00000097 446.99 201.75 479.80 643.33 619.60 457.52 825.16 425.25 773.16 552.25 674.67 684.29 847.26 655.87
00008154 00000098 444.72 201.64 481.70 651.58 621.03 457.72 822.93 427.46 772.16 553.27 674.52 687.13 843.39 660.59
00008155 00000099 446.18 202.31 480.13 660.18 627.30 459.01 823.53 435.01 774.18 557.20 675.84 690.41 839.61 669.21
00008156 00000100 455.93 205.73 477.76 670.16 636.08 459.21 834.71 437.60 785.62 560.65 681.56 695.51 852.34 676.24
00008157 DELETE   470.80 209.48 467.95 665.85 658.47 450.42 842.22 429.66 806.28 543.43 693.87 685.84 864.83 667.40
00008158 DELETE   485.73 198.06 473.10 655.30 675.98 439.43 870.94 417.52 831.03 523.64 718.19 669.44 890.57 648.49
00008159 DELETE   507.09 187.25 469.22 639.48 697.41 426.70 890.11 406.33 848.80 514.41 746.08 653.33 912.20 633.68
00008160 00000104 521.67 189.83 461.99 625.64 710.41 423.59 904.22 403.93 864.25 510.23 761.98 653.02 924.61 633.94
00008161 00000105 529.75 189.76 462.79 624.58 719.72 422.96 915.93 405.46 875.30 512.02 768.16 655.15 931.83 638.26
00008162 00000106 533.96 185.75 467.91 632.77 728.45 423.57 922.31 408.10 884.42 514.49 775.04 656.37 936.91 641.60
00008163 00000107 539.26 186.96 468.04 640.51 734.09 427.40 927.93 414.18 889.79 520.57 779.11 661.09 941.40 648.37
00008164 00000108 541.05 193.55 465.24 639.10 736.18 433.50 931.53 421.93 893.22 531.46 780.99 670.41 941.32 659.55
00008165 00000109 539.76 196.61 463.22 637.34 734.86 440.13 932.05 427.06 893.34 537.50 780.43 676.37 940.63 664.22
00008166 00000110 537.12 201.73 462.22 633.47 731.84 445.72 928.11 430.91 889.60 546.27 779.15 680.45 938.30 666.40
00008167 00000111 532.66 202.77 464.55 637.62 727.88 450.55 924.34 434.45 885.36 551.30 775.72 684.96 935.26 669.82
00008168 00000112 529.01 204.70 466.58 642.57 724.55 452.15 920.63 435.46 882.02 552.76 771.78 687.32 932.24 671.78
00008169 00000113 524.06 207.38 467.52 638.53 721.04 452.18 916.98 435.58 878.70 552.87 768.42 685.48 928.99 669.99
00008170 00000114 520.67 206.35 468.89 643.40 720.22 450.03 915.57 435.25 878.18 550.60 766.58 683.87 928.14 669.79
00008171 00000115 519.11 206.19 466.24 654.19 721.65 448.20 910.25 437.30 876.29 547.72 765.11 686.28 922.34 675.48
00008172 00000116 519.05 204.46 465.92 658.43 721.27 447.66 909.32 437.65 875.91 547.38 766.14 688.98 921.61 678.92
00008173 00000117 518.37 202.34 466.75 658.66 722.49 445.17 909.41 435.97 877.08 544.97 768.96 687.93 921.56 678.42
00008174 00000118 518.12 201.81 466.32 657.03 720.42 446.64 907.10 434.78 873.98 545.07 766.14 686.03 919.66 674.32
CROP_BBOX: 124 0 1257 1080
