Video ID: 	7Bp6qil-qYY
H: 	1080
W: 	1920
FPS: 	29.97002997002997

FRAME INDEX X0 Y0 W H [Landmarks (5 Points)]

00098862 00000000 549.02 120.96 386.11 559.73 750.63 343.42 889.41 333.20 894.31 412.08 811.87 544.49 914.91 533.81
00098863 DELETE   544.01 107.14 387.84 564.13 742.29 345.37 880.41 331.27 895.73 404.95 806.03 530.24 919.76 518.01
00098864 00000002 544.59 98.78 391.63 564.35 741.18 340.35 880.86 323.69 893.59 394.03 808.31 524.46 922.91 510.06
00098865 00000003 542.75 94.42 394.06 561.25 744.42 337.65 881.14 318.99 896.86 385.65 811.79 518.54 924.69 502.30
00098866 DELETE   537.54 95.59 397.70 557.02 744.36 335.78 872.89 317.51 896.82 375.28 811.60 512.49 919.98 496.78
00098867 DELETE   529.08 97.29 396.56 554.10 736.68 336.06 865.06 320.05 887.45 377.39 804.19 510.02 911.19 495.78
00098868 DELETE   522.43 104.80 399.08 546.02 721.43 333.43 858.90 322.53 872.79 375.15 789.91 506.26 903.60 496.19
00098869 00000007 525.54 87.54 391.01 558.94 710.70 331.38 848.54 313.14 857.81 375.16 785.35 505.99 897.48 489.80
00098870 00000008 522.02 93.03 389.77 552.49 709.82 327.26 844.59 309.40 856.48 376.28 786.78 505.21 895.16 489.41
00098871 00000009 520.98 83.95 386.64 559.01 712.23 326.21 839.16 309.15 857.93 372.20 791.28 502.53 892.39 487.37
00098872 00000010 522.44 80.65 385.56 558.18 712.19 323.67 836.19 305.44 858.40 367.77 795.84 498.30 894.99 482.42
00098873 00000011 521.68 81.21 389.00 554.15 713.97 319.49 834.39 300.11 861.69 363.70 800.87 493.41 898.71 476.68
00098874 00000012 522.28 78.29 392.42 556.38 714.69 316.45 835.67 298.46 865.51 359.25 801.98 490.08 901.23 474.64
00098875 00000013 523.50 72.19 392.66 562.19 715.54 315.17 836.44 295.99 866.03 357.89 803.02 490.76 901.64 474.43
00098876 00000014 524.31 79.50 391.75 554.90 714.69 318.40 836.99 298.94 864.01 359.75 800.84 491.12 900.40 474.25
00098877 00000015 524.80 79.59 388.57 557.38 714.02 319.87 837.53 302.84 862.56 363.17 800.85 495.78 899.67 481.07
00098878 00000016 526.32 79.75 388.81 562.40 717.24 323.08 841.16 307.78 863.05 366.10 799.39 500.53 897.70 487.44
00098879 00000017 527.61 88.23 391.04 558.04 718.25 326.04 847.92 314.00 864.03 371.29 794.56 504.97 898.24 494.25
00098880 00000018 530.28 84.27 389.39 566.01 722.63 328.54 852.34 315.94 868.44 376.15 794.89 509.02 900.87 497.42
00098881 00000019 533.32 87.98 387.76 564.12 728.07 329.12 855.91 316.15 874.93 381.05 799.90 512.87 904.31 501.43
00098882 00000020 538.89 85.65 388.57 562.95 736.79 333.65 868.98 320.10 888.31 382.02 808.19 514.16 915.76 501.84
00098883 00000021 544.39 85.56 389.26 564.97 744.57 335.64 878.79 322.46 898.69 382.51 813.81 514.93 925.69 502.44
00098884 00000022 547.23 91.44 391.06 564.64 750.04 338.81 884.25 323.00 906.35 386.27 817.97 518.55 931.85 504.35
00098885 00000023 551.05 101.21 390.86 558.96 753.77 343.06 889.25 328.64 911.91 392.35 819.14 521.60 935.02 509.15
00098886 00000024 551.31 92.59 389.44 573.14 758.63 345.43 890.92 333.01 916.31 396.93 821.70 526.37 935.69 515.56
00098887 00000025 550.92 106.67 388.55 563.45 757.15 344.71 892.12 335.64 913.55 401.96 818.45 528.60 932.97 520.56
00098888 00000026 551.98 113.01 387.87 558.85 757.62 344.71 894.11 339.67 913.60 403.92 819.00 531.00 932.93 526.19
00098889 00000027 553.78 108.74 386.31 564.06 759.87 346.05 893.61 340.28 914.60 404.52 821.70 532.99 933.07 527.80
00098890 00000028 554.96 110.96 383.65 563.92 762.39 345.68 889.61 341.61 913.84 406.39 825.59 534.78 930.53 531.50
00098891 00000029 557.93 114.99 373.18 564.88 769.87 339.97 886.84 330.67 912.41 411.31 832.88 545.84 919.64 537.69
00098892 00000030 558.56 114.49 374.41 574.29 773.95 341.05 886.79 336.25 914.49 416.29 831.97 548.37 916.54 544.20
00098893 00000031 558.12 112.00 374.25 581.92 774.27 342.56 884.91 339.26 914.53 419.35 832.48 551.55 914.67 548.88
00098894 00000032 556.03 117.39 375.06 578.28 771.50 344.43 884.43 341.81 911.39 421.17 827.91 552.42 911.75 549.87
00098895 00000033 551.24 118.80 378.21 578.96 768.77 344.74 884.40 345.10 909.73 420.89 826.15 552.73 911.95 552.27
00098896 00000034 547.96 114.87 379.62 583.28 767.62 345.99 884.33 346.64 909.28 420.18 824.33 552.29 910.39 551.95
00098897 00000035 547.30 112.69 379.76 585.85 767.68 346.91 882.47 348.37 909.54 420.29 824.85 551.86 909.33 552.46
00098898 00000036 548.21 113.54 379.20 583.80 767.81 348.21 883.19 348.98 910.32 421.02 826.25 552.79 911.82 552.97
00098899 00000037 548.46 118.11 380.99 576.54 767.30 350.62 886.55 349.67 911.27 422.39 825.64 553.51 914.01 552.05
00098900 00000038 549.50 117.02 381.19 575.89 767.73 354.21 890.25 349.54 912.98 424.76 825.06 555.54 916.29 550.76
00098901 00000039 549.26 121.27 383.43 572.01 763.95 356.28 892.20 350.87 909.70 426.53 820.41 556.78 916.05 551.11
00098902 00000040 546.09 128.09 386.39 566.43 760.49 359.86 890.69 353.43 906.29 428.34 814.85 556.30 914.57 549.49
00098903 00000041 544.69 125.95 387.87 572.05 756.79 364.18 890.78 357.23 904.17 431.13 810.53 557.78 914.58 550.31
00098904 00000042 541.89 132.85 388.22 568.40 750.06 368.49 886.19 359.98 897.41 435.09 803.98 558.53 910.74 549.44
00098905 00000043 540.77 133.03 387.19 571.56 744.55 374.77 881.27 366.07 889.40 438.51 797.50 560.05 903.48 551.25
00098906 00000044 539.40 131.14 387.51 582.04 742.64 376.63 875.12 368.90 884.31 443.26 794.44 566.22 896.03 558.69
00098907 00000045 540.78 137.31 391.99 584.76 747.19 378.62 879.66 371.68 888.51 448.60 793.94 572.70 899.11 565.64
00098908 00000046 547.69 146.90 392.08 578.09 754.31 380.44 890.11 373.74 896.72 454.32 798.96 578.38 908.30 571.26
00098909 00000047 556.58 152.25 387.21 568.40 765.93 385.38 904.74 379.58 911.65 460.92 806.92 580.54 918.24 574.25
00098910 00000048 565.53 156.66 382.96 567.29 773.78 390.78 915.46 384.73 919.12 469.15 810.64 585.84 926.06 579.53
00098911 00000049 569.19 160.28 382.16 566.51 780.57 397.06 922.12 391.89 925.35 475.83 815.34 590.59 930.50 584.82
00098912 00000050 571.99 158.44 381.73 570.07 782.11 402.72 925.78 395.09 927.39 483.43 815.91 594.59 931.89 586.58
00098913 00000051 571.32 160.87 386.09 571.67 782.17 403.46 926.76 397.39 925.98 485.12 812.29 594.94 930.76 588.17
00098914 00000052 570.24 162.06 389.28 572.51 781.61 404.36 927.84 398.98 925.45 486.76 809.09 594.73 930.16 588.51
00098915 00000053 573.07 161.93 388.68 575.92 784.78 403.41 930.05 399.78 928.26 486.47 810.34 594.94 932.10 590.06
00098916 00000054 576.66 158.57 388.71 579.85 790.90 402.39 934.87 399.37 935.18 486.91 814.25 595.04 935.99 590.80
00098917 00000055 579.66 155.10 387.09 583.11 796.48 403.19 938.32 400.72 939.94 488.17 818.63 595.87 937.89 592.24
00098918 00000056 584.47 160.57 383.61 579.67 799.40 403.99 940.63 400.68 942.61 491.49 823.56 599.67 939.77 595.51
00098919 00000057 584.70 162.06 384.51 579.73 802.00 404.59 941.11 402.62 943.97 493.34 828.91 604.08 939.35 601.07
00098920 00000058 584.91 162.13 384.56 581.24 801.63 405.48 940.45 403.17 943.29 493.43 830.14 605.94 939.52 602.66
00098921 00000059 585.37 160.43 384.69 582.66 802.36 405.56 941.63 404.74 943.40 493.55 829.26 605.90 938.90 603.96
00098922 00000060 585.04 160.21 383.80 581.64 801.67 406.04 941.11 404.90 942.02 493.80 828.74 606.27 937.98 604.16
00098923 00000061 585.54 159.06 381.46 581.34 800.76 405.36 938.23 403.19 939.84 492.17 828.68 605.75 936.29 602.80
00098924 00000062 583.72 156.22 380.42 584.71 800.47 402.75 935.86 402.82 939.00 490.29 828.36 604.35 934.78 603.12
00098925 00000063 581.15 156.26 380.62 582.05 796.96 401.50 934.05 400.73 936.63 488.89 825.60 602.48 934.12 600.50
00098926 00000064 577.87 157.64 381.97 579.02 792.57 399.34 931.65 399.04 933.47 484.18 821.81 598.77 933.16 597.07
00098927 00000065 576.45 158.41 380.59 576.53 789.71 396.76 927.92 396.35 930.99 479.42 819.61 595.26 932.05 593.66
00098928 00000066 574.36 156.36 380.10 575.36 784.35 395.27 924.74 393.71 926.94 476.17 815.58 592.84 930.64 590.42
00098929 00000067 571.26 152.82 380.43 575.76 779.58 394.27 919.32 390.99 923.20 470.67 813.86 589.55 928.88 586.00
00098930 00000068 567.81 153.97 383.36 572.70 775.46 390.88 916.22 388.38 918.94 467.39 811.35 587.55 926.15 584.60
00098931 00000069 564.01 155.73 385.24 567.91 770.50 387.44 912.12 384.18 914.71 464.72 810.06 585.62 923.03 581.93
00098932 00000070 559.39 152.99 388.04 567.50 765.97 385.51 908.38 380.57 910.95 462.11 808.37 583.48 920.53 578.25
00098933 00000071 556.29 150.03 388.37 569.36 764.45 383.51 901.90 377.45 909.00 458.47 809.90 581.26 918.07 575.13
00098934 00000072 553.49 154.31 387.32 563.57 760.71 383.05 896.15 376.70 903.74 457.10 806.80 578.59 913.83 571.98
00098935 00000073 549.60 151.28 387.87 565.74 757.13 382.08 891.19 376.10 898.24 453.78 804.28 576.51 909.99 570.15
00098936 00000074 548.62 146.10 386.57 566.86 755.36 380.21 884.54 374.71 894.03 448.50 804.28 571.91 905.81 566.24
00098937 00000075 544.35 142.07 387.36 568.67 751.38 374.50 880.81 369.93 891.62 443.38 804.60 569.56 903.90 564.79
00098938 00000076 542.06 141.42 388.01 568.08 745.98 370.04 878.10 364.76 887.47 440.19 803.22 568.15 902.37 562.77
00098939 00000077 541.32 144.47 385.21 563.94 741.11 365.93 875.29 361.65 882.68 436.86 800.96 565.61 900.43 560.83
00098940 00000078 541.67 138.39 382.32 567.71 740.56 363.99 871.06 360.83 881.20 432.47 801.26 561.99 898.20 558.51
00098941 00000079 541.30 136.52 381.20 568.91 738.12 362.78 868.41 358.63 879.65 430.76 800.80 561.08 897.46 556.86
00098942 00000080 540.23 137.07 381.84 568.02 735.46 362.38 866.06 358.28 877.17 429.81 798.48 560.34 895.76 556.13
00098943 00000081 539.30 138.74 383.64 565.44 734.66 360.81 866.83 356.89 876.66 429.10 797.66 559.56 896.16 555.33
00098944 00000082 538.16 135.40 384.24 568.62 734.86 359.46 866.17 355.97 876.32 428.36 797.45 559.04 895.68 555.26
00098945 00000083 537.13 134.77 384.69 567.49 733.38 359.02 864.78 355.36 874.60 427.78 796.00 557.59 894.73 553.58
00098946 00000084 537.58 136.33 383.99 563.48 733.16 358.74 864.66 355.30 873.78 427.32 794.98 555.71 893.94 551.80
00098947 00000085 538.34 137.70 383.49 559.80 733.92 359.59 866.42 356.98 875.18 426.85 794.14 553.66 895.08 550.41
00098948 00000086 537.46 137.32 384.91 554.91 734.86 359.10 868.68 357.14 876.93 426.45 792.77 550.25 895.94 547.45
00098949 00000087 533.77 129.20 384.85 554.01 732.51 368.07 874.82 363.88 876.06 431.14 784.40 547.73 898.51 543.31
00098950 00000088 534.21 127.26 384.78 550.94 733.29 367.23 876.13 363.62 877.52 429.04 787.17 546.14 899.88 542.15
00098951 00000089 535.28 132.81 384.29 543.52 734.67 365.15 876.06 364.44 879.17 427.33 789.68 543.55 900.71 541.99
00098952 00000090 537.76 131.81 382.49 542.77 734.94 364.24 876.12 363.71 879.68 426.35 791.15 543.34 901.55 541.91
00098953 00000091 539.02 130.55 382.16 544.64 735.75 364.31 877.58 364.84 881.21 424.98 792.65 543.81 903.67 543.26
00098954 00000092 539.53 128.81 381.00 548.85 737.81 363.73 879.00 365.12 882.25 425.45 792.01 544.51 902.65 544.62
00098955 00000093 544.46 130.52 380.56 557.24 744.22 356.47 877.31 356.63 887.50 422.09 801.66 547.28 903.61 545.94
00098956 00000094 543.62 135.90 384.08 558.90 746.61 357.08 880.89 357.53 890.60 424.92 801.24 551.53 903.89 550.35
00098957 00000095 549.77 134.54 381.96 559.55 751.93 360.35 888.58 356.93 896.35 426.91 803.91 553.36 909.65 548.99
00098958 00000096 553.20 142.23 385.74 552.92 756.47 363.16 899.36 362.33 903.41 428.91 806.14 555.92 917.44 553.52
00098959 00000097 556.13 147.55 385.87 548.92 759.79 367.96 903.71 365.14 908.81 433.08 810.08 560.78 921.89 556.91
00098960 00000098 555.85 146.58 389.73 560.42 762.27 375.63 905.16 369.02 912.58 440.84 812.54 569.58 925.36 562.76
00098961 00000099 562.74 152.55 386.94 563.45 766.17 383.95 911.20 377.39 916.02 453.44 810.16 578.56 928.42 572.00
00098962 00000100 567.19 159.04 385.22 566.11 770.62 393.08 918.80 388.31 919.25 465.76 807.95 586.50 931.07 581.45
00098963 00000101 569.25 157.90 385.94 571.00 776.36 401.34 925.01 396.78 924.42 473.94 809.87 591.73 932.70 586.77
00098964 00000102 569.13 165.91 384.05 567.74 775.98 408.34 923.42 403.55 922.94 479.61 807.27 594.85 930.54 589.84
00098965 00000103 565.64 165.79 386.36 571.66 770.55 411.59 918.39 404.89 917.17 481.25 803.66 597.86 927.61 591.42
00098966 00000104 556.66 169.17 392.99 570.91 762.22 413.19 912.19 405.11 910.35 482.58 799.50 599.74 922.64 591.78
00098967 00000105 553.38 166.12 394.29 576.56 755.28 415.65 903.58 405.07 900.15 485.81 793.66 602.80 915.90 592.62
00098968 00000106 549.43 169.05 390.69 575.16 746.46 421.33 895.96 407.02 889.78 493.18 786.07 607.98 908.64 594.67
00098969 00000107 546.18 173.22 387.67 572.60 735.30 425.88 885.67 406.50 876.27 502.70 777.61 615.02 897.40 597.92
00098970 00000108 545.24 174.49 385.90 572.92 727.69 426.33 879.70 408.50 867.61 506.67 773.16 618.73 889.95 603.10
00098971 00000109 544.63 173.42 386.94 577.69 723.39 427.36 878.38 409.12 865.09 509.16 770.08 622.17 889.19 606.24
00098972 00000110 544.12 178.33 387.56 575.56 723.33 431.86 879.94 414.69 864.34 515.29 768.45 625.89 889.21 610.75
00098973 00000111 544.81 190.08 393.28 574.25 727.89 425.31 882.32 414.08 868.19 510.77 773.60 630.21 889.00 620.39
00098974 00000112 543.63 196.78 394.01 572.09 727.81 429.26 882.88 418.52 867.74 514.46 772.02 632.78 888.26 623.16
00098975 00000113 542.02 199.43 394.62 572.11 727.21 435.22 881.94 424.31 865.71 519.15 768.57 634.45 885.93 624.74
00098976 00000114 538.18 199.66 396.40 571.14 722.88 437.89 877.46 426.39 859.46 520.91 765.18 634.84 881.83 624.62
00098977 00000115 533.21 200.63 398.84 566.19 720.06 437.95 874.93 424.93 856.39 522.32 762.31 633.45 879.60 622.25
00098978 00000116 530.02 195.28 395.10 562.21 713.20 442.55 871.60 427.52 849.99 530.16 755.32 628.89 878.41 616.22
00098979 00000117 529.96 189.02 393.74 564.98 710.12 438.05 867.70 421.32 846.91 524.51 753.73 625.44 876.44 611.51
00098980 00000118 529.32 180.75 393.83 568.27 709.48 432.20 864.75 415.05 844.95 518.15 753.89 621.15 873.71 606.95
00098981 00000119 530.18 178.10 390.86 570.09 707.43 429.17 861.38 411.03 842.85 515.23 754.64 619.92 873.45 604.96
00098982 00000120 529.25 175.59 390.90 573.49 707.50 428.52 860.72 410.10 844.52 512.89 755.53 620.19 873.75 605.12
00098983 00000121 529.21 176.42 391.36 573.81 707.61 428.81 861.01 410.51 845.08 512.55 756.18 621.08 874.47 606.10
00098984 00000122 531.11 177.12 390.05 576.55 711.27 431.02 862.61 413.79 847.42 514.24 756.07 622.36 874.61 608.07
00098985 00000123 534.00 182.88 389.27 574.69 715.28 434.90 867.41 420.21 852.23 517.01 757.82 625.20 877.45 612.79
00098986 00000124 535.98 190.65 388.79 569.02 716.43 440.15 872.53 426.99 853.66 523.73 759.00 629.01 880.86 617.69
00098987 00000125 537.05 195.65 394.48 572.24 723.92 432.83 875.63 426.47 859.91 516.07 767.20 630.73 881.23 624.94
00098988 00000126 539.60 197.64 392.97 570.15 726.39 432.37 877.72 428.07 862.48 515.27 768.71 629.84 882.03 625.78
00098989 00000127 541.08 199.47 391.55 564.48 726.79 428.04 877.70 424.67 862.06 512.43 768.88 626.91 881.68 623.53
00098990 00000128 540.70 190.34 386.16 564.15 722.75 435.48 877.80 426.24 859.83 519.41 762.49 624.45 882.91 615.87
00098991 00000129 542.35 186.01 385.02 564.11 723.35 428.44 877.70 418.95 861.11 511.87 764.41 620.02 882.67 611.31
00098992 00000130 544.57 178.63 384.67 569.58 725.51 424.87 878.08 415.16 862.38 504.13 767.86 616.22 886.15 607.09
00098993 00000131 546.93 176.33 385.47 569.10 730.67 421.30 883.71 412.67 868.07 496.82 771.24 610.67 892.40 602.30
00098994 00000132 550.23 177.15 385.73 569.78 738.01 418.81 889.04 410.51 875.38 494.03 776.23 609.38 897.49 601.22
00098995 00000133 554.45 177.30 386.25 572.72 744.80 417.27 895.50 410.40 882.99 493.70 782.59 610.28 904.13 603.01
00098996 00000134 555.45 176.31 390.81 576.19 751.87 416.48 902.55 414.08 890.92 492.24 787.77 610.58 908.27 607.18
00098997 00000135 560.36 177.44 391.31 576.16 757.88 416.53 910.29 416.46 897.10 495.03 791.26 612.60 912.08 611.21
00098998 00000136 563.44 174.00 392.42 580.24 765.37 415.64 916.44 417.79 902.95 499.01 796.98 614.81 914.35 615.12
00098999 00000137 565.40 176.09 393.59 577.70 769.49 415.03 921.76 418.23 907.40 501.73 800.09 615.94 916.34 617.09
00099000 00000138 568.58 176.50 392.23 573.17 772.16 416.06 923.15 417.61 908.83 502.59 803.56 614.69 918.18 614.41
00099001 00000139 572.47 176.85 390.77 567.80 774.66 417.10 926.79 416.86 911.89 502.27 805.80 613.06 921.70 611.49
00099002 00000140 573.94 177.42 391.19 565.34 776.44 417.59 928.25 417.12 913.51 501.07 806.41 611.28 923.50 609.61
00099003 00000141 574.50 177.94 392.39 566.02 777.00 416.65 930.10 416.63 914.25 500.86 803.94 609.57 924.33 608.42
00099004 00000142 574.33 177.42 393.62 569.82 778.14 415.72 931.48 418.72 914.36 501.54 803.23 611.42 923.50 612.72
00099005 00000143 575.82 178.37 392.19 571.22 779.62 416.44 932.08 419.53 915.02 503.43 804.13 613.73 923.28 615.19
00099006 00000144 576.69 179.47 391.84 571.19 780.80 416.31 932.55 420.02 915.76 504.00 804.05 613.40 923.36 615.40
00099007 00000145 577.94 180.60 389.81 569.25 782.05 415.91 933.14 420.21 916.35 504.31 805.39 613.75 922.75 616.24
00099008 00000146 578.40 179.24 389.81 566.70 783.04 416.11 933.67 419.91 917.17 503.85 807.08 612.51 923.41 614.72
CROP_BBOX: 213 0 1320 1020
