Video ID: 	kvuZyX6_W_0
H: 	2160
W: 	3840
FPS: 	60.0

FRAME INDEX X0 Y0 W H [Landmarks (5 Points)]

00004467 00000000 1606.86 372.82 693.59 953.55 1744.01 800.61 2045.42 735.23 1901.40 972.63 1838.31 1140.24 2092.60 1085.45
00004468 DELETE   1606.63 372.94 693.94 953.66 1743.89 800.66 2045.34 735.19 1901.33 972.57 1838.46 1140.31 2092.53 1085.45
00004469 00000002 1595.06 357.72 697.99 965.01 1730.55 793.61 2030.64 721.76 1882.56 965.05 1836.29 1139.13 2074.72 1083.48
00004470 00000003 1595.04 357.13 697.92 965.39 1730.54 793.73 2030.58 721.78 1882.60 965.17 1836.11 1139.13 2074.84 1083.40
00004471 00000004 1595.21 357.02 697.76 965.52 1730.72 793.64 2030.65 721.71 1882.78 964.89 1836.08 1138.93 2074.97 1083.23
00004472 00000005 1594.13 351.89 702.01 978.30 1732.15 786.29 2034.02 708.97 1886.36 947.29 1847.29 1142.71 2071.46 1084.70
00004473 00000006 1593.79 352.17 701.91 978.28 1732.01 786.38 2033.98 709.02 1886.47 947.24 1847.29 1142.81 2071.32 1084.79
00004474 00000007 1590.46 347.79 701.16 976.70 1730.26 773.34 2034.03 699.26 1884.90 933.05 1847.61 1136.76 2065.61 1081.04
00004475 00000008 1590.26 347.08 701.20 976.86 1730.24 773.30 2033.99 699.28 1884.89 933.06 1847.52 1136.60 2065.66 1080.92
00004476 00000009 1590.33 347.12 701.13 976.43 1730.26 773.20 2034.13 699.23 1884.87 932.93 1847.58 1136.34 2065.81 1080.69
00004477 00000010 1583.37 337.14 698.80 979.39 1718.83 766.27 2028.24 690.94 1876.68 929.87 1833.19 1132.13 2068.26 1073.85
00004478 00000011 1583.00 337.22 698.93 978.74 1718.70 766.14 2028.06 690.89 1876.59 929.68 1833.27 1132.27 2068.00 1074.04
00004479 00000012 1584.05 336.66 686.67 972.57 1707.19 766.28 2028.95 695.19 1872.49 926.08 1820.73 1119.88 2069.37 1065.99
00004480 00000013 1584.84 334.00 685.11 974.61 1707.88 766.57 2028.84 695.72 1873.29 926.05 1821.12 1119.65 2069.05 1065.96
00004481 00000014 1584.82 334.08 685.09 974.05 1707.75 766.61 2028.76 695.71 1873.23 926.07 1821.23 1119.76 2069.02 1066.05
00004482 00000015 1580.14 330.82 690.59 985.01 1708.95 765.38 2028.80 693.64 1875.98 922.41 1821.33 1114.66 2074.90 1059.92
00004483 00000016 1580.52 331.89 690.33 984.03 1709.21 765.60 2028.84 693.58 1876.11 922.31 1821.96 1114.55 2075.52 1059.58
00004484 00000017 1565.10 316.62 718.12 1009.33 1720.32 759.22 2035.56 694.77 1890.84 911.35 1849.57 1109.49 2096.44 1056.48
00004485 00000018 1565.32 316.24 718.14 1008.82 1720.51 759.87 2035.51 695.12 1891.23 910.83 1849.58 1108.64 2096.63 1055.35
00004486 00000019 1566.00 316.29 717.38 1008.68 1720.29 759.84 2035.28 695.06 1891.01 911.07 1849.40 1108.89 2096.42 1055.62
00004487 00000020 1565.56 314.82 720.74 1009.79 1727.09 755.72 2042.85 695.69 1902.96 908.82 1853.06 1105.23 2102.13 1055.65
00004488 00000021 1566.60 314.76 719.81 1009.82 1727.27 755.87 2042.92 696.11 1902.42 909.05 1852.60 1105.31 2101.68 1056.00
00004489 00000022 1564.07 318.99 726.09 1011.09 1726.12 758.92 2045.14 698.59 1904.73 916.71 1851.91 1111.20 2103.50 1060.99
00004490 00000023 1564.26 318.30 725.69 1012.99 1726.11 759.62 2044.67 698.84 1904.46 916.89 1851.53 1111.64 2103.37 1061.11
00004491 00000024 1564.09 318.14 725.77 1013.43 1726.17 759.69 2044.81 698.87 1904.67 917.05 1851.49 1111.88 2103.48 1061.33
00004492 00000025 1565.72 321.81 728.43 1002.19 1728.49 759.14 2050.82 703.44 1904.33 923.66 1852.54 1109.76 2106.08 1063.40
00004493 00000026 1565.80 322.00 728.29 1002.25 1728.33 759.09 2050.66 703.28 1904.38 923.65 1852.41 1109.78 2106.07 1063.32
00004494 00000027 1571.06 317.44 727.22 1002.77 1733.45 758.02 2059.00 704.72 1908.22 920.23 1850.40 1106.64 2108.48 1062.90
00004495 00000028 1571.25 317.58 727.22 1003.22 1733.57 757.82 2058.56 704.43 1908.13 920.53 1850.67 1106.89 2108.44 1063.01
00004496 00000029 1570.81 318.10 727.61 1002.87 1733.27 758.54 2058.79 704.43 1908.36 920.80 1851.01 1107.64 2109.17 1063.18
00004497 00000030 1581.25 319.92 719.23 991.45 1738.72 755.89 2067.00 703.15 1913.92 921.01 1853.65 1103.77 2114.35 1060.64
00004498 00000031 1581.97 320.09 718.58 990.92 1738.60 756.03 2066.84 702.86 1913.66 921.02 1853.62 1104.03 2113.93 1060.60
00004499 00000032 1591.48 317.37 710.49 988.76 1748.14 753.62 2072.42 703.23 1922.46 916.59 1859.49 1096.82 2117.93 1056.18
00004500 00000033 1590.84 316.03 711.06 989.48 1747.33 753.72 2071.93 702.60 1922.38 917.01 1859.81 1097.14 2118.49 1056.01
00004501 00000034 1591.21 316.96 711.34 989.03 1747.28 753.96 2071.57 702.59 1921.81 917.21 1859.86 1097.24 2118.37 1055.88
00004502 00000035 1596.47 312.75 707.17 987.93 1751.63 745.17 2076.73 699.44 1925.10 914.30 1861.79 1091.05 2120.05 1054.71
00004503 00000036 1596.18 311.99 707.25 988.92 1751.36 744.90 2076.75 699.69 1924.84 913.86 1861.11 1091.07 2119.48 1055.16
00004504 00000037 1597.79 310.42 701.07 980.73 1751.45 739.04 2064.96 683.38 1915.16 909.21 1833.15 1097.07 2105.75 1051.50
00004505 00000038 1597.80 310.28 701.03 980.80 1751.46 739.04 2064.95 683.39 1915.17 909.23 1833.16 1097.12 2105.72 1051.55
00004506 00000039 1597.91 310.44 700.86 980.82 1751.44 739.13 2064.87 683.46 1915.12 909.23 1833.10 1097.19 2105.72 1051.62
00004507 00000040 1601.83 315.13 690.75 980.62 1749.54 738.51 2068.90 683.68 1915.17 906.64 1836.26 1083.85 2098.33 1041.09
00004508 00000041 1602.44 314.80 690.22 981.37 1749.70 738.57 2068.69 683.72 1914.71 906.41 1836.19 1083.79 2097.96 1041.05
00004509 00000042 1604.13 317.25 686.83 987.49 1750.53 743.43 2066.04 687.42 1914.84 905.64 1832.82 1082.56 2100.93 1038.67
00004510 00000043 1604.39 318.05 686.50 986.46 1750.61 743.39 2066.13 687.38 1914.79 905.58 1832.69 1082.49 2101.11 1038.64
00004511 00000044 1604.13 317.52 686.43 986.48 1750.58 743.53 2066.08 687.39 1915.09 905.79 1832.75 1082.51 2101.15 1038.56
00004512 00000045 1600.60 317.50 686.91 984.54 1751.76 751.96 2063.13 697.10 1915.03 911.71 1830.52 1079.66 2102.98 1036.27
00004513 00000046 1600.44 317.73 687.07 984.29 1751.69 751.92 2063.15 697.07 1915.00 911.70 1830.48 1079.69 2102.98 1036.31
00004514 00000047 1598.37 331.60 687.59 976.78 1745.41 762.09 2061.45 705.85 1912.69 921.35 1826.58 1093.01 2100.80 1048.98
00004515 00000048 1598.13 331.42 687.99 977.15 1745.31 762.05 2061.44 705.93 1912.54 921.62 1826.57 1093.00 2100.88 1049.01
00004516 00000049 1598.33 331.99 687.89 976.83 1745.46 761.82 2061.57 705.98 1912.56 921.61 1826.23 1092.81 2101.04 1049.02
00004517 00000050 1584.39 340.78 703.73 973.78 1737.10 773.53 2048.88 713.91 1906.90 946.09 1815.84 1123.94 2097.13 1075.59
00004518 00000051 1584.43 340.49 703.69 973.77 1737.05 773.45 2048.98 713.83 1906.82 945.88 1815.74 1124.01 2097.13 1075.68
00004519 00000052 1558.85 349.49 730.17 1007.99 1723.33 793.04 2053.61 743.23 1904.50 978.28 1843.13 1138.85 2114.40 1096.44
00004520 00000053 1558.58 349.12 730.51 1008.12 1723.26 793.08 2053.67 743.28 1904.41 978.48 1843.03 1138.96 2114.27 1096.55
00004521 00000054 1558.50 349.06 730.82 1008.36 1723.47 792.98 2053.60 743.37 1904.41 978.66 1843.39 1138.90 2114.31 1096.64
00004522 00000055 1556.00 362.44 731.75 1003.02 1720.83 800.32 2053.33 752.55 1903.77 993.68 1840.86 1147.74 2110.87 1106.66
00004523 00000056 1555.53 362.33 732.23 1003.15 1720.89 800.13 2053.66 752.17 1904.00 993.60 1840.98 1147.73 2111.00 1106.47
00004524 00000057 1561.05 358.76 733.31 1003.63 1727.44 792.94 2061.93 747.32 1907.73 987.51 1844.46 1141.69 2121.05 1102.61
00004525 00000058 1560.69 358.25 733.44 1004.00 1727.30 793.00 2061.57 747.53 1907.56 987.49 1844.82 1141.60 2121.13 1102.65
00004526 00000059 1560.79 358.54 733.24 1003.37 1727.39 792.96 2061.75 747.48 1907.60 987.40 1844.73 1141.54 2121.12 1102.58
00004527 00000060 1573.80 343.33 728.15 1013.11 1738.72 781.68 2072.96 735.90 1919.82 975.77 1857.04 1133.24 2133.77 1093.73
00004528 00000061 1573.95 341.64 728.24 1014.59 1738.54 781.74 2072.72 735.96 1919.35 975.85 1857.00 1133.16 2133.55 1093.70
00004529 00000062 1583.46 334.68 725.46 1005.63 1751.73 767.52 2085.03 723.06 1931.92 960.40 1863.96 1119.92 2133.25 1082.13
00004530 00000063 1583.53 334.24 725.50 1005.75 1751.64 767.36 2085.19 722.93 1931.76 960.30 1863.79 1119.67 2133.37 1081.89
00004531 00000064 1583.37 334.10 725.66 1005.89 1751.45 767.50 2085.09 722.89 1931.71 960.27 1863.91 1119.93 2133.39 1081.99
00004532 00000065 1593.89 320.68 723.42 1019.73 1760.86 764.27 2090.22 720.21 1936.49 953.14 1869.32 1117.91 2134.44 1081.44
00004533 00000066 1593.52 319.79 723.84 1019.97 1760.82 764.15 2090.26 720.14 1936.78 952.52 1869.39 1117.61 2134.37 1081.14
00004534 00000067 1598.58 319.18 722.73 1019.16 1763.42 765.29 2092.41 716.92 1940.25 952.23 1873.17 1117.66 2138.02 1077.79
00004535 00000068 1598.91 319.37 722.76 1017.08 1763.47 765.76 2092.19 716.96 1940.67 952.01 1874.03 1117.28 2137.98 1077.10
00004536 00000069 1598.77 319.15 722.95 1017.87 1763.25 765.56 2092.18 716.72 1940.41 952.03 1873.53 1117.37 2137.88 1077.19
00004537 00000070 1603.45 317.81 720.37 1012.05 1767.47 766.54 2097.61 713.64 1948.96 947.85 1880.28 1116.19 2143.04 1072.60
00004538 00000071 1603.57 318.82 720.12 1012.13 1767.78 766.97 2097.50 713.78 1949.19 947.98 1880.05 1116.30 2143.43 1072.45
00004539 00000072 1622.20 328.19 709.49 1009.90 1779.73 754.10 2099.53 702.14 1960.94 931.32 1869.74 1121.64 2134.71 1079.34
00004540 00000073 1622.30 328.50 709.53 1009.57 1779.77 754.05 2099.46 701.92 1960.93 931.00 1869.89 1121.62 2134.73 1079.17
00004541 00000074 1622.36 328.44 709.48 1009.56 1779.90 753.96 2099.45 701.79 1960.98 930.90 1870.05 1121.62 2134.83 1079.03
00004542 00000075 1610.43 317.33 717.96 1013.85 1773.50 763.77 2103.09 712.85 1952.80 943.58 1880.27 1112.31 2144.70 1070.94
00004543 00000076 1624.24 323.65 709.27 1015.29 1781.61 753.35 2102.58 700.64 1962.78 928.76 1870.38 1121.16 2137.24 1078.11
00004544 00000077 1609.12 317.50 718.45 1012.20 1773.11 762.29 2103.71 712.93 1954.12 942.79 1878.78 1111.25 2142.83 1071.22
00004545 00000078 1609.13 317.06 718.82 1012.74 1772.91 762.49 2103.67 712.99 1953.99 943.15 1878.71 1111.54 2142.71 1071.43
00004546 00000079 1608.71 317.16 719.27 1012.26 1772.70 762.59 2103.66 712.86 1953.87 943.48 1878.90 1111.81 2142.76 1071.47
00004547 00000080 1610.07 317.76 717.91 1013.46 1772.79 763.05 2104.59 712.92 1954.05 943.80 1877.81 1112.93 2143.64 1072.54
00004548 00000081 1610.52 317.83 717.38 1013.44 1773.49 762.56 2104.70 713.17 1954.28 942.97 1877.64 1112.21 2143.45 1072.38
00004549 00000082 1606.88 320.26 718.56 1003.12 1771.97 759.41 2103.81 711.26 1954.51 942.46 1877.26 1107.62 2141.57 1068.76
00004550 00000083 1606.52 320.31 718.88 1002.92 1771.92 759.45 2103.72 711.54 1954.69 942.69 1877.24 1107.60 2141.35 1068.89
00004551 00000084 1606.98 320.58 718.59 1002.77 1771.89 759.67 2103.53 711.50 1954.66 942.70 1877.40 1107.76 2141.32 1068.88
00004552 00000085 1606.93 317.93 717.22 1000.13 1769.65 755.55 2102.57 708.50 1952.10 942.34 1874.95 1106.06 2138.72 1068.28
00004553 00000086 1607.40 317.83 716.72 1000.18 1769.73 755.32 2102.50 708.61 1952.15 942.82 1874.89 1106.01 2138.47 1068.54
00004554 00000087 1606.13 317.44 716.95 994.75 1768.09 753.79 2101.72 707.64 1951.78 944.75 1877.40 1107.83 2138.35 1070.56
00004555 00000088 1605.97 317.19 717.47 994.99 1767.92 753.95 2101.71 707.66 1952.06 945.34 1877.40 1107.73 2138.84 1070.30
00004556 00000089 1606.13 316.93 717.34 995.07 1768.01 753.71 2101.76 707.96 1951.76 945.37 1877.30 1107.52 2138.58 1070.53
00004557 00000090 1608.16 313.83 714.86 1000.35 1770.25 756.27 2101.17 713.21 1954.02 950.49 1881.33 1111.17 2136.46 1076.63
00004558 00000091 1608.35 314.03 714.84 1000.46 1770.07 756.53 2100.92 713.36 1953.69 950.09 1881.00 1111.20 2136.29 1076.57
00004559 00000092 1611.69 319.45 710.87 1005.92 1773.43 767.60 2093.89 725.49 1949.41 956.94 1881.54 1115.69 2132.20 1081.67
00004560 00000093 1611.49 319.09 710.85 1006.41 1773.53 767.16 2094.15 725.55 1949.63 956.61 1881.26 1115.53 2132.30 1081.88
00004561 00000094 1611.99 319.60 710.46 1006.24 1773.56 767.68 2093.71 725.85 1949.32 956.57 1881.23 1115.46 2132.19 1081.59
00004562 00000095 1612.21 316.89 711.10 1010.04 1775.18 769.87 2094.56 725.61 1950.65 953.67 1879.42 1113.94 2132.01 1078.41
00004563 00000096 1611.81 316.98 711.19 1009.32 1775.01 769.83 2094.03 725.55 1950.43 954.03 1880.28 1114.05 2131.70 1078.52
00004564 00000097 1610.46 318.21 713.29 998.07 1782.91 755.18 2102.07 711.93 1963.11 932.99 1882.76 1100.50 2131.83 1066.32
00004565 00000098 1610.43 318.27 713.23 997.76 1782.94 755.22 2101.91 711.91 1963.07 932.85 1882.82 1100.23 2131.77 1065.98
00004566 00000099 1610.47 318.24 713.25 997.59 1782.83 754.82 2101.80 712.01 1962.92 932.88 1882.66 1100.02 2131.53 1066.20
00004567 00000100 1613.71 299.95 710.61 1001.93 1785.24 725.68 2105.88 687.65 1963.59 911.14 1886.53 1084.52 2134.50 1054.99
00004568 00000101 1613.70 300.33 710.64 1001.33 1785.27 725.86 2105.87 687.75 1963.59 910.90 1886.84 1084.47 2134.79 1054.89
00004569 00000102 1617.48 294.58 710.94 990.10 1790.73 707.92 2113.00 668.03 1972.80 892.30 1883.71 1064.77 2136.61 1034.53
00004570 00000103 1617.56 295.07 710.75 989.79 1790.91 707.88 2113.05 668.12 1972.85 892.30 1883.78 1064.71 2136.47 1034.59
00004571 00000104 1617.77 294.89 710.29 989.64 1790.82 707.67 2113.08 668.27 1972.65 892.24 1883.46 1064.45 2136.16 1034.63
00004572 00000105 1617.87 288.37 713.18 990.10 1793.48 701.56 2120.49 664.75 1977.64 883.44 1880.39 1057.85 2138.40 1030.28
00004573 00000106 1618.00 288.64 713.03 989.61 1793.39 701.44 2120.24 664.55 1977.59 883.50 1880.75 1057.88 2138.29 1030.26
00004574 00000107 1620.36 287.45 712.81 985.49 1797.52 696.40 2125.63 663.69 1980.51 879.16 1881.31 1052.72 2139.00 1028.50
00004575 00000108 1620.59 287.65 712.68 985.44 1797.46 696.60 2125.43 664.13 1980.37 879.18 1881.14 1052.77 2138.98 1028.76
00004576 00000109 1620.58 287.50 712.60 985.55 1797.56 696.34 2125.59 663.97 1980.59 879.12 1881.43 1052.84 2139.02 1028.90
00004577 00000110 1619.77 290.19 713.23 979.59 1799.84 695.26 2130.39 663.69 1985.19 879.76 1881.52 1051.65 2140.67 1028.37
00004578 00000111 1619.81 290.18 713.03 979.51 1800.07 695.41 2130.79 663.72 1985.35 878.85 1881.63 1051.37 2141.16 1028.01
00004579 00000112 1620.33 292.18 712.75 978.41 1803.13 692.17 2133.77 662.14 1988.66 879.64 1883.04 1051.17 2140.28 1029.29
00004580 00000113 1620.25 291.53 712.80 978.77 1803.21 691.43 2133.17 661.97 1988.62 878.86 1882.95 1050.47 2139.68 1029.10
00004581 00000114 1620.08 291.77 712.93 978.53 1803.15 691.49 2133.13 662.05 1988.61 879.03 1883.21 1050.76 2139.68 1029.41
00004582 00000115 1622.30 291.62 709.63 976.65 1803.65 691.37 2134.10 663.22 1987.97 882.98 1884.87 1052.78 2137.97 1032.38
00004583 00000116 1622.32 291.84 709.60 976.29 1803.64 691.17 2134.00 663.35 1987.72 883.57 1884.66 1052.66 2137.67 1032.49
00004584 00000117 1621.53 292.60 709.91 974.31 1801.49 689.07 2130.92 666.54 1982.83 883.40 1875.74 1048.69 2130.72 1033.15
00004585 00000118 1621.76 292.11 710.06 974.75 1801.62 689.11 2131.27 666.25 1983.16 883.59 1876.70 1049.27 2131.58 1033.46
00004586 00000119 1621.82 292.13 710.06 974.46 1801.46 689.03 2131.18 666.24 1983.07 883.49 1876.83 1049.35 2131.44 1033.59
00004587 00000120 1628.68 288.30 698.01 973.37 1806.37 691.68 2130.34 665.06 1977.58 891.58 1860.90 1054.62 2132.05 1030.07
00004588 00000121 1628.47 288.36 698.44 974.02 1806.33 691.44 2130.38 665.05 1977.34 891.60 1860.33 1054.31 2131.82 1030.01
00004589 00000122 1620.77 291.50 709.95 983.96 1796.27 696.68 2126.33 672.67 1978.31 899.18 1877.80 1060.63 2133.31 1043.42
00004590 00000123 1620.36 291.33 710.23 984.02 1796.07 696.96 2126.38 672.81 1978.68 899.51 1877.47 1061.00 2133.32 1043.70
00004591 00000124 1620.62 292.20 709.73 983.36 1796.11 697.11 2126.30 673.03 1978.51 899.35 1877.32 1060.85 2133.34 1043.62
00004592 00000125 1621.57 297.65 708.83 986.17 1795.95 701.90 2125.26 676.10 1978.48 902.58 1881.84 1066.35 2135.82 1047.80
00004593 00000126 1621.70 297.07 708.70 986.86 1795.92 701.87 2125.37 676.07 1978.50 902.90 1881.51 1066.21 2136.25 1047.65
00004594 00000127 1621.23 297.25 708.21 988.89 1795.85 702.02 2126.08 676.33 1978.02 901.40 1879.97 1066.83 2136.13 1048.56
00004595 00000128 1621.55 297.37 707.45 989.05 1795.82 701.68 2126.14 675.85 1977.68 901.07 1879.38 1066.59 2135.93 1048.32
00004596 00000129 1621.39 297.11 707.45 989.24 1795.87 701.61 2126.33 675.84 1977.98 901.20 1879.55 1066.77 2135.90 1048.52
00004597 00000130 1621.94 296.98 709.58 989.32 1796.07 705.05 2127.79 678.97 1978.26 901.77 1879.55 1066.58 2140.66 1047.74
00004598 00000131 1622.27 296.60 709.45 989.36 1796.24 704.83 2127.63 678.91 1978.13 901.30 1879.53 1066.09 2140.63 1047.39
00004599 00000132 1624.89 301.22 707.93 985.98 1797.95 707.74 2133.51 682.04 1979.83 904.50 1878.06 1067.91 2146.19 1049.44
00004600 00000133 1624.94 301.61 707.79 985.58 1797.98 707.89 2133.57 682.19 1979.90 904.69 1878.16 1067.94 2146.22 1049.47
00004601 00000134 1624.80 301.73 707.97 985.59 1798.04 707.86 2133.57 682.12 1980.01 904.64 1878.27 1067.89 2146.30 1049.39
00004602 00000135 1625.43 302.59 707.40 983.40 1800.72 710.46 2137.30 685.56 1983.09 902.99 1877.48 1065.76 2149.53 1047.76
00004603 00000136 1625.43 302.32 707.79 983.54 1800.30 710.75 2137.28 685.70 1982.57 903.32 1877.66 1066.67 2149.33 1048.51
00004604 00000137 1625.61 303.42 710.14 983.64 1801.40 713.50 2141.47 684.68 1986.56 903.56 1880.56 1066.29 2160.70 1044.74
00004605 00000138 1625.27 303.14 710.37 983.66 1801.23 713.14 2141.26 684.75 1986.18 903.43 1880.15 1065.89 2160.03 1044.75
00004606 00000139 1625.00 302.48 710.38 984.21 1801.14 713.23 2140.99 684.68 1985.81 903.04 1879.86 1065.73 2160.23 1044.44
00004607 00000140 1633.27 302.45 700.24 981.56 1806.80 714.24 2138.99 680.48 1986.11 910.48 1863.93 1063.74 2152.10 1036.97
00004608 00000141 1625.14 304.00 710.02 979.93 1801.77 713.18 2141.68 684.45 1986.58 900.26 1875.66 1061.83 2160.30 1040.38
00004609 00000142 1631.20 301.81 702.16 979.45 1804.54 713.56 2138.54 681.44 1984.03 911.04 1858.08 1060.86 2151.67 1035.41
00004610 00000143 1631.25 301.81 702.54 980.07 1804.69 713.27 2138.63 681.36 1984.07 911.51 1857.72 1060.33 2152.39 1034.94
00004611 00000144 1631.15 301.59 702.69 980.13 1804.83 713.24 2138.54 681.12 1984.09 911.64 1858.63 1060.53 2152.18 1034.95
00004612 00000145 1631.55 303.64 702.20 981.97 1803.67 713.69 2136.48 682.08 1982.31 912.61 1855.34 1059.68 2152.17 1034.27
00004613 00000146 1631.58 303.71 701.82 982.20 1803.79 713.71 2136.51 682.03 1982.40 912.60 1855.68 1059.90 2152.12 1034.44
00004614 00000147 1630.74 305.01 702.25 980.63 1801.15 715.34 2135.07 681.91 1980.21 913.34 1854.64 1061.72 2152.41 1034.95
00004615 00000148 1630.82 305.22 701.93 979.70 1801.17 715.59 2134.98 681.88 1980.20 913.65 1855.30 1062.06 2152.11 1035.10
00004616 00000149 1630.93 305.15 701.74 980.05 1801.40 715.53 2135.09 681.71 1980.44 913.75 1855.50 1062.19 2152.49 1035.13
00004617 00000150 1629.69 304.13 702.34 981.39 1801.87 716.34 2133.18 682.80 1979.82 914.72 1856.11 1060.90 2151.15 1033.94
00004618 00000151 1629.87 304.01 702.27 981.42 1801.99 716.22 2133.15 682.91 1979.70 914.82 1855.88 1060.85 2150.97 1034.09
00004619 00000152 1631.95 305.54 700.45 975.68 1803.58 718.08 2133.25 683.85 1979.91 914.14 1861.35 1059.64 2149.91 1031.77
00004620 00000153 1632.30 307.76 700.05 973.66 1803.80 718.10 2133.13 683.58 1980.11 914.56 1861.71 1059.96 2150.10 1031.78
00004621 00000154 1632.23 307.07 700.22 974.74 1803.69 717.88 2133.18 683.38 1980.19 914.39 1861.27 1059.83 2150.38 1031.63
00004622 00000155 1624.63 304.43 709.81 972.71 1799.39 716.25 2140.52 686.93 1985.63 906.94 1875.42 1059.91 2163.46 1037.49
00004623 00000156 1631.10 303.32 702.79 972.11 1803.58 719.09 2135.02 684.86 1981.66 916.38 1863.22 1059.19 2151.26 1031.26
00004624 00000157 1622.66 307.87 713.13 972.75 1801.94 721.05 2139.54 692.54 1985.62 911.57 1875.51 1061.62 2157.88 1039.84
00004625 00000158 1622.70 307.87 712.76 972.64 1801.99 720.83 2139.57 692.27 1985.81 911.64 1875.54 1061.45 2158.30 1039.66
00004626 00000159 1622.80 308.03 712.64 972.44 1802.06 720.91 2139.61 692.38 1985.75 911.69 1875.77 1061.45 2158.43 1039.71
