Video ID: 	5k-1yI9nxPM
H: 	1080
W: 	1920
FPS: 	29.97002997002997

FRAME INDEX X0 Y0 W H [Landmarks (5 Points)]

00008520 00000000 961.99 181.09 392.47 548.35 999.69 392.39 1144.96 407.81 1006.96 503.10 995.79 601.69 1110.41 614.36
00008521 00000001 955.48 187.13 394.85 547.86 1001.30 399.26 1144.52 416.16 1000.71 503.93 1001.63 604.06 1107.90 618.79
00008522 00000002 954.88 191.46 396.54 551.69 1001.64 402.11 1144.09 418.52 1001.10 506.39 1004.84 608.69 1110.09 622.81
00008523 00000003 958.86 194.86 399.08 555.02 1005.27 402.01 1147.63 418.53 1006.82 507.89 1008.69 610.63 1114.42 624.51
00008524 00000004 965.25 191.20 399.44 560.45 1012.58 402.11 1154.12 418.56 1013.17 506.39 1013.88 610.98 1120.90 624.52
00008525 00000005 972.10 188.67 398.79 561.17 1016.74 400.75 1159.75 414.03 1019.08 504.15 1021.08 610.63 1128.10 621.33
00008526 DELETE   981.55 179.84 400.61 561.69 1020.71 398.37 1170.03 409.62 1026.75 499.52 1023.17 606.63 1134.27 616.43
00008527 DELETE   993.12 176.58 397.99 548.63 1028.85 394.13 1176.66 404.40 1036.53 494.92 1026.05 595.58 1141.81 605.13
00008528 00000008 1005.93 174.05 392.60 547.15 1041.98 387.25 1187.72 398.72 1049.10 489.29 1035.57 590.49 1152.27 601.25
00008529 00000009 1013.17 162.98 393.15 555.22 1053.87 382.53 1201.74 390.51 1066.82 481.73 1047.42 589.39 1164.84 597.97
00008530 DELETE   1022.35 156.86 396.26 554.42 1063.58 375.56 1215.23 387.50 1077.81 477.50 1053.90 583.66 1177.07 595.14
00008531 DELETE   1032.12 156.48 397.64 553.91 1072.41 373.19 1227.38 385.66 1087.36 475.77 1062.04 584.53 1184.81 595.87
00008532 00000012 1035.19 157.19 395.93 554.22 1077.93 371.47 1231.35 388.38 1086.57 463.34 1072.68 578.66 1183.17 591.76
00008533 00000013 1038.15 156.76 396.40 551.29 1083.45 369.96 1235.47 388.16 1092.87 462.06 1076.93 575.96 1186.59 590.04
00008534 00000014 1040.46 151.74 395.09 552.60 1085.18 364.30 1247.57 377.26 1099.69 457.84 1078.44 574.76 1198.35 588.58
00008535 00000015 1044.69 151.74 393.34 549.63 1090.11 364.29 1252.30 376.88 1103.26 456.85 1081.46 574.53 1201.59 588.04
00008536 00000016 1047.94 152.49 392.94 547.75 1092.77 365.41 1253.69 377.08 1104.49 456.68 1083.61 575.49 1202.59 588.26
00008537 00000017 1048.97 153.09 392.40 545.93 1093.22 365.83 1253.84 377.39 1104.58 457.12 1084.45 575.99 1202.86 588.63
00008538 00000018 1049.90 153.65 391.48 543.57 1094.24 365.50 1254.45 377.73 1105.02 456.98 1084.89 574.84 1203.07 588.10
00008539 00000019 1049.68 153.48 392.09 543.89 1094.52 366.54 1254.66 378.64 1105.43 458.17 1085.62 575.50 1204.06 588.60
00008540 00000020 1049.93 153.96 391.96 543.76 1094.11 367.64 1255.24 379.37 1105.61 459.07 1085.08 577.25 1203.59 590.17
00008541 00000021 1049.90 154.65 391.68 544.10 1094.68 367.63 1255.05 379.91 1105.96 460.38 1085.90 577.07 1203.71 590.36
00008542 00000022 1049.41 154.78 391.13 544.92 1093.92 368.15 1254.25 380.33 1105.25 460.64 1085.37 577.61 1203.21 590.82
00008543 00000023 1049.49 155.81 390.87 543.68 1093.83 368.53 1254.41 380.32 1105.27 460.60 1085.27 578.13 1203.28 590.99
00008544 00000024 1048.25 157.76 391.00 542.96 1094.36 367.50 1254.22 380.05 1105.77 459.71 1084.27 576.99 1201.10 590.65
00008545 00000025 1047.02 155.96 391.47 548.03 1094.39 367.43 1254.32 379.49 1105.55 458.75 1082.68 577.46 1200.28 590.71
00008546 00000026 1046.68 155.12 392.16 549.81 1091.33 366.59 1251.30 379.30 1102.45 461.05 1083.97 576.91 1202.98 590.24
00008547 00000027 1045.48 156.68 393.28 546.53 1088.47 366.78 1248.69 379.55 1099.84 462.20 1083.38 575.78 1203.06 589.10
00008548 00000028 1042.81 158.66 393.74 547.31 1084.48 367.10 1245.31 380.33 1096.30 463.96 1079.55 577.31 1198.75 591.14
00008549 00000029 1044.49 164.13 390.36 544.33 1085.17 369.60 1235.08 388.54 1094.04 466.10 1078.79 575.22 1186.91 589.89
00008550 00000030 1041.80 162.17 392.01 546.02 1081.96 370.85 1232.47 388.21 1091.04 465.88 1076.29 575.24 1183.53 588.76
00008551 00000031 1038.76 160.11 392.41 547.62 1078.39 370.20 1230.42 389.99 1087.05 467.04 1072.59 574.87 1181.17 590.34
00008552 00000032 1035.32 158.86 390.92 549.65 1074.12 371.73 1226.40 391.62 1081.71 466.69 1066.87 575.46 1175.97 591.41
00008553 00000033 1031.81 158.23 385.08 550.82 1071.25 382.19 1219.46 400.36 1074.95 469.49 1061.77 577.22 1172.29 592.04
00008554 DELETE   1025.51 163.08 385.35 546.46 1067.12 390.80 1210.80 405.28 1066.48 470.53 1056.42 580.77 1164.52 593.00
00008555 DELETE   1025.36 162.52 386.99 551.62 1058.76 394.99 1196.41 398.10 1063.70 482.12 1051.73 588.63 1157.25 593.22
00008556 00000036 1020.72 165.47 384.03 555.92 1053.34 399.08 1191.24 405.49 1057.14 487.28 1045.23 596.32 1144.23 603.78
00008557 00000037 1015.23 170.31 389.03 562.21 1046.74 397.23 1185.78 409.56 1049.93 497.29 1040.72 602.44 1142.60 614.11
00008558 00000038 1009.67 174.37 390.76 562.33 1041.24 400.06 1178.37 412.06 1043.70 501.65 1038.40 606.42 1136.56 617.53
00008559 00000039 1007.47 181.74 390.10 560.99 1039.43 400.56 1175.51 413.11 1042.37 504.10 1036.98 610.76 1133.43 622.37
00008560 00000040 1006.92 183.67 389.94 558.35 1037.95 401.29 1174.58 412.43 1042.33 504.80 1036.74 612.51 1132.76 622.89
00008561 00000041 1008.23 180.04 391.51 557.79 1038.98 400.96 1176.29 410.19 1043.63 502.09 1038.72 609.03 1136.40 617.85
00008562 00000042 1010.21 175.51 391.72 559.47 1042.18 398.41 1179.49 406.45 1045.21 498.04 1042.91 605.00 1144.75 612.76
00008563 00000043 1011.50 173.79 392.56 558.73 1044.09 396.52 1183.27 403.98 1046.80 495.69 1043.43 602.50 1150.83 609.78
00008564 00000044 1012.45 173.51 392.98 557.27 1044.92 395.85 1184.90 403.22 1048.94 495.81 1043.72 602.48 1151.68 609.79
00008565 00000045 1013.33 174.22 391.83 555.97 1046.91 396.42 1187.25 404.48 1052.19 496.91 1044.64 603.59 1152.70 611.53
00008566 00000046 1014.45 175.23 391.82 553.61 1047.56 396.83 1187.93 405.00 1053.53 497.65 1045.11 603.32 1153.75 611.33
00008567 00000047 1015.16 172.91 392.45 554.39 1049.53 395.23 1190.49 404.08 1055.91 496.64 1045.20 601.58 1155.53 610.31
00008568 00000048 1019.08 170.32 390.17 554.43 1054.07 392.95 1194.23 401.38 1059.71 491.62 1048.65 598.79 1157.97 607.33
00008569 00000049 1023.06 166.56 389.34 556.00 1058.64 389.73 1198.11 396.72 1063.20 485.52 1053.01 596.63 1161.43 604.03
00008570 00000050 1026.33 162.33 390.92 559.67 1061.22 386.02 1202.26 392.59 1066.57 481.12 1055.61 594.59 1163.30 601.67
00008571 00000051 1030.37 160.47 392.08 558.37 1064.68 384.27 1205.86 389.00 1071.65 478.42 1059.31 592.68 1167.06 598.39
00008572 00000052 1034.15 152.82 389.87 563.61 1068.01 380.74 1212.39 387.17 1078.11 476.05 1062.18 590.82 1172.61 597.76
00008573 00000053 1033.70 159.48 388.83 554.32 1070.98 376.85 1222.58 391.92 1076.92 467.26 1065.73 584.03 1174.34 596.11
00008574 00000054 1035.80 160.23 389.85 550.56 1072.39 372.83 1224.43 390.22 1078.14 464.62 1066.86 579.76 1176.83 593.49
00008575 00000055 1038.32 158.68 387.12 550.21 1074.19 368.38 1225.82 387.67 1080.25 462.27 1068.08 575.42 1178.49 590.67
00008576 00000056 1038.90 155.94 386.81 551.09 1075.62 365.69 1226.22 385.30 1081.79 460.95 1069.34 572.69 1178.91 588.30
00008577 00000057 1038.69 155.15 387.24 550.92 1076.05 364.69 1225.99 384.01 1081.37 459.61 1070.15 571.50 1179.95 586.90
00008578 00000058 1038.45 154.86 387.60 552.57 1075.96 364.58 1225.17 382.97 1080.61 458.72 1069.94 572.13 1178.19 586.82
00008579 00000059 1037.30 155.79 386.93 555.23 1074.89 366.68 1223.71 383.43 1079.37 458.89 1070.30 574.17 1178.49 587.52
00008580 00000060 1034.35 156.05 386.47 556.27 1073.11 366.96 1222.20 384.30 1078.09 459.26 1068.87 573.90 1177.69 587.71
00008581 00000061 1031.21 154.85 387.46 559.28 1071.58 367.91 1219.36 383.73 1074.48 458.61 1066.41 574.43 1176.08 587.03
00008582 00000062 1028.78 146.70 393.95 570.64 1065.33 373.70 1209.67 378.10 1070.20 469.46 1060.22 582.90 1173.99 588.17
00008583 00000063 1024.08 150.85 392.75 565.56 1061.52 375.62 1205.68 380.30 1067.06 470.40 1057.57 583.34 1170.55 588.91
00008584 00000064 1022.21 153.37 391.67 565.08 1058.14 380.78 1201.55 383.49 1063.81 472.45 1055.60 586.78 1167.89 590.63
00008585 00000065 1018.83 156.29 391.58 567.52 1056.18 384.23 1197.91 389.30 1058.52 475.98 1053.34 587.32 1164.50 593.05
00008586 00000066 1014.34 166.28 396.23 566.02 1054.43 388.03 1189.61 397.38 1051.16 484.17 1053.35 589.77 1160.92 598.62
00008587 00000067 1011.95 171.06 393.39 571.21 1051.68 394.78 1184.88 404.81 1048.87 495.78 1055.74 597.95 1162.75 607.01
00008588 00000068 1011.30 174.58 392.58 569.57 1051.14 396.41 1183.35 406.40 1047.89 496.72 1055.89 598.78 1162.73 607.65
00008589 00000069 1014.64 169.95 393.25 567.67 1055.40 392.00 1188.49 401.33 1052.53 488.81 1055.59 593.29 1161.99 601.95
00008590 00000070 1019.11 163.15 391.58 562.56 1059.17 387.84 1197.19 396.33 1059.31 480.21 1052.45 586.35 1160.03 595.08
00008591 00000071 1026.05 162.96 388.80 556.95 1064.64 386.30 1203.43 393.09 1072.34 479.34 1056.55 586.89 1161.08 594.45
00008592 00000072 1030.32 165.90 390.00 552.23 1068.06 386.72 1206.82 394.62 1076.95 481.71 1060.05 587.54 1162.78 595.84
00008593 00000073 1029.71 170.17 391.88 549.30 1066.65 389.45 1210.64 399.36 1078.53 492.51 1059.76 593.42 1168.25 603.12
00008594 00000074 1028.91 177.91 392.36 545.50 1066.04 393.12 1211.07 404.01 1077.75 497.77 1060.79 599.83 1167.64 609.82
00008595 00000075 1030.17 182.10 390.40 545.54 1067.45 395.37 1210.93 407.86 1076.48 500.84 1062.74 602.21 1171.12 613.07
00008596 00000076 1028.54 182.04 392.16 547.27 1066.75 395.84 1209.70 408.50 1074.66 500.88 1062.32 601.23 1173.64 612.15
00008597 00000077 1026.80 181.74 391.87 549.59 1066.46 396.14 1208.54 408.08 1072.85 499.04 1062.23 600.05 1173.24 610.44
00008598 00000078 1025.32 180.85 391.15 558.45 1067.50 396.63 1208.62 407.78 1073.51 499.26 1065.61 602.57 1175.05 612.38
00008599 00000079 1022.89 180.45 393.15 565.25 1067.18 397.58 1209.19 408.13 1073.53 499.57 1067.39 603.51 1178.78 612.88
00008600 00000080 1021.69 180.79 392.92 565.45 1066.51 397.92 1209.05 407.79 1073.48 499.46 1067.76 603.42 1180.33 612.23
00008601 00000081 1020.80 178.48 394.35 566.93 1065.74 397.48 1208.59 407.89 1073.13 499.37 1066.27 602.84 1179.47 612.19
00008602 00000082 1020.68 179.51 392.73 555.12 1063.43 396.82 1206.28 407.14 1071.18 498.86 1061.89 600.65 1175.42 609.92
00008603 00000083 1018.84 180.76 390.74 546.72 1059.88 397.40 1203.44 407.03 1069.08 497.45 1055.29 598.43 1169.61 607.49
00008604 00000084 1016.01 180.75 388.84 540.24 1056.34 398.18 1199.87 407.47 1067.25 496.62 1050.35 596.40 1162.33 605.35
00008605 00000085 1015.53 180.37 389.45 540.66 1055.08 398.08 1198.48 408.28 1065.66 497.52 1048.76 596.79 1160.24 606.51
00008606 00000086 1016.53 180.28 387.82 541.86 1055.61 397.48 1198.65 407.90 1065.47 497.84 1049.01 598.38 1161.22 608.25
00008607 00000087 1017.84 180.11 388.16 540.51 1056.46 396.67 1199.96 406.57 1066.83 498.22 1050.25 598.71 1165.59 608.03
00008608 00000088 1021.02 180.41 388.86 540.19 1059.40 395.83 1203.63 406.41 1069.98 498.13 1053.71 598.51 1169.79 608.19
00008609 00000089 1024.29 179.34 389.25 542.17 1062.66 394.95 1207.27 405.95 1073.43 498.67 1057.05 598.83 1172.54 608.78
00008610 00000090 1028.00 177.87 387.92 544.77 1066.93 393.25 1211.86 406.31 1077.85 499.40 1060.45 598.29 1175.33 609.81
00008611 00000091 1030.61 178.39 390.64 544.66 1072.07 393.43 1218.99 407.46 1083.86 497.74 1066.12 597.14 1181.81 609.16
00008612 00000092 1033.72 178.22 393.55 545.27 1077.66 391.24 1229.74 407.99 1095.58 497.88 1071.16 595.05 1189.79 609.12
00008613 00000093 1033.93 179.20 396.37 548.77 1083.24 395.26 1234.77 411.16 1093.07 495.71 1079.27 596.54 1191.70 610.22
00008614 00000094 1035.79 178.14 401.52 552.36 1088.10 398.28 1242.63 410.72 1102.99 494.27 1086.05 599.13 1200.45 609.90
00008615 00000095 1038.85 175.93 403.60 558.29 1091.53 403.17 1248.66 410.20 1112.08 495.37 1093.09 603.33 1207.72 609.67
00008616 00000096 1042.87 174.97 402.65 562.39 1094.59 404.40 1254.08 408.23 1118.09 495.89 1098.35 606.69 1213.67 610.51
00008617 00000097 1046.71 175.99 401.23 560.57 1098.80 402.81 1260.25 407.06 1125.78 496.28 1101.94 606.48 1219.06 610.82
00008618 00000098 1049.23 176.70 401.37 556.12 1102.77 401.25 1266.78 405.77 1135.10 496.75 1105.43 605.47 1225.52 610.16
00008619 00000099 1051.41 177.74 400.46 550.16 1106.69 401.36 1270.74 405.65 1142.87 497.42 1109.73 603.64 1231.17 608.13
00008620 00000100 1051.08 176.99 400.23 548.03 1107.33 400.60 1272.96 404.94 1145.11 496.64 1108.75 602.22 1232.08 606.93
00008621 00000101 1050.38 175.36 400.59 549.93 1107.19 400.57 1272.69 404.72 1145.16 495.87 1108.85 601.82 1231.69 606.36
00008622 00000102 1050.55 171.48 401.57 556.74 1105.58 399.91 1272.12 402.27 1143.59 494.95 1108.85 604.46 1232.22 607.55
00008623 00000103 1049.33 168.27 401.74 561.94 1103.49 399.56 1269.76 399.99 1139.35 490.76 1108.41 604.59 1230.49 606.07
00008624 00000104 1046.10 166.97 400.84 561.44 1100.86 400.15 1264.12 399.55 1132.51 488.98 1105.50 602.61 1224.72 603.36
00008625 00000105 1040.57 165.94 403.57 561.77 1093.08 401.48 1254.38 398.68 1119.61 489.28 1100.37 603.87 1216.10 602.89
00008626 DELETE   1032.06 164.43 405.37 563.17 1085.50 398.28 1244.32 399.79 1107.31 487.61 1091.00 603.28 1201.88 605.71
00008627 00000107 1030.90 166.51 397.60 562.22 1080.64 393.87 1236.24 397.85 1095.63 485.23 1085.54 602.07 1191.62 606.37
00008628 00000108 1030.82 158.68 394.05 568.52 1074.63 386.30 1225.23 390.83 1096.69 482.38 1075.02 596.83 1177.58 602.41
00008629 DELETE   1025.78 158.71 394.09 572.33 1069.39 385.30 1218.42 386.99 1087.26 476.11 1070.62 597.87 1173.31 601.18
00008630 00000110 1019.43 158.83 394.57 576.77 1064.52 382.76 1210.78 382.89 1079.15 469.80 1065.57 596.39 1167.48 598.45
00008631 DELETE   1012.38 157.44 392.63 577.89 1057.55 380.90 1200.55 381.84 1068.12 469.01 1059.29 593.35 1162.07 595.94
00008632 DELETE   1008.79 155.98 392.34 575.31 1051.01 379.41 1193.12 380.99 1059.57 468.89 1051.60 590.70 1156.04 593.80
00008633 DELETE   1002.59 160.05 391.90 562.06 1040.21 381.29 1181.77 381.88 1045.88 468.41 1040.36 587.78 1145.28 589.91
00008634 00000114 993.79 159.53 392.59 559.07 1028.87 385.37 1168.10 385.56 1033.14 469.41 1029.74 587.03 1128.94 588.48
00008635 DELETE   986.60 157.55 387.74 558.69 1019.83 382.44 1157.14 386.27 1020.61 472.57 1020.45 587.42 1116.64 591.64
00008636 DELETE   977.61 152.72 389.37 563.99 999.89 374.85 1149.73 378.79 1002.74 470.07 1005.14 593.42 1111.45 600.73
00008637 00000117 967.96 158.46 384.08 553.27 997.37 376.63 1144.62 381.86 1001.92 467.26 998.84 591.45 1094.86 595.80
00008638 DELETE   957.88 156.33 383.22 556.05 993.68 377.68 1135.28 382.63 989.79 467.03 989.98 592.47 1082.48 596.90
00008639 DELETE   949.89 147.86 389.96 569.01 984.09 381.31 1112.15 379.95 977.62 469.77 982.19 589.26 1072.89 590.37
00008640 DELETE   943.56 153.38 389.89 562.91 979.62 381.18 1099.55 379.73 966.34 467.06 976.93 588.14 1062.75 588.81
00008641 00000121 940.21 157.97 393.26 560.21 976.41 384.15 1093.37 380.76 960.40 467.89 974.38 590.52 1057.98 589.23
00008642 00000122 940.26 158.28 393.63 562.23 974.77 384.61 1093.91 380.69 961.76 469.26 974.30 592.42 1057.89 590.81
00008643 00000123 941.86 157.87 390.26 563.95 976.11 383.96 1100.45 380.23 967.69 468.81 978.49 592.79 1064.67 591.44
00008644 00000124 944.51 158.31 391.79 564.30 979.83 383.91 1110.84 380.67 977.27 472.44 986.04 592.55 1078.24 591.85
00008645 00000125 947.83 156.40 396.29 567.24 983.21 386.94 1121.54 381.45 988.20 476.26 991.40 593.85 1091.86 591.21
00008646 00000126 952.09 155.02 398.08 572.49 988.74 389.99 1127.30 383.01 996.72 478.84 998.18 596.55 1099.02 592.54
00008647 DELETE   957.34 157.09 399.26 578.68 994.67 391.93 1135.73 386.16 1005.00 482.51 1006.14 599.26 1109.00 595.86
00008648 00000128 961.05 159.81 400.05 580.02 1000.42 392.52 1144.99 388.41 1013.84 488.01 1013.42 600.02 1121.81 597.38
00008649 00000129 960.08 167.47 401.73 572.40 1005.16 392.83 1151.17 388.54 1013.54 484.52 1021.64 599.85 1132.86 596.23
00008650 00000130 961.10 166.95 403.52 573.68 1006.80 396.57 1154.07 389.80 1016.16 483.08 1022.95 601.97 1135.81 596.25
00008651 00000131 960.24 170.88 405.50 570.66 1007.77 402.65 1153.61 396.11 1017.77 480.65 1026.20 605.27 1130.67 599.71
00008652 00000132 960.12 169.60 406.32 572.45 1007.76 404.52 1154.71 397.87 1018.39 480.08 1025.07 607.65 1128.56 601.94
00008653 00000133 961.80 170.45 402.14 565.99 1008.08 402.06 1154.01 397.32 1017.42 482.30 1022.17 605.78 1123.82 602.12
00008654 00000134 963.10 171.24 399.43 560.86 1007.13 401.13 1153.06 396.89 1015.18 484.64 1018.61 604.67 1121.97 601.72
00008655 00000135 962.73 171.44 399.94 560.35 1005.90 400.27 1153.00 396.89 1014.15 485.86 1016.50 603.26 1123.08 600.97
00008656 00000136 964.05 171.84 398.00 561.52 1006.76 401.47 1151.61 397.81 1012.58 486.86 1017.22 602.50 1123.87 599.91
00008657 00000137 964.46 175.39 397.06 557.83 1005.18 402.71 1149.45 398.00 1011.29 490.17 1017.36 604.11 1124.00 600.86
00008658 00000138 963.04 173.48 397.96 559.30 1002.84 403.25 1147.27 399.71 1008.91 494.00 1015.44 604.63 1123.71 602.37
00008659 00000139 962.41 174.63 394.55 555.11 999.44 403.20 1142.22 399.89 1003.32 497.55 1013.36 603.85 1122.29 601.96
00008660 00000140 956.84 172.07 397.62 557.97 992.39 403.53 1134.65 398.35 1004.27 499.64 1005.06 604.29 1115.12 600.45
00008661 00000141 947.60 174.67 398.18 552.02 982.98 404.53 1125.21 397.97 997.53 502.61 996.06 604.90 1108.29 600.49
00008662 00000142 938.22 176.37 397.09 543.25 973.62 411.45 1113.79 399.73 989.13 503.38 988.17 602.80 1105.85 594.38
00008663 00000143 928.89 180.84 400.50 537.73 961.17 418.01 1097.47 403.39 970.59 499.26 981.23 603.46 1097.43 591.96
00008664 00000144 922.13 190.22 400.34 526.35 952.59 421.51 1081.45 408.18 959.00 501.67 976.35 603.69 1084.87 592.64
00008665 DELETE   916.67 193.72 399.33 523.36 941.43 425.93 1069.55 412.05 948.73 509.27 969.71 610.81 1075.50 598.98
00008666 00000146 906.53 195.45 402.66 525.75 932.82 429.06 1066.15 412.47 940.87 515.11 966.34 617.53 1077.14 603.43
00008667 00000147 898.77 198.15 407.66 523.29 927.36 433.69 1064.71 414.92 938.97 517.11 962.77 618.52 1076.12 602.74
00008668 00000148 896.53 201.09 404.59 519.43 925.28 434.32 1061.55 415.21 937.19 517.91 960.58 617.59 1072.51 601.60
00008669 00000149 896.12 201.53 404.57 522.14 926.38 432.55 1059.97 416.25 936.39 520.02 960.63 619.17 1065.25 605.73
00008670 00000150 896.11 200.22 403.63 533.88 927.70 429.98 1060.83 417.25 936.31 521.96 962.31 621.13 1062.35 610.16
00008671 00000151 895.79 200.02 406.98 544.07 929.55 429.13 1065.03 419.31 939.81 523.04 962.14 625.09 1061.96 616.40
00008672 00000152 895.56 203.46 408.20 550.78 931.68 429.09 1067.50 420.68 942.09 524.11 965.77 629.77 1063.99 621.84
00008673 00000153 896.97 203.22 408.70 550.60 931.58 429.34 1069.10 421.95 942.61 526.74 965.72 633.04 1066.84 625.93
00008674 00000154 898.48 201.01 409.61 550.82 933.44 427.60 1071.19 421.73 944.91 527.02 966.94 631.95 1070.24 626.11
00008675 00000155 902.22 199.87 409.22 550.43 938.18 425.41 1076.06 421.80 948.57 524.94 968.53 629.14 1073.21 625.20
00008676 00000156 910.30 200.45 405.79 550.85 944.62 422.78 1081.85 419.85 952.31 520.85 970.27 625.90 1074.87 622.61
00008677 00000157 917.24 198.05 402.32 548.08 949.96 419.75 1084.57 416.82 956.19 517.54 973.24 621.45 1076.75 618.58
CROP_BBOX: 673 0 1631 932
