Video ID: 	7USwNiJZxy4
H: 	2160
W: 	3840
FPS: 	29.97002997002997

FRAME INDEX X0 Y0 W H [Landmarks (5 Points)]

00037309 00000000 2089.62 534.31 629.29 891.47 2244.59 916.57 2535.03 932.33 2377.87 1136.34 2265.74 1232.54 2501.27 1243.78
00037310 00000001 2091.93 514.67 631.54 903.16 2252.40 905.67 2539.98 921.34 2386.52 1122.15 2269.15 1224.26 2502.65 1236.10
00037311 00000002 2095.60 480.52 628.13 925.69 2251.88 892.00 2540.26 906.08 2383.99 1108.16 2277.92 1212.04 2503.69 1223.02
00037312 DELETE   2083.05 462.27 644.09 933.62 2250.81 868.38 2545.23 877.26 2389.37 1064.31 2269.39 1189.95 2508.21 1196.17
00037313 DELETE   2075.25 454.96 648.86 934.58 2243.76 847.37 2538.86 851.17 2380.81 1041.46 2265.44 1173.08 2502.72 1175.75
00037314 00000005 2063.23 440.71 647.67 926.37 2231.97 825.27 2521.95 832.26 2363.25 1029.16 2262.67 1154.39 2486.58 1160.63
00037315 00000006 2057.82 431.95 644.70 913.00 2220.80 809.99 2511.56 813.49 2351.79 1005.91 2252.32 1137.26 2480.03 1140.48
00037316 DELETE   2055.38 418.95 635.56 902.86 2205.66 791.77 2498.91 789.42 2336.17 979.78 2240.56 1119.72 2476.71 1118.31
00037317 DELETE   2053.15 395.19 628.42 917.15 2202.51 774.03 2490.40 771.45 2329.24 959.46 2232.06 1102.32 2471.52 1101.16
00037318 00000009 2048.27 389.24 632.12 918.50 2200.54 765.06 2486.53 763.64 2324.98 947.36 2228.82 1096.15 2465.95 1095.73
00037319 00000010 2046.12 388.24 633.72 921.64 2201.13 762.19 2489.07 764.90 2324.42 948.29 2225.94 1097.36 2462.40 1100.22
00037320 00000011 2045.88 395.32 634.53 914.57 2202.70 766.30 2491.51 773.23 2325.41 958.90 2227.70 1102.49 2458.50 1108.81
00037321 00000012 2049.86 396.08 626.52 923.91 2204.89 776.80 2494.01 781.69 2335.54 968.67 2232.71 1115.58 2455.37 1121.05
00037322 00000013 2052.26 418.20 624.79 912.07 2202.00 794.17 2493.50 797.11 2334.83 995.04 2237.65 1136.24 2457.69 1139.59
00037323 00000014 2044.86 435.41 633.67 916.72 2198.42 821.76 2496.44 822.86 2336.13 1034.75 2238.67 1166.00 2458.13 1167.77
00037324 00000015 2040.66 466.61 632.51 916.08 2202.12 843.98 2493.19 848.94 2332.59 1057.51 2227.77 1187.43 2456.42 1189.93
00037325 00000016 2038.84 486.19 628.19 922.63 2201.12 858.90 2489.33 862.75 2336.13 1082.70 2221.08 1203.30 2460.97 1205.10
00037326 00000017 2032.40 491.25 630.01 925.21 2196.83 862.81 2483.76 865.87 2333.32 1087.50 2218.22 1209.33 2456.37 1210.23
00037327 00000018 2025.86 488.90 631.21 926.54 2190.69 859.37 2477.96 860.49 2327.29 1078.85 2212.86 1208.77 2453.30 1208.38
00037328 00000019 2017.52 482.22 636.09 927.27 2185.74 853.05 2473.33 854.05 2322.99 1065.43 2208.37 1202.47 2450.31 1201.89
00037329 00000020 2008.90 469.42 642.75 938.16 2180.64 846.82 2467.41 847.15 2315.97 1054.76 2204.48 1196.02 2444.62 1195.10
00037330 00000021 2005.38 458.02 645.28 944.48 2176.53 844.09 2464.42 843.86 2311.66 1050.45 2201.92 1189.95 2440.07 1188.71
00037331 00000022 2002.46 454.79 648.01 934.10 2174.97 841.91 2463.45 844.18 2309.97 1049.53 2200.73 1188.66 2430.41 1189.22
00037332 00000023 2003.19 458.40 647.55 937.10 2175.36 853.89 2467.56 859.13 2312.65 1057.68 2198.22 1191.89 2433.26 1194.95
00037333 00000024 2004.50 465.38 645.80 932.90 2176.37 863.36 2467.69 869.06 2316.98 1067.97 2199.80 1202.11 2435.70 1204.82
00037334 00000025 2009.06 476.72 643.68 934.76 2182.22 877.15 2474.30 882.73 2326.25 1085.29 2210.67 1218.43 2437.14 1220.75
00037335 00000026 2016.53 484.78 642.07 952.09 2186.41 890.48 2476.90 887.93 2326.99 1098.98 2215.00 1226.64 2446.32 1224.53
00037336 00000027 2016.98 481.85 644.09 957.58 2186.95 889.13 2481.80 883.10 2333.37 1096.75 2217.12 1227.90 2454.05 1223.13
00037337 00000028 2013.53 472.03 653.97 970.20 2179.95 877.20 2485.09 875.50 2336.43 1089.97 2212.32 1223.59 2465.44 1221.44
00037338 DELETE   2012.67 458.40 658.77 978.01 2182.62 874.06 2487.81 870.07 2337.33 1072.97 2213.80 1215.76 2469.84 1212.58
00037339 00000030 2010.57 454.59 654.93 966.59 2188.89 864.34 2487.65 861.48 2337.90 1058.55 2210.83 1200.68 2467.37 1197.04
00037340 00000031 2009.40 449.04 654.33 956.30 2188.15 852.31 2486.99 848.68 2337.50 1049.23 2215.38 1189.13 2464.35 1184.88
00037341 00000032 2005.87 441.44 656.41 957.56 2186.20 847.04 2486.06 838.51 2336.84 1040.82 2217.71 1178.40 2467.83 1170.34
00037342 00000033 1999.69 429.46 665.26 968.13 2177.87 852.01 2479.00 837.75 2332.78 1037.92 2216.01 1169.23 2470.15 1158.62
00037343 00000034 1992.86 426.29 666.86 972.54 2174.94 854.73 2473.91 839.13 2326.79 1031.77 2211.13 1166.98 2465.88 1156.13
00037344 00000035 1987.96 427.72 668.88 972.25 2168.09 845.42 2474.32 831.14 2325.42 1031.81 2203.85 1167.72 2465.18 1157.06
00037345 00000036 1984.35 424.24 673.57 974.51 2167.18 837.40 2477.38 823.86 2326.35 1023.05 2203.80 1167.11 2464.79 1157.21
00037346 00000037 1984.59 420.92 672.90 972.27 2168.86 829.36 2480.43 817.77 2329.27 1018.51 2207.07 1167.20 2462.56 1158.69
00037347 00000038 1986.16 421.84 669.73 964.65 2170.81 825.18 2479.89 816.68 2329.01 1019.10 2210.26 1167.21 2456.65 1161.04
00037348 00000039 1984.11 424.06 667.94 957.01 2171.12 823.23 2478.70 819.70 2327.21 1021.51 2207.78 1164.10 2449.10 1161.72
00037349 00000040 1981.47 424.90 665.53 952.44 2167.21 823.74 2476.46 822.13 2324.22 1025.75 2199.98 1164.98 2444.77 1164.29
00037350 00000041 1977.07 426.92 664.01 950.55 2161.47 826.83 2471.71 827.16 2317.67 1029.76 2191.44 1166.51 2439.05 1167.28
00037351 00000042 1977.87 434.00 657.13 945.92 2152.78 831.58 2457.56 822.29 2313.68 1034.80 2190.24 1172.51 2432.12 1165.98
00037352 00000043 1970.86 439.86 654.03 943.90 2143.47 839.91 2447.18 828.26 2302.52 1046.73 2186.54 1187.95 2415.86 1180.62
00037353 00000044 1960.62 445.27 654.43 944.41 2138.28 841.18 2440.44 839.11 2288.16 1051.91 2173.22 1199.51 2405.43 1194.21
00037354 00000045 1955.41 449.99 649.02 945.93 2131.06 845.81 2431.63 842.49 2280.64 1055.41 2164.21 1204.83 2400.57 1198.85
00037355 00000046 1950.64 455.71 646.03 947.93 2126.17 851.21 2422.56 846.58 2275.07 1057.25 2162.09 1211.05 2391.55 1204.02
00037356 00000047 1942.61 456.64 649.46 952.10 2122.50 861.53 2414.67 854.79 2271.92 1060.74 2160.83 1213.91 2383.48 1205.34
00037357 00000048 1934.78 456.74 654.03 952.61 2113.78 877.24 2409.80 867.15 2270.16 1069.81 2156.95 1219.04 2381.11 1209.25
00037358 00000049 1930.55 461.05 651.14 945.54 2110.43 868.06 2406.18 859.88 2267.47 1066.19 2149.26 1215.49 2377.64 1206.36
00037359 00000050 1929.95 448.58 648.39 946.92 2109.04 857.79 2404.92 849.03 2262.15 1053.70 2151.25 1206.36 2374.00 1196.20
00037360 00000051 1929.38 437.15 646.16 949.11 2107.80 842.64 2399.35 832.63 2254.53 1038.81 2151.18 1194.71 2367.75 1183.68
00037361 00000052 1928.26 433.62 646.01 948.08 2103.52 829.83 2396.75 819.94 2248.53 1025.53 2148.57 1184.24 2364.27 1173.77
00037362 00000053 1928.34 425.62 645.97 950.79 2105.25 818.38 2394.34 809.21 2252.63 1019.13 2148.58 1176.39 2366.65 1168.11
00037363 00000054 1929.69 423.16 646.31 951.77 2107.75 812.93 2395.50 804.09 2253.84 1011.16 2148.73 1168.17 2367.75 1159.90
00037364 00000055 1933.08 424.21 644.44 950.19 2111.16 809.58 2397.84 801.77 2256.31 1007.27 2151.14 1163.29 2370.08 1155.54
00037365 00000056 1935.61 427.21 643.58 949.72 2113.09 811.26 2398.80 803.68 2257.36 1008.96 2152.46 1163.76 2372.09 1156.31
00037366 00000057 1935.89 429.07 644.89 953.41 2112.45 815.73 2397.92 808.22 2255.63 1015.77 2150.76 1169.94 2371.21 1162.79
00037367 00000058 1939.73 432.26 639.29 952.63 2113.85 819.80 2399.23 814.67 2255.94 1025.83 2150.24 1177.95 2370.13 1172.72
00037368 00000059 1946.70 443.17 632.63 939.92 2117.21 826.93 2401.35 821.59 2250.80 1028.21 2152.10 1181.12 2367.66 1174.77
00037369 00000060 1950.21 447.20 632.07 939.36 2118.77 834.10 2405.42 830.17 2253.08 1037.20 2154.66 1186.52 2370.74 1180.80
00037370 00000061 1952.56 458.09 634.49 934.52 2124.25 844.52 2410.29 839.52 2262.17 1050.37 2159.05 1196.66 2378.15 1189.83
00037371 00000062 1961.02 471.54 629.55 922.96 2129.59 856.01 2413.96 852.51 2268.54 1063.96 2163.83 1205.70 2381.47 1199.90
00037372 00000063 1966.69 479.20 623.67 921.16 2131.84 864.70 2416.52 859.05 2275.36 1078.21 2167.14 1211.73 2394.17 1203.94
00037373 00000064 1967.02 485.57 624.19 920.43 2134.07 872.59 2417.16 866.65 2278.95 1086.19 2170.28 1215.90 2398.48 1207.37
00037374 00000065 1964.64 488.34 628.99 926.06 2132.67 895.19 2416.56 880.50 2274.90 1093.84 2174.00 1220.14 2399.21 1206.17
00037375 00000066 1968.74 489.47 625.79 934.08 2132.75 890.02 2420.91 876.68 2275.66 1092.47 2168.55 1216.64 2403.72 1204.90
00037376 00000067 1973.16 479.86 623.33 954.98 2133.39 869.94 2421.31 861.58 2281.61 1072.49 2167.92 1210.32 2409.57 1202.57
00037377 00000068 1972.78 469.60 626.63 947.69 2137.23 855.22 2422.27 850.34 2281.66 1061.08 2174.49 1210.08 2398.28 1205.95
00037378 00000069 1966.62 452.78 632.60 939.86 2135.56 848.64 2423.19 845.06 2274.71 1050.52 2174.92 1206.05 2386.59 1199.71
00037379 00000070 1967.07 446.83 630.24 926.75 2136.27 839.46 2426.11 836.74 2276.08 1041.78 2174.43 1195.66 2386.20 1189.66
00037380 00000071 1967.54 442.76 628.63 918.37 2135.81 834.94 2424.64 831.56 2273.76 1035.05 2176.65 1189.59 2382.42 1183.40
00037381 00000072 1968.07 442.29 628.52 913.47 2135.08 832.67 2424.30 830.12 2272.36 1031.94 2176.59 1184.33 2378.84 1178.84
00037382 00000073 1967.81 444.70 629.76 909.93 2134.48 831.58 2424.19 828.57 2272.22 1033.36 2174.92 1181.51 2383.29 1175.55
00037383 00000074 1968.37 445.39 629.49 907.29 2133.82 832.02 2424.58 828.70 2272.37 1035.46 2173.53 1179.80 2386.06 1173.65
00037384 00000075 1968.75 447.02 629.85 908.81 2134.26 832.48 2426.73 828.59 2274.33 1039.04 2171.62 1179.50 2391.89 1173.22
00037385 00000076 1969.24 445.40 631.49 902.51 2136.12 831.42 2427.92 827.79 2275.93 1039.79 2175.32 1178.99 2391.18 1172.34
00037386 00000077 1974.46 441.33 628.63 901.26 2133.06 825.61 2429.81 816.45 2281.13 1040.34 2184.47 1176.84 2390.92 1170.18
00037387 00000078 1976.97 427.05 629.00 911.32 2135.54 816.32 2432.06 807.00 2285.30 1031.28 2185.90 1169.13 2394.78 1162.29
00037388 00000079 1978.43 426.04 628.08 906.91 2141.69 805.98 2437.83 800.55 2294.76 1021.71 2179.62 1154.70 2403.95 1151.46
00037389 00000080 1981.47 421.72 627.56 908.06 2146.09 801.37 2442.24 798.55 2300.03 1016.29 2179.26 1145.69 2409.82 1144.07
00037390 00000081 1977.22 423.58 637.60 903.88 2150.16 799.57 2452.21 808.34 2296.06 1024.65 2176.16 1146.96 2406.38 1153.15
00037391 00000082 1978.25 422.71 639.23 904.48 2152.25 802.22 2452.82 809.66 2296.91 1028.76 2183.37 1155.81 2402.42 1160.78
00037392 00000083 1977.77 425.03 642.49 906.74 2153.79 806.09 2451.44 811.97 2296.55 1030.15 2190.65 1163.82 2399.05 1167.55
00037393 00000084 1975.04 427.98 645.38 919.17 2153.38 809.04 2452.82 815.27 2299.17 1032.03 2185.27 1161.84 2406.39 1166.14
00037394 00000085 1979.98 429.95 634.82 921.48 2147.96 812.66 2445.75 807.99 2303.73 1026.48 2181.40 1156.97 2416.10 1153.66
00037395 00000086 1973.73 433.97 636.98 919.70 2144.90 815.12 2441.99 809.45 2300.93 1028.19 2176.35 1154.01 2418.12 1149.56
00037396 00000087 1969.02 433.60 636.85 920.01 2139.81 816.14 2437.88 809.35 2296.31 1030.76 2170.94 1152.61 2418.24 1146.95
00037397 00000088 1964.55 435.41 637.94 921.21 2135.57 817.86 2432.69 809.81 2291.26 1033.79 2167.07 1152.31 2416.73 1145.47
00037398 00000089 1958.99 438.52 640.34 921.74 2130.77 819.20 2427.46 809.68 2285.12 1035.30 2164.07 1153.05 2414.31 1144.92
00037399 00000090 1954.23 438.92 642.23 925.35 2127.24 820.37 2423.79 809.99 2281.23 1035.79 2161.74 1153.92 2411.00 1145.08
00037400 00000091 1949.50 439.54 645.96 927.76 2122.46 822.14 2421.48 810.71 2277.53 1036.12 2158.67 1155.37 2409.93 1145.71
00037401 00000092 1943.43 441.55 649.66 928.83 2121.39 821.86 2418.51 806.71 2274.26 1028.83 2159.24 1156.70 2405.75 1141.90
00037402 00000093 1941.26 439.56 650.80 929.15 2119.53 819.62 2416.15 801.18 2273.49 1023.48 2161.53 1154.74 2405.56 1137.23
00037403 00000094 1939.83 435.55 655.11 929.82 2116.00 813.49 2415.39 793.56 2269.12 1010.84 2162.56 1152.19 2405.29 1133.97
00037404 00000095 1938.31 422.83 657.14 934.68 2113.76 808.89 2414.06 786.90 2268.06 997.85 2163.11 1147.80 2405.32 1128.77
00037405 00000096 1936.95 417.31 659.52 935.83 2111.70 804.13 2412.75 780.29 2266.74 990.48 2161.98 1142.07 2406.30 1121.86
00037406 00000097 1932.34 404.86 663.24 953.38 2106.29 796.32 2411.73 778.36 2267.76 985.79 2152.43 1135.64 2408.55 1121.36
00037407 00000098 1931.83 400.82 663.08 959.98 2106.32 791.98 2413.35 776.79 2266.77 984.28 2149.62 1136.29 2407.43 1124.17
00037408 00000099 1931.96 398.72 662.73 964.78 2106.81 789.62 2413.91 776.60 2265.19 982.18 2146.14 1136.23 2405.56 1126.18
00037409 00000100 1931.15 397.18 664.49 967.98 2105.62 788.32 2413.78 777.45 2262.28 982.61 2142.76 1136.19 2403.22 1128.08
00037410 00000101 1930.30 395.47 665.72 972.38 2104.17 788.46 2412.65 779.37 2259.41 984.19 2141.91 1141.95 2396.37 1135.96
00037411 00000102 1930.94 391.84 660.58 986.85 2102.30 794.54 2407.42 786.92 2251.43 987.82 2143.10 1159.72 2381.33 1152.14
00037412 00000103 1930.00 402.81 663.19 976.81 2103.57 800.68 2406.17 792.88 2247.56 1004.08 2143.21 1168.48 2374.25 1161.12
00037413 00000104 1926.66 409.71 665.84 984.13 2099.06 809.14 2403.78 802.74 2240.26 1017.13 2134.30 1177.17 2375.32 1170.92
00037414 00000105 1924.18 416.44 666.81 985.51 2093.99 821.96 2401.65 815.06 2234.40 1029.57 2129.35 1188.69 2377.89 1181.41
00037415 00000106 1922.00 427.43 670.17 996.93 2095.08 827.24 2401.91 824.27 2233.39 1044.06 2122.13 1193.17 2374.94 1190.01
00037416 00000107 1921.10 433.16 669.00 999.47 2092.28 836.25 2400.76 833.26 2233.65 1053.73 2121.44 1203.58 2373.82 1200.67
00037417 00000108 1921.32 445.14 667.08 987.72 2091.53 845.37 2400.39 844.79 2235.23 1063.33 2123.01 1214.04 2369.15 1212.43
00037418 00000109 1920.16 454.31 668.93 978.98 2090.55 850.51 2401.90 851.73 2235.62 1073.28 2120.36 1218.96 2369.96 1218.38
00037419 00000110 1921.69 458.36 668.44 972.08 2090.85 853.60 2402.16 855.63 2235.59 1077.28 2119.30 1220.97 2371.84 1220.71
00037420 00000111 1922.45 458.08 668.39 968.53 2093.04 854.28 2402.92 856.57 2238.44 1078.18 2123.81 1220.23 2370.62 1219.94
00037421 00000112 1923.62 461.81 670.63 966.45 2095.84 854.49 2404.22 857.60 2240.33 1077.18 2124.95 1217.94 2371.43 1218.44
00037422 00000113 1924.32 464.41 671.82 963.42 2097.06 855.63 2404.89 858.88 2241.63 1078.13 2123.69 1217.27 2373.25 1217.95
00037423 00000114 1924.41 464.09 673.95 962.44 2096.69 856.49 2405.54 860.48 2240.81 1080.02 2122.62 1216.71 2373.59 1218.04
00037424 00000115 1924.22 466.29 676.34 959.06 2096.76 858.64 2406.08 862.89 2241.85 1083.73 2122.65 1217.25 2375.43 1218.55
00037425 00000116 1925.71 467.81 674.36 957.68 2097.78 863.80 2405.56 867.20 2244.13 1086.70 2125.96 1221.29 2375.69 1221.60
00037426 00000117 1926.23 471.16 673.37 957.63 2098.06 867.52 2406.01 871.30 2244.62 1089.69 2127.33 1224.44 2375.74 1224.97
00037427 00000118 1926.29 472.68 673.06 959.53 2097.25 869.98 2406.77 873.52 2244.74 1092.38 2127.74 1227.29 2376.67 1227.76
00037428 00000119 1926.36 473.64 673.05 958.55 2096.73 871.05 2406.75 875.20 2244.10 1094.03 2125.79 1226.80 2377.31 1227.80
00037429 00000120 1925.90 474.85 673.00 955.34 2096.07 871.71 2406.07 875.92 2243.96 1093.95 2123.92 1226.48 2377.90 1227.44
00037430 00000121 1925.53 474.60 673.93 954.96 2095.74 872.57 2405.66 876.54 2243.55 1094.85 2122.81 1225.51 2378.60 1226.37
00037431 00000122 1924.81 477.61 676.61 951.65 2094.79 873.80 2405.47 877.72 2242.73 1096.30 2121.55 1225.50 2378.31 1226.46
00037432 00000123 1924.60 479.94 677.03 948.29 2094.40 874.80 2405.30 878.92 2242.11 1096.84 2121.17 1225.40 2378.30 1226.48
00037433 00000124 1924.86 481.73 677.56 946.82 2094.81 875.24 2405.34 880.12 2241.78 1097.24 2121.22 1226.20 2377.29 1227.91
00037434 00000125 1924.90 481.48 678.03 948.06 2095.85 875.31 2406.22 880.39 2243.20 1098.09 2121.65 1226.40 2377.63 1228.38
00037435 00000126 1925.63 482.22 677.70 947.20 2096.87 875.29 2406.48 880.37 2244.12 1098.33 2121.72 1226.49 2378.26 1228.52
00037436 00000127 1926.15 482.35 678.15 948.18 2098.05 875.03 2407.08 880.55 2244.76 1097.37 2122.55 1225.84 2378.38 1228.31
00037437 00000128 1926.74 482.12 677.19 948.30 2098.83 874.94 2407.51 880.45 2245.59 1097.37 2122.77 1226.27 2378.49 1228.75
00037438 00000129 1927.06 481.75 676.99 949.66 2099.19 875.02 2408.61 880.77 2246.19 1097.61 2123.13 1225.98 2379.23 1228.69
00037439 00000130 1927.16 482.42 677.60 950.62 2099.72 875.01 2409.69 881.79 2246.23 1097.69 2123.27 1225.84 2378.73 1229.47
00037440 00000131 1927.71 481.35 677.72 952.61 2100.48 875.40 2410.46 882.75 2246.87 1097.64 2124.18 1226.31 2378.38 1230.43
00037441 00000132 1928.06 481.29 677.40 956.00 2101.10 875.38 2410.31 882.08 2247.61 1097.83 2125.09 1227.72 2379.31 1231.40
00037442 00000133 1928.77 481.20 676.58 962.12 2102.51 874.88 2410.58 881.25 2247.77 1097.56 2127.51 1229.56 2379.12 1233.14
00037443 00000134 1929.91 480.50 674.72 963.37 2103.85 874.61 2410.65 881.06 2248.77 1097.11 2127.38 1229.08 2379.76 1232.84
00037444 00000135 1930.50 474.25 675.29 966.79 2104.70 880.13 2411.19 887.78 2249.86 1095.51 2128.81 1227.07 2381.70 1231.68
00037445 DELETE   1935.02 473.56 670.58 967.52 2108.92 890.57 2411.69 894.52 2255.73 1095.76 2131.94 1223.13 2386.09 1225.01
00037446 DELETE   1938.27 468.43 670.35 964.07 2111.78 887.68 2416.83 889.62 2260.46 1089.62 2137.00 1217.02 2391.75 1216.85
00037447 00000138 1943.25 461.24 670.60 961.03 2115.21 871.73 2423.32 876.10 2262.31 1076.79 2141.74 1209.69 2393.29 1210.99
00037448 00000139 1948.81 454.99 669.26 961.51 2119.63 862.80 2429.30 867.54 2264.03 1065.05 2144.78 1201.67 2396.75 1203.53
00037449 00000140 1951.84 445.04 672.83 968.87 2117.60 853.17 2432.40 851.52 2266.55 1063.88 2155.86 1195.46 2399.38 1195.68
00037450 00000141 1957.10 434.39 670.54 973.32 2122.56 853.09 2433.88 848.81 2271.14 1057.57 2163.38 1192.89 2399.32 1191.65
00037451 00000142 1948.35 426.65 683.32 976.60 2130.46 855.13 2438.97 857.33 2269.54 1050.84 2163.65 1195.39 2406.32 1195.63
00037452 00000143 1957.89 421.67 678.69 978.37 2131.82 849.06 2444.28 850.52 2274.79 1053.16 2171.29 1191.74 2402.98 1194.03
00037453 00000144 1962.79 417.85 677.80 975.63 2137.96 838.72 2450.07 841.57 2282.51 1046.60 2175.34 1186.66 2406.46 1189.93
00037454 00000145 1961.46 417.43 678.01 969.79 2146.03 830.48 2451.14 835.88 2284.33 1032.73 2175.53 1185.69 2411.14 1188.77
00037455 00000146 1973.93 412.48 663.71 969.94 2153.08 824.27 2455.67 830.89 2292.83 1026.58 2179.04 1178.04 2416.79 1182.92
00037456 00000147 1977.00 410.66 661.92 971.36 2156.66 821.87 2458.43 828.32 2296.86 1024.01 2182.11 1176.34 2418.86 1181.12
00037457 00000148 1979.15 411.87 662.22 969.90 2159.43 820.01 2461.14 825.70 2300.08 1023.14 2185.59 1174.52 2422.23 1178.60
00037458 00000149 1982.94 410.05 661.34 971.13 2162.32 819.38 2463.87 824.65 2303.14 1022.05 2189.33 1173.78 2424.89 1177.68
00037459 00000150 1984.95 411.22 662.25 971.07 2165.64 818.62 2466.39 823.80 2306.73 1021.95 2191.11 1173.99 2428.08 1177.82
00037460 00000151 1986.82 412.91 662.59 969.73 2168.45 818.14 2470.55 824.85 2310.50 1022.07 2191.79 1173.37 2431.13 1178.47
00037461 00000152 1987.74 417.90 661.82 962.97 2171.04 836.05 2470.25 840.03 2309.09 1024.32 2196.30 1174.41 2432.79 1176.98
00037462 00000153 1991.70 410.50 666.14 975.51 2168.29 845.09 2471.46 845.23 2313.03 1028.48 2204.98 1174.24 2434.93 1176.58
00037463 00000154 1993.71 416.49 659.54 974.88 2171.80 842.20 2471.85 837.43 2312.16 1024.98 2208.57 1181.39 2439.13 1177.18
00037464 00000155 1998.03 415.71 657.12 979.64 2177.16 830.84 2479.79 832.65 2317.53 1025.75 2203.76 1176.46 2446.61 1177.34
00037465 00000156 2000.17 412.94 657.16 978.20 2181.45 822.43 2484.21 826.91 2321.12 1024.50 2203.82 1173.45 2447.54 1176.80
00037466 00000157 1999.36 413.36 667.73 971.16 2175.86 820.18 2487.93 824.33 2324.99 1023.30 2205.80 1170.63 2447.22 1176.02
00037467 00000158 2001.25 410.93 666.05 968.48 2178.06 818.59 2487.75 823.63 2325.76 1020.70 2206.23 1165.72 2448.34 1171.63
