Video ID: 	fJ02dkikPOw
H: 	1080
W: 	1920
FPS: 	23.976023976023978

FRAME INDEX X0 Y0 W H [Landmarks (5 Points)]

00003517 00000000 851.21 92.42 393.23 631.31 928.56 290.88 1075.39 307.93 918.02 391.10 898.39 531.98 1023.35 547.44
00003518 00000001 846.92 88.13 399.54 635.04 926.47 289.62 1075.82 308.09 917.49 390.85 897.95 529.48 1025.46 545.76
00003519 00000002 849.50 97.18 393.18 638.36 918.36 293.23 1074.47 305.25 921.59 381.87 898.93 528.58 1030.80 541.29
00003520 00000003 844.78 95.01 392.82 641.42 914.26 291.86 1071.82 303.35 919.58 383.30 897.45 528.25 1030.46 540.35
00003521 00000004 841.48 94.54 394.23 638.28 911.67 292.84 1067.97 304.72 916.31 385.70 893.40 524.53 1029.00 536.71
00003522 00000005 835.20 85.83 398.41 625.25 904.60 290.21 1067.53 306.80 914.63 390.79 886.85 524.46 1024.14 540.34
00003523 00000006 830.42 83.35 390.49 623.32 899.17 296.61 1063.66 310.25 914.67 393.19 884.92 524.54 1023.01 537.94
00003524 00000007 823.23 85.21 393.94 609.75 891.71 301.15 1060.80 308.40 905.88 394.57 878.95 521.62 1024.60 527.77
00003525 00000008 822.27 84.90 391.56 602.13 886.14 308.70 1056.34 316.76 901.54 398.24 873.84 520.18 1020.83 527.46
00003526 00000009 820.18 84.95 388.55 602.94 882.17 311.73 1053.21 318.86 899.48 401.72 871.86 522.23 1019.73 529.03
00003527 00000010 817.63 84.77 392.68 608.89 881.55 312.83 1051.41 319.45 896.78 404.80 871.13 526.48 1015.91 532.69
00003528 00000011 818.66 84.75 385.13 614.76 881.91 315.85 1048.82 321.24 893.66 409.49 870.35 530.97 1012.92 536.32
00003529 00000012 818.85 87.70 381.62 614.05 881.75 318.89 1044.97 322.37 891.45 413.20 868.80 534.88 1006.92 539.00
00003530 00000013 819.22 91.12 379.50 614.84 880.84 322.30 1038.66 325.98 887.42 415.52 867.00 538.72 998.07 543.52
00003531 00000014 821.63 91.75 374.39 628.83 878.97 329.94 1031.27 329.93 882.40 423.78 868.33 549.48 996.16 551.17
00003532 00000015 825.41 109.62 363.75 627.37 871.51 335.89 1029.28 332.96 882.23 424.73 875.31 561.44 1005.62 560.71
00003533 00000016 814.32 92.62 377.07 657.47 871.23 345.43 1038.01 343.31 887.78 426.64 878.29 573.13 1002.09 571.41
00003534 00000017 814.05 95.22 375.28 653.67 869.67 350.10 1036.54 349.80 887.97 433.07 874.49 575.96 996.81 576.10
00003535 00000018 811.86 97.53 372.62 653.34 869.43 351.17 1037.08 352.99 890.27 435.97 871.46 580.95 990.67 583.18
00003536 DELETE   811.20 95.65 374.51 651.59 869.12 352.81 1037.49 354.74 889.56 437.50 870.96 579.91 992.89 582.30
00003537 00000020 811.73 95.46 376.53 643.21 867.38 351.34 1037.44 354.51 887.34 436.75 870.26 571.00 997.66 574.24
00003538 00000021 811.75 94.07 382.15 648.78 869.05 350.08 1040.22 352.23 889.16 433.85 872.22 570.65 1003.65 572.89
00003539 00000022 819.84 98.29 376.75 635.37 871.07 350.89 1030.83 348.81 885.03 442.79 868.98 559.87 1007.35 560.47
00003540 00000023 813.89 96.74 380.96 645.07 870.80 346.74 1041.42 349.70 889.45 429.49 874.34 566.97 1002.22 569.34
00003541 00000024 812.77 94.95 381.18 643.24 873.28 345.07 1044.94 349.47 892.76 427.22 874.75 566.22 999.31 569.66
00003542 00000025 815.68 95.96 381.46 639.62 875.90 346.11 1047.57 350.60 896.43 428.90 877.44 566.34 1002.39 569.91
00003543 00000026 818.95 95.98 386.16 642.35 877.19 347.01 1053.48 351.63 899.59 432.48 880.59 568.82 1014.53 572.71
00003544 00000027 822.72 95.28 388.16 639.48 879.69 348.50 1057.15 352.07 903.62 433.98 886.74 565.57 1024.64 568.60
00003545 00000028 826.20 94.53 388.64 637.51 882.81 349.33 1062.86 353.55 907.05 436.55 889.54 562.57 1035.80 566.06
00003546 00000029 830.74 94.29 389.21 640.06 886.49 351.13 1067.79 356.51 912.94 441.26 893.50 564.49 1043.31 569.13
00003547 00000030 836.77 93.66 381.45 642.87 889.00 352.61 1070.41 358.80 915.34 445.55 897.29 567.99 1046.38 573.31
00003548 00000031 839.25 100.69 380.81 641.24 890.05 358.04 1068.52 362.82 917.27 448.10 901.70 577.31 1040.98 581.42
00003549 00000032 839.40 105.20 375.84 639.31 889.80 361.33 1067.82 366.42 917.71 448.93 899.36 582.10 1033.51 586.42
00003550 00000033 840.14 104.16 376.18 638.94 890.89 360.68 1067.92 366.12 919.40 448.17 901.08 580.85 1033.13 585.44
00003551 00000034 843.15 103.93 376.18 638.17 893.72 359.14 1070.99 364.35 920.96 446.57 905.38 578.89 1039.46 583.30
00003552 00000035 847.24 103.01 384.39 639.97 897.00 357.34 1075.52 362.57 924.18 446.71 909.15 578.01 1046.85 582.63
00003553 00000036 850.15 104.56 379.38 637.83 898.62 356.90 1078.37 361.76 926.38 448.22 911.17 577.49 1052.95 581.75
00003554 00000037 852.03 104.39 379.77 638.00 901.45 355.74 1081.64 362.10 929.55 448.87 913.80 575.82 1056.25 581.26
00003555 00000038 851.54 105.72 379.38 634.17 902.38 356.93 1082.81 364.88 932.05 450.39 915.20 574.37 1058.26 580.99
00003556 00000039 845.24 112.55 378.79 627.64 904.68 362.34 1071.86 358.89 929.85 446.71 919.71 575.76 1061.44 570.68
00003557 00000040 847.20 115.23 388.08 620.78 903.58 371.64 1073.20 368.92 931.34 460.31 912.87 571.05 1061.68 569.13
00003558 00000041 847.40 117.19 383.77 621.38 903.19 368.12 1071.34 362.36 930.77 448.00 917.26 577.56 1059.56 570.93
00003559 00000042 849.24 115.72 386.61 629.90 901.73 362.32 1084.55 369.01 933.36 451.02 913.70 581.37 1051.22 586.88
00003560 00000043 847.76 105.90 382.99 649.35 907.79 365.00 1077.06 355.24 930.42 438.10 920.76 593.07 1048.80 584.42
00003561 00000044 850.61 102.98 383.50 656.32 909.38 365.32 1076.07 353.67 927.82 437.47 923.51 595.13 1050.95 584.69
00003562 00000045 857.55 101.78 375.60 659.50 904.79 363.31 1080.86 364.45 929.15 447.05 919.12 595.35 1045.48 596.80
00003563 00000046 853.77 105.03 376.16 654.04 899.96 364.68 1077.90 364.87 925.27 449.71 916.90 593.56 1048.18 594.10
00003564 00000047 851.05 109.23 380.69 647.74 898.53 366.75 1075.87 368.18 925.70 454.93 916.17 591.57 1051.33 592.97
00003565 00000048 849.90 111.93 380.91 644.83 896.51 368.62 1075.35 371.84 923.20 459.98 912.20 591.57 1051.89 594.47
00003566 00000049 846.74 113.00 383.15 646.17 895.69 369.36 1074.46 373.11 923.62 462.04 910.62 592.52 1051.62 595.90
00003567 00000050 847.91 116.84 380.92 645.78 896.14 372.17 1073.62 375.20 921.69 463.96 911.22 593.74 1053.56 596.59
00003568 00000051 850.02 117.71 382.31 654.53 896.99 377.29 1074.30 375.48 922.06 464.57 913.94 600.22 1057.40 599.24
00003569 00000052 840.15 121.42 396.90 651.11 896.18 374.62 1065.77 370.26 929.36 473.94 914.14 603.36 1057.33 599.67
00003570 00000053 850.41 126.06 381.01 642.26 899.03 385.20 1072.98 389.06 925.92 474.21 913.75 601.09 1054.78 604.86
00003571 00000054 846.55 125.05 378.20 639.02 896.58 386.58 1073.26 393.97 925.23 476.89 907.98 600.48 1049.78 607.35
00003572 00000055 845.02 119.64 379.80 641.05 895.09 384.98 1075.52 394.22 925.82 477.03 904.55 598.64 1048.28 606.98
00003573 00000056 843.81 121.79 382.20 636.67 895.68 380.53 1077.52 391.78 927.28 475.22 903.79 594.79 1050.60 604.53
00003574 00000057 831.80 128.07 383.30 614.09 895.13 381.58 1070.32 379.81 935.44 477.99 906.01 589.56 1056.89 586.88
00003575 00000058 842.47 126.06 384.47 634.60 898.06 375.45 1082.98 386.72 930.78 472.75 908.53 593.35 1057.81 602.85
00003576 00000059 829.67 125.24 391.39 619.10 897.37 377.47 1077.68 376.79 939.56 473.34 906.56 587.13 1063.00 585.00
00003577 00000060 841.00 121.83 389.05 639.00 896.81 375.53 1081.52 384.83 929.21 471.71 907.46 591.32 1058.83 599.20
00003578 00000061 838.16 121.92 389.73 636.90 895.81 375.51 1081.35 385.29 929.00 471.41 905.43 588.75 1059.48 596.87
00003579 00000062 837.01 116.00 389.45 639.65 895.21 373.41 1081.48 384.39 927.97 470.28 904.39 586.13 1058.37 595.18
00003580 00000063 835.86 114.86 391.24 637.24 894.32 370.40 1079.72 381.82 927.01 468.64 903.83 583.92 1057.19 593.21
00003581 00000064 837.20 112.46 392.05 639.93 893.53 369.58 1078.68 378.86 925.96 466.73 904.48 584.90 1056.34 592.55
00003582 00000065 841.82 111.46 388.07 652.69 895.95 370.73 1077.52 377.44 921.95 465.31 907.71 590.44 1055.82 596.18
00003583 00000066 840.65 109.20 395.62 665.88 901.48 365.48 1068.41 368.26 926.65 474.05 918.60 591.96 1061.67 593.52
00003584 00000067 843.52 112.56 388.20 671.96 902.93 368.62 1063.56 370.40 924.00 474.01 922.36 595.02 1061.07 595.48
00003585 00000068 843.49 119.56 388.89 651.85 898.58 372.33 1059.23 374.53 920.60 478.30 914.08 590.99 1056.33 592.13
00003586 00000069 843.60 130.32 373.01 634.93 888.75 374.00 1060.44 381.62 907.02 468.45 901.47 592.74 1045.01 599.02
00003587 00000070 843.42 125.25 371.95 635.40 883.16 374.13 1054.56 383.28 900.71 467.02 890.86 593.76 1029.88 601.33
00003588 00000071 837.75 125.40 369.87 635.28 879.80 371.90 1046.01 383.25 891.70 464.64 885.03 592.38 1020.66 601.49
00003589 00000072 837.20 126.75 364.78 635.73 878.32 373.89 1037.50 385.73 885.96 466.02 882.22 591.62 1014.25 601.01
00003590 00000073 836.83 128.65 362.49 631.48 875.36 372.84 1030.43 384.74 883.54 465.28 879.79 592.78 1006.22 601.90
00003591 00000074 833.62 130.67 365.93 627.47 872.41 374.59 1026.42 385.61 880.78 464.66 877.89 592.85 1003.97 600.97
00003592 00000075 832.74 133.67 365.30 623.29 870.83 375.75 1024.77 387.19 880.57 465.65 876.54 593.51 1001.99 601.82
00003593 DELETE   832.27 135.29 363.88 620.96 870.91 377.12 1026.87 389.53 881.16 467.23 876.70 594.70 1003.15 603.77
00003594 00000077 834.31 136.24 363.77 618.69 870.62 377.17 1027.86 390.11 881.95 467.47 876.04 595.84 1001.91 605.44
00003595 00000078 837.36 137.26 366.03 618.51 871.24 376.23 1029.41 391.11 882.98 469.55 875.65 597.54 1001.86 608.88
00003596 00000079 836.43 139.57 365.72 614.86 873.55 377.06 1032.96 394.61 885.45 471.14 876.96 596.47 1005.45 609.95
00003597 00000080 838.99 135.38 364.48 621.02 875.16 378.18 1038.29 392.84 887.55 470.89 879.07 599.19 1009.47 610.80
00003598 00000081 840.84 129.74 363.35 628.82 877.96 382.14 1045.79 394.51 892.89 472.12 881.34 599.45 1017.24 609.85
00003599 00000082 844.58 126.67 368.58 629.23 882.03 382.12 1050.95 395.45 898.42 472.97 884.44 599.14 1017.97 610.49
00003600 DELETE   843.75 127.94 365.67 622.05 884.69 381.80 1056.83 396.61 904.61 473.40 887.25 598.56 1020.60 610.84
00003601 00000084 844.44 133.40 369.22 612.67 888.17 381.63 1060.84 397.30 910.14 475.80 889.83 594.42 1025.67 607.69
00003602 DELETE   842.53 126.73 381.51 611.47 898.47 380.54 1061.92 391.94 925.68 475.89 900.33 586.22 1030.21 596.78
00003603 00000086 847.26 127.39 373.32 620.23 893.32 381.78 1068.62 396.30 922.87 474.00 895.46 597.19 1028.88 609.98
00003604 00000087 849.98 124.96 366.12 633.68 895.14 381.82 1070.88 395.02 922.22 471.72 897.64 606.50 1023.13 618.65
00003605 00000088 852.42 124.33 367.00 647.81 899.02 381.83 1072.66 394.02 924.36 472.99 902.48 613.49 1021.19 625.09
00003606 00000089 856.47 121.82 370.25 668.10 903.46 383.59 1075.22 392.18 925.04 473.26 912.28 619.04 1033.71 627.75
00003607 00000090 856.30 127.29 370.71 664.77 903.66 383.83 1075.93 389.94 925.82 474.07 917.11 621.30 1041.91 627.58
00003608 00000091 851.42 130.74 366.49 638.22 898.31 387.44 1054.38 383.49 924.09 481.04 915.46 612.76 1035.70 610.86
00003609 00000092 845.04 131.36 381.36 630.74 899.21 391.02 1058.42 388.99 924.05 479.74 911.81 605.84 1036.81 605.86
00003610 DELETE   847.43 139.44 370.72 619.52 894.12 384.97 1052.98 385.97 921.85 489.43 911.72 606.70 1037.87 608.44
00003611 00000094 844.30 139.55 367.05 612.16 894.80 397.38 1056.82 392.26 922.97 492.96 909.94 604.00 1044.88 599.69
00003612 00000095 852.73 137.18 363.25 626.48 892.29 390.67 1060.36 398.42 915.19 483.48 907.59 608.96 1039.33 615.53
00003613 00000096 852.97 135.87 370.77 623.29 891.09 389.90 1057.00 398.84 914.10 486.05 905.35 605.61 1036.90 613.25
00003614 00000097 854.70 135.54 369.75 631.09 893.15 389.69 1057.96 395.62 915.00 486.83 911.98 609.27 1042.83 614.23
00003615 DELETE   849.18 128.63 382.14 650.20 896.63 384.54 1053.23 380.33 921.59 492.01 919.58 614.57 1054.61 610.67
00003616 00000099 851.38 128.31 381.25 654.04 898.74 383.68 1056.28 379.08 923.20 489.41 923.79 614.52 1063.76 609.44
00003617 00000100 853.31 126.91 383.90 648.27 900.15 381.21 1057.56 375.62 927.23 487.71 924.62 613.35 1057.00 608.31
00003618 00000101 859.55 121.97 367.33 647.41 903.20 379.63 1070.24 385.14 925.46 481.85 923.44 610.99 1047.86 615.82
00003619 00000102 859.97 120.93 368.46 641.23 904.31 377.07 1073.32 385.70 929.33 480.55 920.40 610.81 1039.44 618.62
00003620 00000103 861.33 112.39 369.65 645.62 906.39 375.35 1075.04 386.05 932.82 478.93 919.48 606.60 1038.03 616.19
00003621 00000104 862.86 114.18 371.38 640.30 908.95 373.21 1078.14 383.21 934.10 475.28 921.34 602.20 1043.05 611.12
00003622 00000105 857.01 112.05 380.36 641.26 911.89 370.69 1079.94 377.73 937.09 473.37 918.92 591.09 1051.73 598.81
00003623 00000106 865.16 116.43 374.92 653.98 917.09 372.22 1076.96 371.80 945.19 474.77 931.70 599.34 1074.02 598.51
00003624 00000107 865.94 117.71 377.58 653.44 918.45 374.08 1078.75 373.18 947.00 475.64 932.76 598.96 1077.85 597.34
00003625 00000108 867.74 118.57 374.80 650.18 919.55 375.75 1078.32 375.58 948.30 479.03 932.68 597.20 1079.13 596.03
00003626 00000109 864.45 118.91 372.36 645.11 916.25 374.93 1073.99 378.02 944.00 480.26 928.18 596.06 1067.85 598.37
00003627 00000110 863.50 122.86 369.38 634.35 914.96 382.84 1075.58 385.22 929.23 468.21 918.95 599.92 1046.48 601.70
00003628 00000111 865.72 118.80 369.02 639.44 911.92 375.44 1080.27 393.85 932.41 473.01 914.09 597.31 1040.84 613.08
00003629 00000112 861.60 116.82 372.28 634.39 912.64 370.48 1080.18 394.21 934.38 467.83 908.83 591.96 1029.94 612.28
00003630 00000113 859.11 116.63 375.63 623.77 918.25 368.17 1080.60 384.00 931.30 454.90 908.13 586.11 1027.80 600.15
00003631 00000114 860.80 117.99 376.49 618.28 919.77 365.90 1085.33 382.18 935.81 454.35 909.31 583.62 1031.36 598.02
00003632 00000115 860.95 112.70 377.00 620.91 922.69 362.57 1090.53 381.70 939.79 453.42 911.36 579.39 1035.56 595.77
00003633 00000116 861.39 111.92 380.81 619.73 923.80 361.60 1093.46 381.12 944.02 453.54 914.80 576.66 1041.13 593.25
00003634 00000117 863.59 111.20 381.79 620.25 924.41 363.91 1096.55 382.58 946.58 455.11 917.30 577.86 1046.11 593.56
00003635 00000118 865.70 112.65 383.84 620.35 925.58 366.79 1097.26 382.99 948.89 457.15 920.49 580.47 1049.24 594.13
00003636 00000119 866.92 111.46 385.17 623.94 925.90 368.24 1099.20 382.40 949.94 457.92 922.41 582.96 1052.08 594.98
00003637 00000120 866.35 111.52 387.25 623.09 925.61 368.06 1098.18 382.34 949.64 458.05 922.53 582.51 1051.86 594.54
00003638 00000121 865.43 112.64 382.53 620.02 924.53 367.80 1094.59 381.56 947.15 457.37 921.95 581.61 1049.80 593.15
00003639 00000122 863.55 113.60 383.01 619.63 922.54 366.33 1091.88 381.03 943.74 456.44 918.80 580.22 1046.13 592.66
CROP_BBOX: 556 0 1581 955
