Video ID: 	cGrotmGpN30
H: 	1080
W: 	1920
FPS: 	30.0

FRAME INDEX X0 Y0 W H [Landmarks (5 Points)]

00024788 00000000 548.26 293.37 432.91 546.71 732.99 521.68 907.85 457.33 898.16 596.73 781.50 710.21 932.25 656.49
00024789 DELETE   548.92 292.47 432.29 547.53 733.02 521.50 908.08 457.55 897.86 596.56 781.14 709.93 932.22 656.54
00024790 00000002 548.91 291.31 432.02 548.85 733.12 521.73 908.11 457.77 898.11 596.39 781.13 709.98 932.21 656.59
00024791 00000003 550.13 291.90 431.43 548.53 736.23 521.55 909.09 459.83 900.26 597.53 780.46 708.56 931.80 657.36
00024792 DELETE   557.83 295.83 428.91 530.31 747.16 516.55 918.05 461.29 908.56 595.15 792.90 704.38 938.03 658.55
00024793 DELETE   561.62 292.97 429.66 533.34 749.82 513.81 920.91 460.58 910.33 591.85 797.33 703.50 941.84 658.82
00024794 00000006 562.55 294.86 428.62 531.91 750.41 513.69 921.53 460.45 910.90 592.29 797.62 703.70 942.26 659.05
00024795 00000007 562.00 295.26 429.51 531.28 750.39 513.68 921.62 460.30 911.17 592.56 797.50 703.78 942.16 659.02
00024796 00000008 568.73 296.25 427.66 534.44 757.37 512.99 926.60 460.76 916.99 592.72 805.23 705.68 946.96 661.39
00024797 00000009 580.83 304.30 427.79 526.00 768.93 505.91 947.90 466.80 926.65 596.05 817.55 702.37 960.98 670.75
00024798 00000010 586.43 300.96 427.99 536.26 776.11 509.12 953.51 471.32 933.76 598.82 821.62 704.69 963.84 674.10
00024799 00000011 585.88 300.70 428.31 536.52 776.02 509.31 953.37 471.34 933.90 598.62 821.76 704.79 963.80 674.09
00024800 00000012 586.26 298.96 428.76 539.10 777.32 508.70 954.28 471.38 933.50 600.06 821.74 704.69 962.81 674.52
00024801 00000013 588.95 299.83 434.14 544.38 782.16 508.47 960.49 470.96 940.14 600.06 826.53 706.34 967.81 675.13
00024802 00000014 594.83 306.72 438.79 538.58 793.72 509.22 973.26 469.43 954.61 604.34 831.27 706.75 977.07 673.90
00024803 00000015 598.66 308.29 439.30 537.72 798.67 508.56 977.91 468.43 959.92 605.08 835.38 707.56 981.50 674.32
00024804 00000016 598.47 309.28 439.58 536.87 798.16 508.51 977.63 468.51 959.27 605.25 834.84 707.45 981.30 674.32
00024805 DELETE   598.37 309.36 439.59 536.63 798.34 508.48 977.56 468.37 959.43 605.33 834.96 707.31 981.35 674.12
00024806 DELETE   602.19 309.20 437.71 536.00 804.72 508.84 981.88 468.54 965.14 605.36 836.69 707.97 981.11 674.99
00024807 00000019 609.40 308.95 432.38 534.67 806.83 511.26 985.94 474.89 965.11 607.60 839.44 710.80 984.29 680.92
00024808 00000020 609.44 309.07 433.10 534.15 805.66 512.03 987.96 475.09 965.75 610.12 837.87 711.28 985.11 681.02
00024809 00000021 609.20 308.91 433.18 534.02 805.95 512.09 988.15 475.11 966.41 610.23 838.01 710.99 985.22 680.86
00024810 00000022 609.37 308.59 433.21 534.37 805.91 512.10 988.26 475.11 966.24 610.34 838.00 711.13 985.42 680.95
00024811 00000023 609.35 309.27 433.45 534.69 806.28 511.08 990.83 474.63 967.78 611.03 835.74 709.84 988.16 680.13
00024812 00000024 611.37 306.37 428.94 528.36 809.26 500.36 987.23 472.70 964.41 602.15 841.13 704.94 980.83 682.20
00024813 00000025 613.24 302.71 425.93 526.08 807.38 495.38 985.55 469.16 960.31 597.71 843.02 703.10 980.64 681.17
00024814 00000026 613.16 302.61 425.95 526.27 807.36 495.36 985.59 469.15 960.30 597.77 843.02 703.17 980.66 681.23
00024815 00000027 613.18 302.70 425.89 526.11 807.39 495.34 985.70 469.30 960.33 597.87 843.06 703.21 980.74 681.39
00024816 00000028 609.66 295.18 429.41 538.14 803.87 491.65 985.08 465.72 959.68 594.45 839.49 700.84 982.06 678.64
00024817 00000029 610.10 284.50 428.88 553.89 799.72 484.08 983.27 465.72 952.72 590.63 835.16 695.82 982.64 679.22
00024818 00000030 611.65 283.11 426.85 548.87 802.32 482.79 984.71 465.89 954.56 588.75 837.79 693.40 982.37 678.11
00024819 00000031 611.48 283.21 427.04 548.86 802.21 482.84 984.73 465.90 954.55 588.79 837.68 693.45 982.36 678.13
00024820 00000032 611.65 282.43 426.83 549.60 802.31 482.91 984.63 466.25 954.43 588.63 837.72 693.24 982.41 678.13
00024821 00000033 616.42 277.64 425.97 551.44 809.87 481.82 990.03 467.38 961.23 583.68 846.83 693.41 986.87 679.72
00024822 00000034 629.62 287.93 427.81 537.29 824.21 482.50 1003.77 471.17 972.81 585.09 852.67 692.05 996.66 681.52
00024823 00000035 629.32 269.44 442.62 552.74 831.60 490.71 1011.59 479.60 976.19 594.48 859.89 686.63 995.58 679.25
00024824 00000036 628.35 269.74 443.58 552.68 831.10 491.08 1011.67 479.50 976.39 594.85 860.06 687.06 995.85 679.26
00024825 00000037 628.55 270.61 443.46 552.12 831.30 490.95 1011.90 479.64 976.43 594.93 859.96 686.97 995.74 679.41
00024826 00000038 630.02 277.10 445.08 550.11 835.20 493.22 1015.74 483.09 978.00 603.13 859.54 689.26 995.65 682.71
00024827 00000039 631.75 283.78 452.65 555.84 840.92 492.12 1021.13 486.64 982.40 609.82 858.55 692.43 999.06 690.50
00024828 00000040 635.27 277.91 451.93 560.51 844.18 490.44 1025.87 487.11 986.00 608.53 858.77 689.67 1003.34 689.56
00024829 00000041 634.86 278.29 452.30 559.92 844.43 490.55 1025.88 487.18 986.17 608.63 858.99 689.70 1003.07 689.55
00024830 00000042 635.13 277.03 452.07 561.04 844.39 490.60 1025.94 487.22 986.05 608.52 858.96 689.73 1003.10 689.56
00024831 00000043 642.05 270.56 449.44 561.59 851.42 486.89 1032.08 488.07 989.45 605.29 858.96 682.28 1005.91 685.67
00024832 00000044 663.08 280.94 439.66 556.82 866.67 477.23 1043.26 490.80 994.49 599.63 866.35 677.67 1015.95 688.54
00024833 00000045 664.19 283.80 442.05 553.59 871.09 478.29 1046.70 493.92 997.86 602.81 867.72 678.26 1016.03 690.82
00024834 00000046 664.16 283.77 442.08 553.63 871.05 478.30 1046.65 493.94 997.80 602.79 867.66 678.24 1016.02 690.82
00024835 00000047 664.36 284.94 442.00 552.56 870.91 478.38 1046.55 493.75 997.39 602.84 867.39 678.25 1015.83 690.57
00024836 00000048 665.14 288.50 445.93 548.05 871.41 474.56 1051.21 494.61 998.68 602.34 867.83 677.44 1018.04 693.36
00024837 00000049 667.08 259.67 451.51 570.58 870.92 465.36 1057.88 486.90 995.56 595.46 861.47 671.87 1012.15 691.20
00024838 00000050 671.53 275.19 453.60 554.56 871.94 446.76 1063.97 477.37 997.84 588.26 863.17 664.21 1017.92 688.70
00024839 00000051 671.64 275.92 453.38 553.65 872.08 446.90 1063.97 477.62 997.92 588.28 863.33 664.27 1017.72 688.83
00024840 00000052 671.72 274.24 453.40 555.90 872.16 446.89 1064.11 477.16 998.06 588.69 863.51 664.61 1017.55 688.87
00024841 00000053 673.34 268.95 463.09 561.85 878.58 454.67 1062.16 481.76 998.61 587.88 861.54 661.41 1013.15 684.74
00024842 00000054 675.61 257.07 463.88 574.43 881.08 448.41 1060.24 481.46 996.11 577.94 864.12 656.43 1010.87 684.10
00024843 00000055 677.42 251.35 456.26 575.73 879.26 447.37 1063.97 477.85 1000.08 569.26 869.56 657.06 1018.61 681.77
00024844 00000056 677.55 248.61 455.72 578.11 879.77 446.63 1064.33 478.08 1000.08 569.03 869.87 656.74 1018.29 682.19
00024845 00000057 677.53 248.43 455.66 578.36 879.80 446.98 1064.15 478.34 1000.02 569.12 869.74 656.68 1018.19 682.05
00024846 00000058 678.24 246.18 456.07 578.33 882.75 444.01 1066.97 475.69 1003.12 567.71 872.89 654.83 1020.91 680.39
00024847 00000059 679.71 245.15 454.51 573.88 880.28 442.00 1070.65 472.29 1002.81 566.98 873.53 655.49 1023.42 679.57
00024848 00000060 678.21 245.97 454.37 576.18 878.36 444.40 1067.48 474.42 1000.81 568.85 870.15 655.94 1022.31 680.14
00024849 00000061 678.12 246.13 454.51 575.85 878.25 444.42 1067.48 474.37 1000.81 568.84 870.04 655.86 1022.26 680.02
00024850 00000062 678.05 245.72 454.61 576.42 878.07 444.37 1067.52 474.44 1000.72 568.66 869.95 655.83 1022.43 680.10
00024851 00000063 677.41 243.32 455.97 579.31 878.41 445.10 1065.69 475.40 999.57 569.60 869.15 654.38 1021.39 678.76
00024852 00000064 674.85 253.50 460.35 569.21 883.71 455.90 1062.17 487.11 1003.12 571.50 865.54 656.41 1013.60 682.57
00024853 00000065 674.00 251.44 453.24 568.97 882.57 451.47 1065.10 486.20 1004.12 568.43 868.00 654.71 1014.92 683.85
00024854 00000066 673.45 251.98 454.06 568.41 882.24 451.40 1065.43 485.49 1004.32 568.64 868.29 655.32 1015.32 683.93
00024855 00000067 673.85 251.40 453.72 569.40 882.13 451.46 1065.01 485.54 1003.89 568.56 868.08 655.30 1015.13 683.91
00024856 00000068 672.63 250.00 456.39 572.19 879.94 449.29 1063.96 479.91 1004.05 569.61 868.47 656.58 1016.88 682.25
00024857 00000069 672.72 257.28 460.88 577.91 885.46 448.11 1062.21 479.32 1008.23 573.36 867.07 659.97 1017.62 686.44
00024858 00000070 669.53 246.98 454.88 583.92 878.92 448.91 1061.28 476.48 1006.38 574.27 869.55 661.87 1018.98 684.93
00024859 00000071 669.67 246.72 454.61 584.21 879.09 448.92 1061.38 476.72 1006.44 574.22 869.63 661.75 1019.07 685.00
00024860 00000072 669.22 247.16 455.23 583.80 879.35 448.92 1061.54 476.91 1006.60 574.51 869.78 661.81 1018.99 685.21
00024861 00000073 668.10 244.08 455.17 588.85 878.26 449.37 1061.59 475.90 1005.58 576.83 870.61 662.98 1019.72 684.83
00024862 00000074 668.26 243.08 452.73 587.23 876.76 447.97 1061.63 473.19 1007.04 570.65 872.67 660.63 1022.68 681.12
00024863 00000075 670.77 244.68 451.12 583.06 877.61 444.08 1065.51 465.98 1010.29 567.10 877.66 660.35 1027.23 677.76
00024864 00000076 670.78 244.65 451.01 582.97 877.61 444.05 1065.48 466.00 1010.27 567.07 877.65 660.29 1027.19 677.74
00024865 00000077 670.69 244.26 451.18 583.66 877.69 444.15 1065.38 466.06 1010.25 567.39 877.65 660.24 1027.46 677.63
00024866 00000078 672.38 241.99 449.78 582.07 880.47 441.67 1066.63 464.69 1012.14 565.06 879.61 656.80 1029.25 674.95
00024867 00000079 672.17 245.48 452.59 584.29 883.98 443.32 1065.37 468.92 1014.33 566.45 879.37 657.53 1028.56 678.32
00024868 00000080 672.30 253.46 453.78 582.72 890.29 435.81 1065.60 470.42 1016.59 572.37 877.41 658.94 1022.23 686.99
00024869 00000081 672.23 253.64 453.89 582.57 890.25 435.56 1065.44 470.17 1016.38 572.16 877.14 658.63 1022.15 686.72
00024870 00000082 672.28 252.85 454.14 583.19 890.34 435.81 1065.46 470.50 1016.29 572.34 877.12 658.64 1021.97 686.77
00024871 00000083 671.44 250.92 461.83 589.81 892.96 444.34 1063.23 477.25 1013.56 573.85 871.67 660.08 1016.95 688.06
00024872 00000084 672.35 247.15 458.54 591.88 894.98 439.19 1061.38 473.47 1013.37 568.76 869.85 655.82 1014.29 685.00
00024873 00000085 673.84 233.91 449.79 599.51 891.33 433.26 1065.20 462.93 1018.54 559.79 877.74 653.93 1024.06 678.16
00024874 00000086 673.90 234.07 449.77 599.19 891.44 433.23 1065.22 462.93 1018.51 559.78 877.73 653.93 1023.94 678.20
00024875 00000087 674.15 234.41 449.52 598.80 891.26 432.98 1065.35 462.62 1018.56 559.71 877.77 654.06 1024.10 678.26
00024876 00000088 674.69 231.33 450.03 599.64 894.06 430.75 1067.94 462.04 1020.61 558.13 879.97 650.05 1026.72 675.49
00024877 00000089 673.95 231.34 449.77 594.86 890.75 431.56 1069.33 461.13 1020.17 558.81 880.69 650.05 1030.30 673.97
00024878 00000090 670.83 237.06 449.63 588.06 886.85 436.48 1064.99 463.95 1016.73 560.49 878.64 652.22 1026.50 674.52
00024879 00000091 670.68 236.61 449.88 588.89 886.78 436.44 1065.11 463.86 1016.82 560.50 878.57 652.21 1026.86 674.47
00024880 00000092 670.60 236.34 449.82 589.16 886.99 436.41 1065.12 464.23 1016.87 560.52 878.49 651.97 1026.69 674.52
00024881 00000093 665.94 237.60 450.84 591.52 880.74 438.07 1060.11 463.31 1012.48 562.25 874.60 654.50 1023.69 674.90
00024882 00000094 661.84 233.55 451.06 594.38 876.69 437.17 1057.43 463.14 1009.05 561.93 871.33 653.06 1020.95 673.91
00024883 00000095 661.79 233.11 449.89 596.57 875.56 434.67 1055.44 461.99 1006.87 561.28 867.34 654.34 1016.61 676.56
00024884 00000096 661.80 232.02 450.06 597.74 875.71 434.45 1055.36 461.89 1006.70 561.15 867.33 654.12 1016.50 676.38
00024885 00000097 661.33 232.61 450.39 596.85 875.42 434.46 1055.39 461.96 1006.59 561.17 867.15 654.02 1016.43 676.35
00024886 00000098 661.65 231.26 450.26 595.80 875.43 434.41 1056.36 461.64 1006.46 560.95 868.80 653.65 1017.19 675.55
00024887 00000099 661.44 239.21 449.10 580.78 870.87 439.86 1056.44 462.67 1000.80 564.75 870.68 653.43 1020.14 671.52
00024888 00000100 662.02 235.00 449.22 586.46 872.28 440.27 1056.45 465.29 1000.44 566.23 869.38 653.53 1018.08 673.36
00024889 00000101 661.83 235.56 449.41 585.83 872.14 440.28 1056.43 465.18 1000.45 566.20 869.46 653.56 1018.12 673.33
00024890 00000102 661.92 236.05 449.15 585.30 872.02 440.19 1056.47 465.02 1000.36 566.22 869.48 653.66 1018.14 673.38
00024891 00000103 661.95 237.16 449.97 586.79 872.51 440.65 1056.12 465.86 1000.21 565.87 871.01 656.40 1016.21 676.45
00024892 00000104 666.14 231.09 449.24 594.88 877.93 436.17 1060.23 461.41 1005.51 562.08 878.98 656.78 1020.81 676.14
00024893 00000105 670.30 227.77 446.85 596.16 880.91 433.79 1062.44 457.66 1008.96 560.06 883.51 655.27 1025.68 673.48
00024894 00000106 670.48 227.44 446.78 596.64 881.22 433.80 1062.43 457.77 1008.99 560.05 883.80 655.29 1025.57 673.57
00024895 00000107 670.50 227.43 446.61 596.59 881.21 433.82 1062.48 457.81 1009.00 560.09 883.77 655.32 1025.60 673.62
00024896 00000108 671.96 229.06 446.88 591.44 882.75 433.01 1065.04 457.34 1010.53 559.60 885.84 654.07 1028.35 672.76
00024897 00000109 672.48 231.91 448.85 592.51 886.68 433.23 1067.30 458.85 1014.34 557.94 886.22 653.49 1028.91 673.39
00024898 00000110 672.65 231.46 449.23 595.07 887.48 432.41 1067.19 460.74 1015.40 558.64 882.06 652.34 1027.26 674.64
00024899 00000111 672.77 232.14 449.03 594.66 887.65 432.24 1067.05 460.79 1015.24 558.67 881.92 652.31 1026.86 674.78
00024900 00000112 672.74 233.45 448.86 593.26 887.52 432.45 1067.06 460.90 1015.21 558.61 881.74 652.38 1026.77 674.80
00024901 00000113 670.20 234.55 449.38 593.25 883.55 431.50 1062.56 460.37 1011.93 558.82 875.75 652.69 1021.88 675.86
00024902 00000114 665.05 231.74 453.34 590.97 878.67 427.71 1060.57 456.85 1005.84 556.95 871.73 648.12 1019.44 671.21
00024903 00000115 665.48 234.70 452.23 582.73 878.00 426.50 1060.64 455.15 1006.06 554.28 871.97 644.36 1021.11 667.33
00024904 00000116 665.81 233.77 451.96 583.52 878.91 426.32 1060.90 455.22 1006.63 554.36 872.83 644.73 1021.07 667.86
00024905 00000117 665.68 233.17 452.34 584.14 878.70 426.27 1060.88 455.25 1006.43 554.36 872.75 644.61 1021.32 667.76
00024906 00000118 667.23 231.60 450.51 583.75 880.30 424.75 1062.17 453.60 1007.82 551.72 874.56 643.63 1022.37 666.73
00024907 00000119 669.32 233.48 448.97 580.63 882.72 425.47 1062.65 454.40 1008.64 553.73 876.50 644.93 1021.46 668.11
00024908 00000120 669.96 234.28 449.85 581.68 883.53 426.19 1063.47 455.01 1009.29 554.60 877.99 646.10 1022.37 669.01
00024909 00000121 669.93 234.01 449.86 582.05 883.60 426.15 1063.55 455.14 1009.30 554.66 878.02 646.10 1022.43 669.14
00024910 00000122 669.94 233.92 449.62 582.01 883.52 425.87 1063.61 454.92 1009.45 554.54 878.11 646.03 1022.39 669.13
00024911 00000123 669.64 234.08 451.07 583.99 883.18 426.10 1063.75 455.20 1009.07 555.01 877.53 646.19 1023.16 669.18
00024912 00000124 670.29 233.10 448.05 580.30 881.23 427.00 1064.27 453.82 1007.80 556.29 880.20 648.46 1023.52 669.34
00024913 00000125 670.80 233.60 447.28 575.93 881.59 426.62 1065.17 452.95 1008.80 556.15 882.00 648.24 1024.80 668.80
00024914 00000126 671.11 233.21 446.67 576.27 881.92 426.56 1064.91 452.97 1008.68 556.08 882.19 648.22 1024.51 668.84
00024915 00000127 671.17 233.85 446.70 575.52 881.78 426.61 1065.03 452.85 1008.71 556.03 881.93 648.27 1024.59 668.78
00024916 00000128 670.63 234.96 446.56 573.90 881.19 427.19 1064.66 453.44 1008.32 556.53 881.04 648.53 1024.01 669.10
00024917 00000129 670.08 235.14 447.43 575.36 879.14 428.01 1063.90 453.81 1006.46 557.39 879.37 649.88 1022.67 670.03
00024918 00000130 669.03 232.97 448.45 582.32 878.00 428.85 1063.57 455.43 1006.02 557.94 877.85 650.95 1022.92 671.73
00024919 00000131 669.38 232.38 448.27 582.68 878.42 428.58 1063.80 455.26 1006.20 558.01 878.03 650.95 1022.79 671.78
00024920 00000132 668.95 232.06 448.51 583.13 878.21 428.71 1063.75 455.63 1006.13 557.98 877.73 650.77 1022.77 671.81
00024921 00000133 668.88 232.81 449.49 584.07 878.79 429.32 1062.32 456.00 1005.77 558.12 877.64 650.73 1021.81 671.54
00024922 00000134 668.39 232.41 450.45 587.56 878.14 430.43 1061.37 456.71 1005.64 558.10 877.48 651.16 1022.82 671.61
00024923 00000135 668.59 232.74 449.38 584.87 878.13 430.65 1061.25 456.74 1005.86 558.12 878.14 651.22 1022.46 671.53
00024924 00000136 668.49 233.14 449.28 584.19 878.05 430.64 1061.18 456.64 1006.00 558.07 878.26 651.24 1022.36 671.51
00024925 00000137 668.51 233.43 449.19 584.18 877.92 430.53 1061.08 456.64 1005.98 558.01 878.13 651.20 1022.43 671.56
00024926 00000138 668.84 232.28 447.87 584.30 879.34 431.23 1061.49 457.03 1007.34 558.27 879.68 651.10 1023.19 671.25
00024927 00000139 670.27 235.49 447.26 578.89 880.23 432.53 1061.91 455.74 1008.71 558.85 883.30 649.78 1027.12 667.71
00024928 00000140 671.73 235.33 444.00 578.14 880.82 432.99 1060.69 455.02 1008.27 557.32 885.43 649.31 1027.82 666.19
00024929 00000141 671.59 235.45 444.13 578.14 880.87 432.98 1060.72 454.99 1008.37 557.37 885.41 649.35 1027.84 666.24
00024930 00000142 671.74 235.49 443.99 578.08 880.71 432.75 1060.55 454.79 1008.08 557.49 885.30 649.29 1027.57 666.23
00024931 00000143 671.93 234.86 443.23 580.06 881.13 432.66 1060.58 454.33 1008.57 557.14 886.72 649.88 1028.26 666.37
00024932 00000144 669.37 245.04 446.34 585.19 884.77 433.15 1056.51 460.98 1010.37 562.45 888.09 665.20 1012.29 686.85
00024933 00000145 671.43 252.99 444.82 581.59 887.70 434.52 1059.27 462.06 1015.01 562.76 893.84 670.83 1016.89 692.07
00024934 00000146 671.46 252.83 444.79 581.79 887.71 434.47 1059.21 461.97 1014.98 562.85 893.83 670.86 1016.79 692.09
00024935 00000147 671.55 252.43 444.79 582.35 887.77 434.76 1059.04 462.00 1014.84 563.05 893.88 671.00 1016.76 692.06
00024936 00000148 670.40 262.25 443.97 573.23 885.01 436.41 1059.75 460.16 1015.20 567.89 892.15 671.93 1018.87 689.94
00024937 00000149 664.65 274.98 446.03 569.04 878.70 448.15 1058.99 470.45 1009.70 585.19 879.21 678.47 1020.23 695.78
00024938 00000150 662.43 276.31 444.29 563.46 876.69 448.40 1054.79 470.43 1007.64 581.24 877.80 673.81 1019.63 690.93
00024939 00000151 662.50 276.23 444.18 563.39 876.84 448.42 1054.78 470.55 1007.61 581.12 877.91 673.67 1019.46 690.84
00024940 00000152 662.70 276.47 444.05 563.09 876.67 448.59 1054.89 470.41 1007.61 581.22 877.92 673.78 1019.71 690.70
00024941 00000153 660.39 265.63 445.68 571.80 876.90 445.65 1053.62 468.64 1008.56 575.43 877.60 670.34 1019.29 688.78
00024942 00000154 654.09 255.75 450.68 580.58 865.59 450.58 1046.31 469.28 1000.79 575.79 864.26 667.18 1013.77 683.34
00024943 00000155 662.56 270.40 444.60 571.10 875.59 448.63 1054.85 471.18 1005.53 582.84 872.00 672.50 1018.74 690.94
00024944 00000156 662.86 270.91 444.24 570.51 875.61 448.41 1054.68 471.08 1005.22 582.99 871.92 672.25 1018.64 690.76
00024945 00000157 662.94 270.98 444.11 570.38 875.61 448.47 1054.66 471.22 1005.23 582.89 871.76 672.18 1018.56 690.77
00024946 00000158 665.26 275.67 444.36 566.59 873.53 454.88 1055.50 473.86 1004.00 589.49 874.51 678.65 1021.40 693.54
00024947 00000159 664.42 258.37 445.41 578.20 867.63 464.53 1056.04 474.30 1005.24 595.79 874.72 682.17 1024.33 691.09
00024948 00000160 665.46 275.29 442.58 561.96 867.97 455.93 1055.20 473.76 1002.15 590.68 874.22 677.66 1024.13 691.31
00024949 00000161 665.69 275.23 442.39 562.09 867.92 455.97 1055.16 473.80 1002.06 590.53 874.20 677.63 1024.16 691.28
00024950 00000162 665.75 275.14 442.25 562.09 867.99 455.90 1055.15 473.83 1001.97 590.67 874.27 677.63 1024.17 691.38
00024951 00000163 666.89 274.74 441.61 559.73 867.68 451.74 1054.95 469.65 999.93 586.77 874.24 675.37 1021.52 689.00
00024952 00000164 665.57 272.06 441.83 560.95 870.53 446.81 1055.14 466.23 1002.14 583.22 876.40 673.29 1018.52 688.23
00024953 00000165 665.44 268.84 442.86 563.12 868.92 445.23 1055.88 465.04 1002.59 582.33 876.17 671.14 1021.24 686.55
00024954 00000166 665.42 267.44 442.64 564.74 869.10 445.14 1055.87 465.13 1002.68 582.23 876.01 670.95 1021.16 686.50
00024955 00000167 665.44 267.36 442.61 564.56 869.12 445.07 1056.00 464.88 1002.87 582.22 876.24 671.14 1021.22 686.55
