Video ID: 	eZe3lJP_UOc
H: 	1080
W: 	1920
FPS: 	25.0

FRAME INDEX X0 Y0 W H [Landmarks (5 Points)]

00006992 00000000 428.76 131.84 536.08 772.90 638.96 438.03 869.64 419.98 812.63 561.36 684.85 706.80 878.91 690.83
00006993 00000001 422.29 135.27 537.83 771.69 629.41 434.69 857.15 417.98 798.50 556.34 676.46 707.06 864.83 692.02
00006994 00000002 417.59 132.33 540.21 781.26 626.47 432.06 848.80 417.29 791.77 554.46 671.34 706.35 856.17 692.99
00006995 00000003 418.58 133.95 538.61 770.25 625.26 432.89 848.75 416.51 791.66 554.61 671.96 704.43 857.87 689.64
00006996 00000004 419.06 139.17 536.96 761.08 626.34 433.79 853.10 417.28 796.70 555.36 672.79 702.12 862.69 687.07
00006997 00000005 421.21 136.55 535.90 760.04 630.46 434.57 857.94 415.27 804.53 555.80 680.49 701.69 871.61 684.44
00006998 00000006 425.51 134.77 533.74 757.90 635.18 435.69 862.83 412.58 813.26 554.77 691.20 703.95 880.55 683.65
00006999 00000007 429.61 135.82 531.32 747.66 643.01 428.87 871.76 405.37 824.16 554.35 700.47 699.16 888.90 678.47
00007000 00000008 431.36 120.38 529.97 760.32 652.07 423.51 874.29 395.82 835.96 542.24 712.50 697.86 895.95 673.68
00007001 00000009 432.00 111.12 530.56 761.94 656.16 411.61 877.71 383.34 842.43 526.91 722.81 691.48 903.33 666.33
00007002 DELETE   427.26 105.81 535.17 761.54 653.14 402.13 871.45 377.42 838.29 512.36 722.64 679.09 903.37 656.77
00007003 DELETE   416.81 105.87 542.84 762.12 637.96 394.78 861.42 373.62 821.52 506.09 707.35 674.05 890.82 654.58
00007004 DELETE   409.19 106.87 539.47 764.12 617.26 397.27 846.10 371.81 798.47 497.04 686.47 673.26 867.50 649.99
00007005 00000013 399.77 117.90 544.74 747.85 603.47 393.90 828.44 363.52 774.09 496.33 674.41 673.88 848.71 645.53
00007006 00000014 397.23 118.36 544.04 749.77 599.97 395.29 824.96 364.36 770.23 495.45 668.68 672.67 847.14 643.39
00007007 00000015 400.82 119.44 540.85 741.11 604.35 397.55 828.47 363.75 776.12 499.98 675.83 671.91 851.31 640.60
00007008 00000016 405.98 114.66 540.85 743.00 611.87 403.05 835.91 365.22 788.49 500.62 682.93 673.43 864.63 639.06
00007009 00000017 409.17 108.67 537.43 751.41 617.83 406.31 847.44 373.15 803.56 508.06 686.48 671.36 874.21 642.04
00007010 00000018 408.97 119.14 537.62 737.86 619.48 406.83 839.85 367.02 798.75 505.61 692.44 675.55 872.37 639.91
00007011 00000019 406.22 120.15 535.64 739.29 618.28 405.60 837.15 366.19 797.78 503.76 691.94 676.04 869.78 640.67
00007012 00000020 403.92 120.56 533.58 741.79 613.33 404.68 830.94 367.01 789.34 504.90 686.92 678.50 862.57 644.49
00007013 00000021 399.05 109.90 535.56 757.94 604.42 403.91 825.19 365.38 780.34 507.86 679.37 681.70 856.75 646.80
00007014 00000022 395.99 113.21 533.18 754.40 597.59 403.58 818.90 365.04 771.57 508.05 673.73 684.17 847.73 649.19
00007015 00000023 393.28 113.99 535.10 756.56 591.36 405.58 815.59 366.50 765.67 508.97 667.14 685.79 844.01 649.82
00007016 00000024 390.60 108.92 536.68 766.49 590.29 407.50 813.06 366.82 765.43 510.67 664.70 689.62 843.41 652.41
00007017 00000025 390.86 111.69 535.80 763.30 589.55 408.06 814.02 366.35 766.44 513.50 667.86 692.21 846.26 654.36
00007018 00000026 390.71 115.53 535.35 756.84 592.37 408.98 816.29 368.83 768.51 516.53 670.88 691.10 846.77 654.69
00007019 00000027 391.67 120.28 534.66 747.87 593.41 410.37 818.00 369.11 770.70 517.59 673.34 690.59 849.67 653.23
00007020 00000028 392.18 122.13 535.16 739.08 592.77 410.50 818.56 369.67 769.47 519.45 670.78 688.08 848.05 650.95
00007021 00000029 390.76 121.78 535.58 739.41 590.91 410.05 816.21 368.38 767.81 521.74 666.25 687.85 844.99 650.04
00007022 00000030 390.00 119.15 533.34 743.53 587.86 409.93 813.51 368.79 764.07 521.81 665.42 690.54 842.26 653.20
00007023 00000031 388.60 120.52 534.31 744.56 587.46 412.37 811.59 372.50 766.93 522.65 667.40 692.84 845.06 659.33
00007024 00000032 387.44 121.51 533.23 743.95 589.33 413.87 810.14 373.87 768.88 521.84 671.28 693.24 845.29 659.55
00007025 00000033 387.27 120.76 529.96 744.30 586.14 411.64 812.01 371.35 763.39 523.87 667.91 692.37 843.25 655.55
00007026 00000034 386.76 123.87 533.93 735.49 586.61 415.21 809.81 372.87 767.97 521.63 671.48 691.85 847.10 656.06
00007027 00000035 385.19 122.83 534.90 738.71 585.82 415.35 809.76 372.26 768.80 521.04 671.80 692.90 848.29 656.42
00007028 00000036 385.04 124.27 536.22 737.75 581.93 417.08 809.37 374.01 765.79 524.14 667.75 695.31 847.46 658.92
00007029 00000037 384.72 125.64 535.32 736.38 581.85 418.01 808.31 374.54 765.34 526.03 667.74 697.36 845.65 660.69
00007030 00000038 385.12 127.69 535.37 733.52 581.67 418.69 807.87 375.14 764.64 526.99 668.27 697.39 845.61 660.62
00007031 00000039 386.55 126.77 535.19 734.71 583.18 418.72 808.21 375.06 764.85 526.30 668.99 696.58 846.34 659.67
00007032 00000040 386.82 127.78 534.49 732.13 584.06 418.13 808.49 374.88 765.60 526.25 668.72 695.98 846.09 659.41
00007033 00000041 386.27 122.26 533.85 745.14 582.78 410.50 811.29 369.44 762.34 524.94 666.69 696.57 843.99 658.97
00007034 00000042 389.44 119.81 531.95 752.30 584.53 407.98 811.09 365.11 762.87 522.12 668.40 697.12 845.47 658.12
00007035 00000043 391.79 119.84 533.22 754.79 588.64 406.26 813.60 363.11 767.66 517.75 670.48 695.96 848.74 656.73
00007036 00000044 396.22 118.05 532.99 754.48 595.66 404.45 818.32 361.38 775.55 510.73 675.55 693.08 854.16 654.28
00007037 00000045 399.62 119.34 533.40 749.95 602.37 402.78 824.00 361.45 782.07 505.24 682.43 689.12 860.59 651.87
00007038 00000046 402.41 116.68 531.75 749.06 610.45 401.77 828.51 361.51 793.04 494.99 689.93 683.93 866.51 647.87
00007039 00000047 404.22 119.50 531.06 745.21 612.80 397.40 831.82 360.02 796.01 490.46 690.01 680.92 867.90 647.38
00007040 00000048 402.99 112.00 531.42 752.93 613.19 393.11 830.97 359.66 793.55 487.71 686.56 676.57 865.11 645.95
00007041 00000049 401.33 112.28 532.54 752.27 609.97 390.37 828.68 358.33 789.10 486.35 684.69 676.17 862.33 646.40
00007042 00000050 400.91 112.18 529.68 752.88 607.60 388.18 825.04 358.39 783.62 486.60 680.19 674.12 856.86 646.03
00007043 00000051 399.04 108.41 528.57 758.86 604.46 386.62 822.51 358.77 777.70 487.12 675.17 673.48 851.33 646.71
00007044 00000052 397.33 107.36 531.29 759.07 602.56 384.04 821.60 356.03 776.29 484.03 672.85 671.33 850.27 644.27
00007045 00000053 396.02 109.90 530.24 756.81 600.45 382.40 819.03 353.20 774.95 480.14 671.59 670.10 848.93 641.83
00007046 00000054 394.36 104.46 529.50 762.40 599.28 382.18 817.95 352.85 774.11 479.77 670.65 668.85 849.02 640.33
00007047 00000055 394.40 106.20 528.31 758.32 597.40 381.12 816.39 349.38 772.05 480.96 670.87 669.76 846.95 639.34
00007048 00000056 384.14 97.18 539.45 761.66 594.12 379.04 819.01 351.09 776.93 481.79 667.13 667.39 851.14 642.48
00007049 00000057 378.68 102.10 543.29 760.56 587.21 380.57 811.69 352.30 770.27 482.64 660.97 666.80 846.70 641.37
00007050 00000058 367.18 97.63 548.81 761.54 570.52 385.43 795.05 354.10 752.18 482.22 648.19 664.54 836.06 636.09
00007051 00000059 354.89 96.63 554.10 754.88 546.04 384.15 777.26 351.74 718.60 480.89 623.45 658.32 814.44 629.38
00007052 00000060 340.29 100.68 559.36 749.35 516.20 384.71 754.10 348.68 676.90 484.29 590.57 658.04 783.75 626.23
00007053 00000061 331.26 111.72 565.71 738.30 500.32 389.92 744.60 353.59 667.36 485.84 580.90 662.21 774.86 630.26
00007054 00000062 331.09 111.06 557.82 752.88 509.02 400.45 749.37 357.70 679.77 495.05 587.37 674.38 782.53 636.70
00007055 00000063 341.92 110.31 550.30 752.45 521.62 402.70 759.83 358.85 694.72 498.51 603.84 676.37 794.31 638.05
00007056 00000064 346.46 111.54 548.22 744.70 527.58 404.40 759.50 362.48 697.33 498.38 611.09 673.34 798.09 637.26
00007057 00000065 347.16 112.96 545.12 747.98 533.95 416.18 756.86 376.03 699.14 500.67 613.00 676.76 796.59 643.09
00007058 00000066 343.09 113.95 547.07 750.61 528.47 417.49 760.16 375.69 696.91 505.52 608.34 681.64 792.40 645.01
00007059 00000067 336.12 116.12 551.87 749.61 518.38 420.03 753.34 375.80 687.19 509.44 601.75 686.47 784.90 647.78
00007060 00000068 329.43 118.89 557.59 749.33 506.87 424.50 743.38 375.78 676.65 513.79 596.09 694.32 778.99 651.49
00007061 00000069 326.09 128.13 558.55 742.28 499.97 422.38 731.57 367.47 665.72 514.61 589.34 697.34 768.01 649.45
00007062 00000070 326.68 128.60 558.65 740.73 501.79 423.19 736.39 368.71 671.58 516.62 591.88 698.92 772.66 651.69
00007063 00000071 328.92 123.58 556.66 747.08 514.05 424.12 750.01 372.51 690.21 516.92 604.46 691.17 791.00 646.23
00007064 00000072 339.77 122.10 547.04 738.82 522.15 419.03 753.61 372.99 694.69 518.51 611.45 684.78 795.77 645.63
00007065 00000073 341.09 121.14 545.75 741.55 526.00 419.30 754.80 372.62 700.95 514.67 613.96 682.92 801.46 643.01
00007066 00000074 339.22 122.02 546.52 738.71 525.97 417.47 755.38 370.51 703.71 514.03 614.13 681.55 801.84 641.06
00007067 00000075 335.98 125.03 551.38 733.45 520.28 422.35 747.23 359.57 698.47 504.55 614.44 687.09 795.79 632.24
00007068 00000076 321.30 119.44 557.02 739.36 501.91 424.67 727.95 361.52 674.38 504.79 593.57 687.30 779.08 631.07
00007069 00000077 295.05 115.72 567.78 736.77 465.72 423.90 702.98 366.30 639.15 506.96 559.50 677.82 755.82 629.74
00007070 DELETE   276.42 105.99 569.07 744.40 437.39 424.48 678.32 363.23 602.93 511.11 530.17 677.73 727.92 625.69
00007071 00000079 265.39 112.01 565.42 745.03 424.87 422.14 665.74 363.82 586.28 511.00 515.37 681.18 711.77 631.01
00007072 00000080 264.05 112.21 567.96 749.69 425.54 420.19 665.44 361.11 587.76 509.13 518.92 682.50 713.59 631.61
00007073 00000081 266.97 110.45 568.71 748.61 433.68 419.63 672.04 358.51 601.27 506.61 529.32 681.08 725.68 628.63
00007074 00000082 272.92 111.62 569.77 748.53 441.61 419.97 680.17 357.90 613.64 505.16 539.83 682.38 737.16 629.25
00007075 00000083 281.47 115.88 568.56 749.50 448.71 421.15 683.55 358.37 619.54 504.69 548.98 685.09 743.17 631.75
00007076 00000084 283.39 119.65 564.56 747.72 450.67 423.02 686.05 360.66 623.30 510.37 550.15 688.17 745.25 635.57
00007077 00000085 284.81 122.81 563.83 746.71 451.93 426.19 686.96 364.32 623.77 514.62 550.07 689.61 745.89 637.60
00007078 00000086 285.87 125.39 563.92 742.10 453.29 428.51 687.54 366.80 624.61 516.69 552.18 690.19 745.95 638.33
00007079 00000087 287.61 129.95 561.66 734.39 455.49 432.48 687.31 370.09 627.29 519.22 555.93 691.40 747.08 639.33
00007080 00000088 290.65 134.64 560.46 722.94 458.76 433.94 691.29 371.59 630.45 521.70 560.51 690.13 749.30 638.49
00007081 00000089 293.84 131.18 559.94 722.03 461.86 431.49 693.86 369.56 632.86 519.81 563.18 685.81 750.79 634.52
00007082 00000090 295.98 126.51 560.27 730.82 467.69 429.68 697.55 368.19 640.42 515.47 568.16 684.76 756.37 633.75
00007083 00000091 301.93 124.64 556.52 731.45 475.29 427.82 703.44 367.30 649.36 512.81 572.66 682.13 761.43 632.13
00007084 00000092 307.06 124.91 557.45 726.90 480.92 426.57 709.30 367.16 652.92 512.07 574.41 678.25 764.63 628.74
00007085 00000093 308.99 122.78 559.33 725.78 484.39 422.81 715.76 364.39 659.70 513.22 576.77 676.48 769.87 627.24
00007086 00000094 311.99 122.82 556.75 723.83 488.83 418.82 721.90 363.54 665.07 512.60 578.12 673.79 771.83 627.06
00007087 00000095 314.15 119.68 555.79 729.04 495.36 414.74 723.86 362.74 671.07 506.79 584.80 673.16 772.42 628.95
00007088 00000096 318.28 116.04 552.66 733.64 502.68 410.60 728.84 361.36 677.50 502.37 593.65 673.98 775.30 632.05
00007089 00000097 319.63 112.15 550.78 741.18 508.37 407.39 731.51 360.61 683.67 497.72 598.03 673.65 777.42 633.70
00007090 00000098 321.17 111.75 549.34 739.09 509.87 408.71 735.73 359.39 688.28 502.47 603.04 678.20 781.22 636.15
00007091 00000099 321.86 114.08 550.74 736.83 509.54 410.73 737.03 360.13 688.25 505.12 603.50 679.37 782.61 636.32
00007092 00000100 321.11 114.70 551.64 737.43 509.65 410.08 735.68 360.29 687.48 505.31 601.99 679.24 780.35 636.83
00007093 00000101 321.87 112.51 548.34 747.65 509.56 416.51 732.36 358.90 685.23 506.71 601.85 689.57 778.78 638.58
00007094 00000102 321.01 116.02 547.61 746.94 507.54 417.39 732.28 359.84 684.21 512.04 600.81 694.27 777.98 643.28
00007095 00000103 319.59 116.78 550.83 748.06 506.42 419.38 733.89 361.92 684.07 515.74 598.67 696.48 778.42 645.55
00007096 00000104 321.40 121.20 551.47 738.22 508.77 421.92 736.41 367.46 688.05 518.95 602.22 691.59 781.82 645.89
00007097 00000105 321.87 121.31 551.95 737.08 510.39 422.12 737.95 369.12 688.99 518.50 603.98 690.71 782.46 646.31
00007098 00000106 322.50 123.82 550.39 737.67 511.30 423.80 737.49 371.57 688.88 520.68 604.50 692.18 781.87 648.37
00007099 00000107 321.58 123.11 550.46 739.14 510.16 424.90 734.95 372.31 686.95 521.38 605.68 694.21 779.51 650.16
00007100 00000108 319.47 127.81 549.17 736.61 504.13 425.98 731.64 374.40 678.84 528.32 596.93 695.99 772.90 652.92
00007101 00000109 315.89 135.26 550.39 727.51 495.04 427.02 727.70 378.58 667.26 531.16 587.13 695.01 765.08 654.54
00007102 00000110 315.32 137.05 548.28 727.19 490.38 428.45 726.09 383.51 661.89 534.10 579.98 696.71 761.98 659.14
00007103 00000111 317.91 136.95 548.08 726.16 489.68 429.37 727.49 384.78 660.65 534.87 579.12 697.79 762.19 660.30
00007104 00000112 321.19 136.24 549.45 728.23 493.22 433.81 732.52 387.70 665.41 541.94 582.16 702.33 767.49 663.73
00007105 00000113 326.29 139.34 548.46 727.22 501.52 432.27 737.95 385.99 675.20 545.93 592.33 703.97 773.32 665.20
00007106 00000114 330.96 137.87 547.93 728.51 508.79 432.98 745.29 386.32 683.36 544.31 599.61 705.09 779.14 666.06
00007107 00000115 327.36 139.70 550.96 730.15 512.60 429.19 751.27 380.27 689.35 541.06 603.22 707.57 783.50 664.72
00007108 00000116 329.63 142.74 550.75 728.15 517.06 428.77 754.14 380.76 693.20 541.68 608.28 708.92 785.33 666.99
00007109 00000117 331.69 141.87 551.14 730.19 521.90 429.32 756.09 380.58 697.39 538.63 610.95 707.10 787.29 664.76
00007110 00000118 338.82 139.80 544.55 736.87 526.29 428.56 761.05 389.00 703.08 540.84 614.58 702.71 796.23 668.25
00007111 00000119 343.32 137.03 543.15 736.74 529.72 428.35 764.19 388.03 707.47 538.23 616.82 702.14 800.39 667.24
00007112 00000120 347.57 136.91 540.81 740.60 535.46 428.62 765.82 388.28 713.12 537.20 622.46 702.67 804.30 667.91
00007113 00000121 352.82 137.37 537.69 740.00 541.35 429.41 768.99 388.27 719.06 535.19 629.12 703.65 808.07 668.51
00007114 00000122 355.15 139.70 537.09 738.62 546.69 429.80 773.18 388.59 726.08 533.06 635.64 703.59 813.91 668.26
00007115 00000123 357.63 138.46 537.58 733.63 549.41 429.00 778.50 387.13 730.04 533.69 637.80 700.31 818.48 664.60
00007116 00000124 358.19 132.95 539.13 736.34 550.03 427.06 782.67 384.24 732.19 533.26 635.77 696.82 822.53 660.16
00007117 00000125 359.56 131.18 539.48 734.01 550.63 425.89 784.41 382.56 733.20 532.13 634.69 692.74 825.14 655.74
00007118 00000126 360.25 130.46 539.55 732.19 551.10 424.45 784.78 381.52 732.90 531.20 634.08 690.15 824.57 653.43
00007119 00000127 360.41 130.00 540.36 731.89 550.67 423.32 785.58 381.59 732.42 531.25 631.73 688.99 824.32 653.30
00007120 00000128 361.04 122.10 540.88 739.77 551.61 420.38 785.90 379.17 733.03 528.61 633.32 689.19 824.24 653.88
00007121 00000129 361.47 123.07 540.40 741.53 551.88 418.82 784.71 379.12 732.19 527.64 635.33 691.17 821.79 657.19
00007122 00000130 358.64 123.11 540.86 746.18 552.80 416.35 784.44 378.58 732.69 526.39 637.40 692.47 819.07 659.91
00007123 00000131 357.82 122.36 540.34 747.66 550.47 415.68 781.20 378.66 728.78 525.05 634.41 692.68 815.01 660.89
00007124 00000132 357.78 123.28 536.64 744.46 548.23 415.48 778.92 378.93 725.37 526.44 630.80 692.89 810.62 661.64
00007125 00000133 352.67 124.34 539.88 738.82 539.75 413.09 775.44 378.59 717.43 527.82 622.33 693.46 803.42 663.91
00007126 00000134 347.22 122.12 542.91 741.74 531.39 409.82 769.58 379.02 706.35 529.03 606.45 689.62 794.84 662.97
00007127 00000135 339.38 121.30 542.06 748.07 524.84 419.96 763.13 384.65 698.96 521.74 597.91 691.27 786.72 659.87
00007128 00000136 332.39 116.36 547.15 756.31 520.81 422.48 759.17 386.94 694.12 524.39 592.18 689.56 783.86 657.79
00007129 00000137 330.17 115.60 551.46 759.65 517.37 421.35 757.14 384.76 690.13 524.43 587.74 688.81 782.73 656.14
00007130 00000138 332.41 117.87 549.79 756.94 520.25 419.37 761.88 383.12 695.53 523.61 590.02 687.94 787.77 655.65
00007131 00000139 344.23 118.68 546.98 748.16 529.55 413.75 765.72 380.01 703.73 524.44 602.45 684.52 797.12 655.37
00007132 DELETE   351.16 119.72 543.37 746.98 540.35 414.17 773.98 380.24 717.97 523.57 614.90 687.31 806.60 658.03
00007133 00000141 358.59 121.35 541.12 754.40 554.57 415.68 787.61 378.35 737.57 527.26 633.23 693.32 824.70 661.08
00007134 00000142 364.24 118.98 539.36 764.98 568.23 419.35 794.07 378.94 752.29 526.82 645.47 695.67 834.31 660.62
00007135 00000143 368.71 120.40 538.58 762.50 575.64 417.87 800.02 378.32 760.23 527.18 652.88 694.82 839.96 660.55
00007136 00000144 371.42 119.85 537.19 759.26 575.79 419.54 799.86 380.04 759.25 528.36 651.08 693.69 838.28 659.71
00007137 00000145 369.58 122.63 539.61 756.36 571.58 420.29 798.85 381.82 754.01 531.99 646.57 694.91 834.70 661.99
00007138 00000146 366.94 126.13 540.76 754.85 565.26 422.24 795.96 386.23 746.04 538.01 638.99 697.09 828.75 666.25
00007139 00000147 363.93 130.60 541.79 751.30 559.69 424.83 794.42 391.00 739.10 539.69 631.05 698.74 822.43 669.66
00007140 00000148 363.31 135.31 541.79 747.55 557.35 427.80 791.14 394.35 735.29 542.57 629.05 700.68 820.08 671.91
00007141 00000149 364.14 140.15 542.86 743.92 556.97 429.83 793.16 397.88 734.18 546.69 627.37 701.41 820.88 673.62
00007142 00000150 366.44 133.13 543.81 755.02 560.29 432.38 794.43 398.62 737.70 549.29 630.45 703.91 823.67 674.77
00007143 00000151 368.22 134.64 544.36 755.85 564.12 435.51 797.84 399.62 743.70 553.56 635.03 707.36 829.26 676.61
00007144 00000152 371.89 136.31 542.28 758.81 568.62 437.81 801.16 401.18 749.64 555.82 638.35 710.29 832.20 679.11
00007145 00000153 373.14 139.91 540.49 753.24 569.83 437.12 803.63 401.04 752.44 557.33 640.03 710.52 833.61 679.65
00007146 00000154 374.52 140.60 538.99 754.02 571.07 440.54 803.74 404.02 752.81 559.96 640.25 712.46 833.64 681.36
00007147 00000155 373.26 140.23 540.03 753.55 570.96 441.51 804.04 405.07 752.52 560.91 639.51 712.75 832.81 681.84
00007148 00000156 370.02 139.50 540.24 754.96 568.78 441.91 802.87 406.41 750.26 562.40 636.05 712.29 830.20 682.19
00007149 00000157 367.99 137.80 539.69 753.83 563.80 441.35 797.34 406.08 742.53 560.23 631.01 709.71 824.59 679.61
00007150 00000158 364.02 138.00 539.73 751.78 559.11 438.89 793.82 407.55 735.00 558.05 623.32 705.41 817.92 678.22
00007151 00000159 359.78 139.27 540.22 748.70 553.58 436.09 787.96 408.00 726.81 555.88 615.63 701.82 809.54 677.03
00007152 00000160 356.16 140.49 542.66 749.37 549.20 433.63 784.29 406.77 721.49 554.82 610.43 700.03 805.51 676.25
00007153 00000161 355.84 142.05 542.73 749.83 549.48 431.78 784.17 405.56 721.78 553.46 613.06 700.69 805.30 677.39
00007154 00000162 357.13 139.94 541.10 756.23 552.51 429.60 784.94 404.16 724.72 550.38 618.47 704.21 804.39 681.84
00007155 00000163 358.10 139.98 539.86 753.65 554.93 428.21 787.60 401.96 729.90 546.26 622.78 705.91 808.54 682.86
00007156 00000164 360.38 134.11 539.24 762.02 559.02 427.11 791.78 399.54 735.42 545.72 627.79 707.81 813.11 683.89
00007157 00000165 360.07 134.32 541.45 767.36 568.33 418.01 799.45 394.30 743.69 546.49 632.29 704.63 815.30 681.67
00007158 00000166 364.34 132.61 536.24 764.89 573.97 419.39 801.51 391.63 752.12 544.67 638.01 703.17 822.01 676.67
00007159 00000167 373.30 135.37 532.71 749.41 579.26 424.61 803.57 393.03 759.05 542.16 648.15 700.42 831.16 673.19
00007160 00000168 374.82 135.13 531.71 747.96 588.98 418.32 815.60 387.17 769.51 539.16 654.50 695.54 837.87 666.05
00007161 00000169 377.37 132.64 532.10 751.68 592.02 417.83 817.13 387.54 770.76 537.83 658.76 696.71 838.91 668.27
00007162 00000170 375.23 139.91 533.48 760.29 590.14 417.73 813.59 389.63 768.34 541.50 649.22 700.65 835.29 674.13
