Video ID: 	tU9f4UEFsMY
H: 	1080
W: 	1920
FPS: 	25.0

FRAME INDEX X0 Y0 W H [Landmarks (5 Points)]

00088587 00000000 648.04 177.36 442.32 634.72 766.68 413.36 974.44 409.88 881.13 530.33 788.90 638.37 964.51 632.98
00088588 00000001 637.63 179.31 444.51 637.18 758.79 416.69 966.60 413.89 874.58 534.93 780.13 642.69 956.71 637.50
00088589 00000002 636.03 182.89 442.52 635.66 758.55 422.32 965.07 418.82 876.67 541.15 783.48 653.82 953.84 647.92
00088590 00000003 638.95 189.75 437.97 631.50 764.82 429.94 968.98 429.46 882.05 548.42 786.25 657.43 956.51 654.33
00088591 00000004 646.95 190.33 430.45 628.94 774.98 439.72 976.70 437.27 895.12 550.12 795.17 658.30 968.70 655.25
00088592 00000005 659.41 193.48 428.94 627.30 792.54 436.66 992.50 437.94 912.77 547.21 808.11 654.29 982.95 654.53
00088593 DELETE   678.64 198.47 421.98 627.14 802.82 432.22 1008.01 437.87 924.09 546.87 821.05 656.79 990.67 659.90
00088594 DELETE   684.96 198.34 426.81 628.64 819.91 428.57 1024.93 438.40 946.18 547.05 836.39 656.45 1006.92 662.09
00088595 DELETE   694.11 195.15 433.34 630.92 837.34 428.45 1034.64 437.41 963.05 548.15 853.88 653.61 1019.37 658.44
00088596 00000009 705.15 198.05 430.10 621.05 854.35 425.79 1049.78 433.51 983.12 543.79 866.19 644.67 1036.11 649.84
00088597 00000010 718.29 200.33 424.10 616.56 869.08 423.67 1061.16 433.02 996.68 543.33 880.11 643.52 1049.17 650.70
00088598 00000011 731.03 197.57 418.69 614.81 882.07 423.62 1071.18 434.60 1005.21 542.38 891.80 644.10 1053.95 652.93
00088599 00000012 744.10 200.81 414.56 618.71 887.25 422.41 1080.36 438.82 1004.86 545.12 896.57 648.68 1049.13 661.00
00088600 00000013 747.74 197.38 413.99 625.21 894.10 423.20 1087.52 438.37 1016.93 545.99 909.03 653.73 1057.12 664.62
00088601 00000014 750.37 194.65 416.99 631.03 897.17 423.23 1092.37 440.21 1022.53 545.60 909.69 652.65 1066.73 664.71
00088602 00000015 752.02 193.61 416.57 630.30 899.13 422.71 1095.72 440.44 1025.25 544.21 911.61 652.40 1069.05 665.09
00088603 00000016 753.67 192.95 415.72 630.98 900.85 422.29 1096.98 439.31 1027.76 542.92 915.41 653.32 1071.15 665.38
00088604 00000017 753.18 194.52 414.84 628.94 901.32 422.71 1095.66 437.89 1028.48 544.38 920.02 655.33 1069.11 665.81
00088605 00000018 751.24 195.44 414.49 628.20 900.35 422.00 1094.85 437.92 1028.05 545.41 917.58 654.64 1069.39 665.72
00088606 00000019 749.65 197.87 416.02 624.77 900.44 421.97 1094.17 439.85 1027.69 544.27 909.58 649.86 1070.68 662.94
00088607 00000020 748.96 199.41 416.56 622.28 901.46 422.39 1093.68 441.81 1028.84 540.06 904.82 644.75 1075.05 659.28
00088608 00000021 749.19 198.99 417.32 625.97 902.06 420.29 1094.20 439.99 1031.36 536.63 903.45 644.51 1076.38 659.41
00088609 00000022 749.95 198.10 417.46 627.66 903.44 417.75 1095.62 436.91 1035.03 536.02 902.85 644.74 1076.61 659.46
00088610 00000023 749.59 198.64 417.89 626.77 903.22 418.14 1095.29 436.71 1035.03 535.64 902.73 644.56 1076.93 658.74
00088611 00000024 749.00 198.65 418.64 625.29 903.00 418.94 1095.77 437.04 1034.53 535.62 903.51 644.36 1077.46 658.09
00088612 00000025 748.74 197.52 420.36 624.62 902.39 418.78 1096.83 436.41 1033.87 535.43 903.67 642.77 1079.27 656.08
00088613 00000026 749.08 196.41 420.24 624.46 902.09 418.20 1097.87 434.45 1034.13 534.19 905.38 642.51 1080.99 654.60
00088614 00000027 750.59 194.56 421.12 623.87 902.89 418.01 1099.95 432.92 1035.67 533.52 908.38 642.22 1083.72 653.17
00088615 00000028 751.06 192.61 422.07 623.54 902.69 414.90 1100.49 429.81 1035.40 529.03 908.50 639.55 1083.65 650.47
00088616 00000029 751.30 188.67 422.33 625.98 901.72 412.22 1100.18 426.83 1035.26 524.58 908.28 636.60 1084.41 647.24
00088617 00000030 751.00 188.66 423.23 627.75 900.47 412.10 1099.95 424.85 1034.89 524.63 907.47 637.19 1085.27 646.25
00088618 00000031 750.39 195.19 421.12 628.94 900.03 421.27 1096.60 431.05 1033.83 538.55 906.71 644.60 1085.38 651.18
00088619 00000032 747.97 201.46 420.94 632.32 900.41 433.09 1094.70 446.63 1033.92 550.50 901.99 654.83 1081.35 664.65
00088620 00000033 746.43 207.05 426.15 625.27 904.48 431.63 1099.85 446.64 1039.15 551.44 903.13 652.64 1084.96 664.20
00088621 00000034 752.17 205.90 425.29 619.47 912.79 425.40 1107.91 443.51 1048.91 542.56 910.08 641.36 1093.99 655.61
00088622 00000035 756.88 203.75 424.96 620.56 916.45 422.61 1112.15 441.26 1054.56 537.29 914.69 638.06 1099.57 652.79
00088623 00000036 762.04 199.07 416.53 630.76 919.20 433.76 1111.75 449.83 1057.70 539.34 916.39 643.14 1100.93 655.95
00088624 00000037 763.49 198.30 413.25 632.82 917.19 432.56 1108.97 448.46 1057.31 536.82 915.56 644.46 1098.42 657.05
00088625 00000038 761.94 200.25 415.84 631.04 913.05 427.60 1108.37 442.62 1054.07 535.87 913.88 644.89 1097.91 656.55
00088626 00000039 759.34 201.40 420.41 626.92 910.92 424.72 1108.28 438.04 1050.69 535.87 915.17 645.09 1097.68 655.15
00088627 00000040 756.51 203.28 422.71 623.36 907.88 423.56 1106.86 435.81 1047.57 537.17 913.24 644.73 1096.88 653.90
00088628 00000041 754.04 203.40 424.29 621.24 906.92 423.29 1104.95 435.80 1044.50 537.97 910.33 642.14 1095.10 651.49
00088629 00000042 754.28 202.99 423.02 618.37 905.95 423.82 1104.24 435.08 1042.65 537.96 909.39 641.05 1094.18 649.48
00088630 00000043 755.19 203.20 421.38 614.45 906.32 424.35 1103.89 435.81 1041.37 537.92 909.44 638.33 1094.58 647.08
00088631 00000044 754.96 203.96 420.83 611.65 905.84 424.28 1103.21 435.75 1040.14 537.80 907.71 635.98 1094.70 644.91
00088632 00000045 754.71 205.40 419.30 607.44 904.77 425.10 1101.62 435.59 1039.06 537.76 905.97 633.54 1094.69 641.78
00088633 00000046 753.64 207.66 419.64 604.74 904.37 426.78 1100.79 436.75 1039.10 538.59 905.13 632.88 1095.25 640.90
00088634 00000047 753.81 207.95 420.94 605.34 904.92 426.32 1101.40 436.56 1039.74 538.39 906.52 634.69 1095.35 642.81
00088635 00000048 755.09 206.06 421.54 615.85 905.67 425.37 1101.52 436.42 1041.27 539.26 907.63 640.30 1094.45 648.62
00088636 00000049 753.89 207.30 422.02 615.22 905.48 427.31 1101.29 438.72 1040.41 542.41 912.04 645.71 1092.45 653.92
00088637 00000050 754.65 205.42 420.75 615.89 906.48 431.39 1100.66 439.65 1040.78 548.86 917.90 650.23 1091.48 655.63
00088638 00000051 757.22 205.13 422.18 616.26 910.81 431.76 1102.95 440.99 1044.11 549.77 923.78 651.00 1091.73 656.86
00088639 00000052 759.21 205.81 422.04 613.39 915.28 429.69 1107.31 441.52 1048.51 548.62 925.62 648.98 1093.19 657.25
00088640 00000053 756.25 206.89 422.68 611.36 914.44 430.21 1107.34 444.37 1048.11 547.55 923.03 647.30 1092.63 657.69
00088641 00000054 753.09 206.60 423.87 614.29 910.77 428.87 1106.10 444.81 1044.59 543.49 915.91 644.62 1092.00 656.71
00088642 00000055 751.20 204.73 423.99 621.19 908.37 426.29 1104.45 442.23 1043.80 540.79 913.27 645.68 1091.76 657.62
00088643 00000056 752.32 202.92 422.13 624.43 907.52 424.12 1103.64 440.10 1043.71 539.54 911.67 645.50 1091.68 657.54
00088644 00000057 753.10 201.04 422.60 626.87 907.93 422.64 1103.97 438.99 1043.18 539.04 909.94 642.65 1092.47 655.01
00088645 00000058 754.55 203.44 421.32 621.12 908.72 421.30 1104.74 438.63 1042.67 538.29 906.46 636.99 1093.07 650.40
00088646 00000059 755.92 205.29 421.47 617.44 910.95 421.98 1105.22 439.40 1045.00 539.11 905.29 632.92 1094.34 646.78
00088647 00000060 759.05 203.25 420.43 621.42 913.91 420.87 1108.36 438.46 1051.13 535.85 907.69 632.60 1097.98 646.67
00088648 00000061 762.52 198.55 419.04 632.55 917.32 418.88 1111.52 437.71 1057.79 532.26 907.84 633.26 1100.62 648.61
00088649 00000062 764.43 198.02 418.02 634.09 918.29 417.60 1112.86 436.02 1060.83 531.60 911.00 636.31 1100.90 651.27
00088650 00000063 765.63 197.80 418.07 632.64 920.17 417.58 1114.38 436.20 1061.15 531.06 916.07 638.15 1100.23 653.06
00088651 00000064 766.61 197.42 419.75 633.88 923.54 421.04 1115.20 437.65 1063.16 533.62 930.48 649.02 1099.94 661.37
00088652 00000065 764.99 191.08 418.01 642.43 921.74 433.32 1115.61 446.03 1058.58 542.57 934.53 656.45 1099.64 664.73
00088653 00000066 760.41 194.69 419.91 635.88 915.53 433.46 1111.08 445.51 1052.12 542.77 933.08 657.52 1096.24 665.02
00088654 00000067 755.82 199.22 422.73 627.07 908.68 429.38 1108.23 439.34 1046.04 542.81 931.28 657.66 1092.25 663.24
00088655 00000068 752.70 199.76 422.35 625.31 904.71 428.45 1103.87 437.58 1041.95 543.92 926.53 657.31 1088.58 662.44
00088656 00000069 752.06 202.24 419.25 615.47 903.14 427.94 1100.10 437.41 1037.56 543.23 922.93 653.40 1085.92 659.23
00088657 00000070 750.53 206.51 416.80 606.81 899.76 428.88 1096.13 439.09 1032.18 543.35 915.86 649.98 1084.15 656.62
00088658 00000071 749.50 209.18 415.13 601.03 898.08 431.41 1095.36 441.15 1031.63 544.48 911.62 649.07 1084.79 655.82
00088659 00000072 748.46 209.55 414.40 602.62 897.23 432.13 1094.42 443.31 1031.04 544.88 908.14 648.61 1083.74 656.74
00088660 00000073 749.02 208.49 415.57 610.03 898.22 432.53 1095.62 444.03 1032.79 546.14 909.01 650.75 1085.81 658.96
00088661 00000074 748.14 207.30 419.97 616.42 900.57 432.01 1099.47 444.07 1037.65 546.38 909.77 651.94 1089.58 660.46
00088662 00000075 750.31 208.86 421.87 618.09 906.20 432.99 1103.23 443.44 1046.09 548.37 916.10 654.29 1094.42 661.57
00088663 00000076 755.50 211.51 421.27 614.85 910.76 436.87 1104.93 444.28 1051.62 552.16 921.08 654.21 1099.45 659.27
00088664 00000077 757.04 209.06 421.42 620.45 909.98 438.94 1105.66 445.30 1050.53 556.98 920.89 658.30 1100.32 662.38
00088665 00000078 755.45 206.79 419.97 623.11 908.08 437.64 1104.49 447.44 1046.03 557.21 919.42 659.97 1093.88 666.56
00088666 00000079 751.56 206.50 421.07 622.23 905.11 440.99 1102.82 449.79 1041.79 557.10 921.47 658.93 1094.57 664.46
00088667 00000080 752.85 206.94 418.41 615.63 905.81 443.72 1101.80 450.69 1040.74 552.29 925.47 658.48 1091.74 662.56
00088668 00000081 755.20 202.44 418.29 614.43 907.96 435.67 1102.10 441.80 1041.88 546.38 929.02 655.69 1089.04 658.82
00088669 00000082 755.67 201.90 417.64 607.92 906.72 429.34 1101.93 434.82 1041.24 542.44 928.59 652.66 1086.67 655.21
00088670 00000083 756.58 199.77 417.19 610.46 907.08 424.83 1100.50 431.24 1040.50 539.77 931.00 651.04 1085.11 654.12
00088671 00000084 755.59 198.95 418.27 615.29 905.33 424.97 1099.54 430.99 1039.43 540.97 930.53 653.09 1085.41 655.84
00088672 00000085 755.44 197.20 417.55 621.21 905.31 424.39 1099.74 431.13 1039.26 541.71 929.70 654.35 1084.55 657.78
00088673 00000086 754.01 197.98 419.45 621.55 904.33 424.20 1099.99 432.94 1037.89 541.98 924.61 651.75 1085.11 656.82
00088674 00000087 753.05 200.37 419.58 618.83 904.14 425.16 1100.55 435.28 1037.96 541.78 919.27 649.83 1086.36 656.44
00088675 00000088 752.11 203.63 420.79 618.43 903.06 427.23 1099.83 438.85 1036.35 542.24 914.83 649.13 1087.88 657.01
00088676 00000089 750.81 206.60 419.40 614.79 901.00 429.45 1097.92 441.04 1034.33 543.53 911.06 649.32 1086.51 657.43
00088677 00000090 750.74 206.64 418.72 613.09 900.90 429.64 1098.37 441.32 1034.03 543.55 910.01 648.27 1086.75 656.59
00088678 00000091 750.10 206.06 420.63 616.23 900.48 429.25 1097.64 440.66 1034.23 543.52 910.18 649.47 1086.82 657.42
00088679 00000092 750.40 206.16 419.26 618.66 900.64 429.70 1095.66 441.80 1033.71 544.68 908.46 650.69 1084.72 659.29
00088680 00000093 750.15 204.82 419.58 623.77 902.05 429.14 1096.12 443.16 1035.25 545.00 907.72 653.33 1082.12 663.47
00088681 00000094 754.44 201.06 415.07 640.49 902.43 426.39 1097.15 442.04 1038.24 546.17 911.67 665.99 1076.63 677.33
00088682 00000095 755.04 198.24 412.66 651.86 901.56 424.28 1094.14 435.72 1037.34 543.32 927.03 678.14 1068.59 686.21
00088683 00000096 754.23 198.29 411.59 640.45 901.59 425.59 1091.22 435.32 1032.44 541.08 926.85 669.20 1065.65 675.76
00088684 00000097 753.34 198.70 411.46 626.30 899.36 425.74 1093.04 433.87 1030.92 541.87 924.21 660.15 1073.17 664.86
00088685 00000098 749.72 191.52 413.14 630.24 893.85 420.83 1088.05 425.65 1026.79 531.68 916.39 653.91 1075.67 655.92
00088686 00000099 745.35 184.89 409.79 646.86 878.75 404.02 1075.83 406.07 1005.67 515.81 912.10 659.77 1053.66 659.94
00088687 DELETE   725.73 175.44 419.67 653.89 860.21 394.31 1051.32 396.82 979.58 485.19 900.61 652.30 1021.19 655.15
00088688 DELETE   703.56 165.08 429.97 638.33 830.94 386.17 1022.04 374.78 944.31 470.65 869.74 634.01 1001.59 623.69
00088689 00000102 696.17 150.59 429.88 644.09 800.79 378.21 1005.06 375.51 901.44 483.57 829.25 629.83 981.15 626.65
00088690 00000103 696.61 158.52 429.87 640.96 793.19 384.15 1000.03 388.86 885.18 489.45 810.07 629.99 975.99 633.48
00088691 00000104 695.21 178.02 432.34 620.40 794.52 399.35 1000.13 409.55 884.32 494.32 801.98 626.45 973.96 633.92
00088692 00000105 697.29 167.32 436.29 625.14 801.05 396.26 1006.23 411.81 889.14 506.53 806.55 624.31 980.03 636.57
00088693 00000106 703.97 166.12 435.99 625.63 813.57 399.69 1019.23 415.68 906.38 509.27 820.34 624.51 994.13 637.04
00088694 00000107 709.83 175.95 437.36 619.76 828.36 404.60 1037.80 417.67 933.65 512.27 838.44 633.16 1006.61 642.20
00088695 00000108 716.45 184.42 439.89 620.40 848.36 411.50 1053.08 424.69 957.68 518.19 856.66 636.12 1021.64 645.59
00088696 00000109 738.58 194.09 423.92 623.26 874.70 417.46 1071.76 437.02 985.70 525.93 872.61 634.83 1043.92 650.60
00088697 DELETE   749.88 193.05 419.79 625.87 890.13 420.64 1090.45 441.02 1009.99 532.01 894.14 640.12 1064.66 655.59
00088698 00000111 754.76 195.04 424.99 630.01 906.83 423.72 1107.34 446.06 1035.09 539.30 910.69 644.89 1084.62 661.41
00088699 00000112 762.37 195.26 424.20 635.68 921.34 421.88 1117.26 444.42 1054.97 538.18 924.87 649.00 1096.41 665.78
00088700 00000113 767.19 200.42 420.83 631.64 924.19 424.59 1117.19 446.33 1059.23 539.99 924.85 650.77 1097.30 667.33
00088701 00000114 765.00 204.57 417.92 625.99 916.78 426.94 1109.17 448.24 1047.04 546.91 911.54 650.65 1090.07 667.21
00088702 00000115 756.23 208.32 423.48 627.75 903.44 431.81 1101.47 455.24 1029.00 554.48 893.42 653.56 1081.05 672.07
00088703 00000116 748.32 213.72 426.13 626.38 893.84 433.54 1093.40 462.47 1011.83 558.17 876.33 653.50 1067.28 677.05
00088704 00000117 745.07 216.31 428.75 625.40 890.92 434.41 1092.72 463.66 1009.50 560.53 873.05 652.52 1069.04 676.49
00088705 00000118 749.92 211.61 424.92 635.89 893.00 433.44 1093.00 454.16 1018.99 558.44 879.52 655.71 1078.33 672.69
00088706 DELETE   752.49 204.31 419.32 652.88 884.20 419.61 1082.55 432.86 1009.38 545.12 874.69 655.21 1072.29 665.52
00088707 DELETE   740.97 184.81 421.58 670.44 858.22 402.44 1058.47 414.54 963.20 526.98 856.59 646.99 1045.24 656.20
00088708 DELETE   717.91 177.65 431.84 659.48 820.98 401.08 1035.30 404.19 911.88 506.88 825.16 643.21 1014.25 643.53
00088709 00000122 702.19 171.34 436.20 635.27 796.16 396.29 1004.73 403.06 883.64 498.16 803.79 622.25 981.63 626.46
00088710 00000123 697.36 155.58 438.34 629.40 792.86 384.76 1000.51 392.53 877.75 490.17 800.21 614.92 975.51 619.99
CROP_BBOX: 438 0 1465 1031
