Video ID: 	8fGjodJPglY
H: 	2160
W: 	3840
FPS: 	23.976023976023978

FRAME INDEX X0 Y0 W H [Landmarks (5 Points)]

00002778 00000000 1269.76 331.49 633.08 789.73 1443.87 667.10 1711.11 591.64 1630.90 798.35 1528.75 947.23 1780.12 883.35
00002779 00000001 1271.37 337.58 627.16 785.44 1446.31 665.04 1715.22 592.13 1635.06 801.73 1528.03 952.77 1777.79 891.63
00002780 00000002 1272.34 340.18 620.48 787.10 1446.70 667.75 1714.35 601.44 1635.92 803.63 1525.51 952.11 1773.36 898.67
00002781 00000003 1270.23 326.44 621.46 800.16 1451.81 678.24 1711.94 620.30 1628.65 806.42 1514.10 956.37 1764.52 907.99
00002782 00000004 1264.83 322.24 628.80 818.15 1446.86 684.59 1713.55 629.42 1624.07 807.18 1505.83 952.62 1758.49 908.72
00002783 00000005 1267.97 324.22 621.44 813.32 1446.66 677.17 1707.17 622.90 1615.40 811.30 1505.59 954.46 1755.36 908.33
00002784 00000006 1270.07 330.61 615.28 811.25 1441.88 671.47 1711.72 617.16 1617.46 813.35 1505.69 953.05 1758.98 907.95
00002785 00000007 1267.54 341.47 624.55 804.29 1441.55 671.19 1711.86 617.15 1616.26 814.11 1505.32 958.55 1759.30 912.09
00002786 00000008 1265.51 330.94 622.58 816.87 1440.34 671.49 1708.88 616.70 1614.44 817.12 1506.68 959.01 1755.36 912.02
00002787 00000009 1265.50 349.47 620.77 797.83 1438.31 672.10 1704.29 620.37 1609.12 816.92 1502.26 959.43 1752.51 914.61
00002788 00000010 1264.07 336.90 620.16 812.31 1436.03 671.86 1703.52 617.67 1608.34 820.72 1498.34 961.09 1752.60 914.29
00002789 00000011 1264.97 343.31 618.30 808.38 1436.39 670.98 1704.21 617.81 1609.14 821.79 1496.88 962.02 1753.23 915.85
00002790 00000012 1265.46 355.47 624.45 813.47 1439.72 672.81 1711.43 618.82 1617.62 817.92 1496.79 961.60 1756.76 913.67
00002791 00000013 1266.47 357.70 627.14 819.28 1441.33 671.93 1713.07 617.92 1619.02 819.03 1498.64 960.17 1756.72 912.19
00002792 00000014 1269.95 340.80 624.78 839.95 1442.89 670.87 1714.44 618.34 1617.47 816.75 1497.94 959.41 1755.71 913.30
00002793 DELETE   1270.30 374.15 623.75 801.84 1433.82 669.48 1708.58 620.48 1600.07 812.58 1480.51 955.83 1748.50 911.42
00002794 DELETE   1262.21 366.97 619.18 797.99 1405.73 660.15 1689.12 618.41 1556.18 811.57 1442.90 949.64 1720.42 910.74
00002795 DELETE   1247.92 386.87 606.32 772.27 1369.91 639.05 1651.61 616.85 1497.81 796.92 1394.06 935.09 1671.63 915.13
00002796 00000018 1236.63 383.31 601.60 778.66 1352.13 626.68 1629.09 615.59 1463.89 784.82 1372.41 927.82 1630.84 918.66
00002797 DELETE   1251.30 383.64 598.84 767.15 1366.03 626.00 1641.59 610.88 1480.56 785.71 1390.61 925.39 1639.77 912.90
00002798 DELETE   1274.80 362.35 600.04 780.74 1403.04 630.90 1677.27 610.98 1530.68 788.04 1446.55 932.23 1677.61 915.13
00002799 DELETE   1296.76 346.36 593.44 794.03 1436.43 653.17 1700.65 631.58 1562.79 786.48 1487.72 950.23 1697.05 932.50
00002800 00000022 1294.84 322.19 603.58 833.86 1441.30 653.53 1707.52 638.70 1567.64 792.98 1483.68 958.93 1694.47 947.68
00002801 00000023 1290.57 329.17 604.64 835.60 1432.90 650.84 1701.97 637.27 1557.16 801.16 1472.26 965.38 1683.74 954.93
00002802 00000024 1286.94 296.53 611.47 864.14 1428.79 651.99 1698.65 635.52 1555.34 812.99 1478.19 973.29 1687.94 962.54
00002803 00000025 1288.57 333.26 613.86 823.32 1436.19 655.79 1704.37 638.61 1564.99 819.67 1483.27 967.50 1704.15 954.98
00002804 00000026 1299.08 343.41 606.80 800.60 1444.87 658.27 1711.48 641.22 1575.41 818.16 1479.59 961.25 1717.55 946.91
00002805 00000027 1297.21 331.75 616.85 820.31 1443.76 661.54 1720.18 641.46 1581.52 823.53 1477.70 956.74 1733.15 941.13
00002806 00000028 1303.51 339.96 612.35 811.16 1448.28 662.66 1724.95 641.46 1587.82 824.26 1479.14 953.48 1741.15 936.28
00002807 00000029 1305.13 334.78 614.67 817.85 1452.10 660.63 1730.05 638.89 1593.81 824.45 1479.20 950.39 1748.87 932.35
00002808 00000030 1310.01 323.56 614.86 829.77 1459.40 661.36 1731.43 639.88 1599.99 823.43 1482.14 949.99 1751.95 929.58
00002809 00000031 1309.33 322.73 621.43 836.92 1458.18 661.41 1736.80 640.63 1601.92 828.15 1479.22 944.35 1758.79 926.64
00002810 00000032 1314.47 334.24 619.63 829.47 1461.64 665.20 1737.40 642.80 1604.42 828.90 1485.41 943.97 1761.80 924.41
00002811 00000033 1318.32 332.02 618.52 833.42 1465.54 664.59 1741.29 643.41 1607.92 832.33 1491.00 944.52 1763.81 926.05
00002812 00000034 1324.80 323.26 611.92 845.33 1470.82 664.88 1745.36 644.15 1612.39 833.40 1496.25 945.70 1765.88 928.10
00002813 00000035 1328.05 325.08 611.47 852.63 1473.95 665.40 1748.84 644.71 1616.36 833.16 1500.65 947.79 1770.47 929.90
00002814 00000036 1330.03 339.46 616.94 856.61 1470.09 658.54 1750.54 635.82 1610.03 830.94 1502.50 954.29 1769.10 935.27
00002815 00000037 1326.61 334.96 619.97 866.53 1468.07 660.32 1749.20 638.25 1609.56 836.13 1500.78 954.45 1765.26 936.30
00002816 00000038 1328.87 328.95 608.78 865.42 1472.56 669.30 1746.18 650.31 1610.58 840.43 1498.59 951.65 1770.40 934.12
00002817 00000039 1325.39 341.07 613.27 839.58 1470.78 669.50 1746.16 652.73 1608.76 843.47 1494.74 946.73 1770.39 930.24
00002818 00000040 1320.11 335.00 620.31 834.33 1466.80 671.80 1747.66 652.65 1610.93 843.20 1490.20 944.31 1773.21 926.03
00002819 00000041 1317.50 326.03 622.58 840.28 1463.52 670.70 1746.24 651.75 1608.47 844.96 1485.44 940.58 1773.79 921.97
00002820 00000042 1313.33 328.43 622.29 835.97 1460.37 671.93 1744.20 651.12 1608.18 845.50 1479.81 939.04 1771.48 919.02
00002821 00000043 1312.53 330.05 624.57 832.67 1458.95 671.38 1743.63 650.88 1606.49 843.90 1478.57 938.38 1771.91 918.47
00002822 00000044 1313.18 329.47 620.61 834.82 1458.93 670.27 1742.04 649.75 1606.15 843.52 1478.91 937.74 1771.65 917.57
00002823 00000045 1311.06 339.52 620.11 825.52 1456.25 670.19 1737.33 649.38 1601.27 840.77 1476.36 937.09 1769.53 916.02
00002824 00000046 1306.72 331.37 617.30 838.33 1451.53 670.60 1731.66 649.25 1595.55 842.36 1473.03 937.57 1763.51 915.86
00002825 00000047 1302.54 327.70 618.11 845.35 1448.19 672.71 1728.46 650.31 1592.88 843.79 1471.67 939.47 1760.43 916.98
00002826 00000048 1300.27 330.28 615.96 850.17 1447.25 671.01 1725.84 651.80 1589.03 845.80 1471.44 941.15 1756.47 920.57
00002827 00000049 1301.26 334.56 611.49 853.41 1447.43 674.77 1721.11 654.29 1586.46 846.27 1473.48 945.65 1752.38 924.42
00002828 00000050 1297.09 336.50 613.70 859.09 1444.14 675.88 1717.99 656.11 1582.63 849.30 1471.24 946.76 1750.54 925.29
00002829 00000051 1296.63 336.16 612.63 860.30 1442.73 675.92 1715.25 655.98 1579.41 847.75 1470.23 946.54 1748.42 924.89
00002830 00000052 1295.70 334.55 609.18 860.75 1441.03 671.76 1712.12 652.62 1575.33 846.46 1468.86 942.42 1746.48 920.95
00002831 00000053 1298.67 344.32 614.51 844.39 1440.28 658.95 1722.96 633.74 1582.25 826.48 1464.38 940.96 1748.55 916.83
00002832 00000054 1296.31 353.00 615.42 829.09 1439.76 646.35 1718.88 626.69 1574.82 813.34 1462.57 930.68 1739.18 912.78
00002833 00000055 1292.82 294.53 606.29 886.85 1432.17 632.87 1703.48 619.40 1552.02 801.21 1451.47 919.76 1724.25 906.33
00002834 00000056 1294.63 293.19 601.92 884.53 1428.46 624.96 1705.54 608.74 1548.55 782.50 1448.33 922.58 1719.89 908.78
00002835 00000057 1292.89 324.15 607.90 846.63 1426.02 617.40 1704.33 600.03 1549.79 768.38 1452.77 920.77 1718.76 904.80
00002836 00000058 1293.00 316.63 601.72 849.86 1420.08 611.93 1703.19 601.02 1543.36 769.01 1443.29 921.78 1710.58 910.70
00002837 00000059 1289.82 286.34 595.12 875.46 1419.75 616.08 1691.82 604.91 1527.68 782.46 1434.36 914.04 1702.31 904.47
00002838 00000060 1287.77 313.91 591.81 843.11 1416.33 633.28 1684.01 622.62 1525.28 804.42 1434.57 919.36 1696.96 909.33
00002839 00000061 1278.37 347.07 601.16 815.52 1409.78 651.92 1678.71 647.68 1519.12 832.37 1429.18 935.16 1690.12 929.89
00002840 00000062 1278.09 364.77 593.79 835.07 1403.48 703.23 1666.55 698.84 1511.01 871.75 1419.04 968.12 1677.38 964.02
00002841 00000063 1274.33 363.02 593.76 845.03 1400.91 703.66 1662.24 696.07 1507.93 875.96 1419.07 972.87 1677.29 965.74
00002842 00000064 1269.40 361.16 610.24 841.08 1391.22 679.69 1668.70 677.76 1503.30 855.41 1411.62 969.75 1675.89 967.11
00002843 00000065 1266.27 351.69 607.71 820.25 1393.82 661.29 1665.51 668.63 1496.21 845.30 1401.39 934.50 1667.33 939.00
00002844 00000066 1267.95 344.15 604.51 798.51 1391.41 641.93 1665.80 648.10 1495.26 826.31 1396.08 914.17 1670.08 918.34
00002845 00000067 1267.40 317.13 604.32 810.39 1390.40 627.27 1664.62 628.67 1497.37 811.59 1395.55 909.63 1665.54 911.43
00002846 00000068 1270.10 317.46 595.82 811.61 1388.48 624.75 1656.58 621.68 1489.28 802.06 1390.89 910.22 1669.36 907.02
00002847 00000069 1261.68 323.02 609.22 815.80 1389.33 631.19 1660.74 630.46 1495.51 817.04 1398.51 917.57 1662.75 917.62
00002848 00000070 1256.22 335.52 613.86 816.90 1387.54 643.75 1662.93 649.13 1495.27 834.27 1397.13 929.64 1662.23 933.61
00002849 00000071 1251.65 339.37 618.02 828.75 1382.88 654.84 1659.85 659.86 1491.80 852.25 1394.15 937.97 1666.45 940.44
00002850 00000072 1249.26 347.07 619.35 823.39 1379.98 658.57 1656.30 661.98 1490.10 852.90 1397.88 946.35 1660.00 947.76
00002851 00000073 1251.90 352.71 617.82 823.03 1375.33 655.06 1657.48 650.47 1495.31 841.10 1396.02 959.84 1657.89 955.60
00002852 00000074 1249.85 366.05 615.52 802.61 1371.87 650.58 1655.72 646.18 1494.07 830.30 1392.37 952.49 1651.56 948.98
00002853 00000075 1241.44 323.90 613.16 840.81 1374.45 649.91 1648.31 648.55 1488.38 831.24 1385.06 938.81 1657.68 937.46
00002854 00000076 1236.46 318.92 615.20 842.73 1370.61 646.58 1645.71 644.77 1486.17 831.93 1377.83 932.02 1659.33 929.29
00002855 00000077 1235.73 320.70 614.63 842.07 1369.94 648.43 1645.11 647.26 1484.71 832.98 1377.28 932.26 1658.52 929.98
00002856 00000078 1234.72 326.56 613.03 839.73 1366.33 653.69 1642.14 653.08 1481.83 842.72 1377.23 936.27 1655.97 933.62
00002857 00000079 1234.21 332.27 611.55 839.03 1364.88 658.62 1640.73 657.17 1480.93 849.92 1378.70 939.83 1656.50 935.78
00002858 00000080 1235.74 337.24 610.89 836.18 1366.04 660.80 1640.08 658.20 1481.26 853.05 1382.10 945.01 1658.62 940.17
00002859 00000081 1236.85 344.11 611.14 826.16 1366.42 662.56 1641.34 660.26 1482.57 854.04 1382.51 945.04 1658.55 940.56
00002860 00000082 1238.98 343.62 611.95 826.57 1369.97 663.29 1643.62 660.84 1485.36 853.81 1387.62 945.93 1658.62 941.88
00002861 00000083 1241.65 338.56 615.42 829.33 1373.18 663.58 1648.19 660.88 1489.43 849.91 1388.81 944.71 1662.63 941.27
00002862 00000084 1243.66 345.45 617.35 818.90 1374.24 665.40 1653.18 661.37 1493.99 845.87 1387.42 944.74 1669.47 940.64
00002863 00000085 1249.90 357.73 617.62 811.99 1377.20 660.17 1664.21 654.51 1505.56 838.55 1385.06 950.09 1679.19 944.46
00002864 00000086 1249.32 337.56 612.99 831.72 1380.04 664.33 1658.60 658.05 1499.69 844.55 1393.05 943.10 1678.80 936.54
00002865 00000087 1246.12 348.93 624.25 817.50 1382.06 663.44 1665.99 662.64 1505.16 845.08 1395.45 939.19 1678.64 936.46
00002866 00000088 1254.15 362.76 619.66 810.06 1383.68 660.10 1671.55 655.07 1512.82 842.24 1391.61 948.39 1686.27 942.90
00002867 00000089 1254.67 365.76 620.71 822.71 1384.95 660.79 1673.02 653.02 1514.92 844.00 1401.54 954.94 1688.63 946.71
00002868 00000090 1258.52 374.04 619.59 837.41 1388.64 658.95 1674.34 649.53 1513.88 842.28 1411.35 961.30 1686.61 952.84
00002869 00000091 1262.81 370.25 617.32 843.06 1393.53 651.14 1679.07 641.73 1516.21 827.41 1415.90 960.74 1684.27 953.48
00002870 00000092 1267.71 363.89 612.27 822.35 1400.09 638.11 1683.08 630.11 1524.04 807.78 1420.10 950.24 1689.27 943.58
00002871 00000093 1273.06 307.30 601.75 837.05 1409.72 616.05 1688.35 608.97 1524.91 781.34 1423.54 920.01 1687.91 915.18
00002872 00000094 1274.81 294.14 606.65 827.44 1417.75 599.21 1696.82 591.73 1537.69 749.82 1435.26 899.91 1695.11 894.80
00002873 00000095 1285.70 300.99 602.98 820.01 1421.15 568.78 1709.66 558.21 1552.41 706.16 1439.99 883.51 1707.92 875.93
00002874 00000096 1293.31 305.50 599.58 808.88 1433.48 554.13 1721.37 543.03 1571.20 683.42 1459.45 868.59 1713.05 860.26
00002875 00000097 1295.88 306.06 602.48 798.80 1442.16 538.61 1730.43 526.75 1580.48 659.00 1471.97 857.91 1716.44 847.59
00002876 00000098 1294.06 290.24 604.53 797.12 1449.80 529.23 1732.32 515.43 1590.71 645.08 1474.44 842.59 1724.65 829.59
00002877 00000099 1296.30 275.36 605.95 791.55 1450.16 522.93 1736.29 514.12 1595.36 636.74 1468.45 827.42 1732.00 820.60
00002878 00000100 1296.29 284.72 599.77 755.05 1452.65 519.03 1735.53 513.97 1592.38 624.50 1458.39 812.00 1728.76 808.23
00002879 00000101 1295.90 281.53 601.47 746.10 1451.13 509.92 1733.73 502.15 1595.23 616.37 1458.75 801.55 1739.26 795.50
00002880 00000102 1293.96 278.01 602.07 741.36 1451.22 507.31 1733.55 499.50 1594.73 614.33 1459.84 797.22 1736.85 791.00
00002881 00000103 1291.26 274.64 602.51 741.34 1448.17 510.35 1730.96 502.66 1590.68 615.04 1457.77 798.68 1725.30 791.74
00002882 00000104 1288.72 270.31 605.54 748.65 1447.81 508.96 1730.05 497.63 1593.36 616.29 1467.50 797.38 1727.14 788.26
00002883 00000105 1288.92 273.82 601.26 746.83 1445.43 512.69 1728.79 502.08 1591.26 614.52 1465.61 802.92 1720.61 793.81
00002884 00000106 1285.76 272.39 604.61 757.42 1444.32 513.71 1728.57 501.89 1592.08 617.15 1473.85 808.33 1716.37 798.86
00002885 00000107 1283.94 280.24 603.94 760.67 1443.72 519.51 1727.86 503.86 1594.57 618.71 1479.48 814.84 1714.92 802.36
00002886 00000108 1281.31 280.94 607.40 774.81 1443.14 521.83 1727.26 506.87 1594.09 626.74 1477.39 823.85 1717.59 811.75
00002887 00000109 1279.36 283.16 609.82 784.78 1439.24 528.28 1727.03 512.45 1591.28 640.80 1475.94 837.22 1718.44 825.08
00002888 00000110 1270.89 284.49 619.27 800.91 1439.08 533.44 1725.23 513.78 1595.08 649.86 1482.28 848.48 1717.45 831.31
00002889 00000111 1267.74 285.24 622.71 798.31 1435.87 536.06 1725.34 517.64 1593.83 657.98 1478.79 851.38 1717.14 835.32
00002890 00000112 1267.26 276.26 621.54 757.85 1435.00 532.56 1722.10 517.97 1590.20 649.11 1455.96 826.52 1731.85 812.98
00002891 00000113 1264.26 270.80 621.75 752.02 1433.24 522.74 1719.22 508.38 1585.96 638.92 1450.42 809.54 1725.39 795.69
00002892 00000114 1262.57 265.42 617.59 745.44 1432.25 512.29 1719.33 499.30 1584.91 626.27 1440.73 800.08 1729.74 786.55
00002893 00000115 1258.56 242.08 621.57 761.25 1426.81 506.38 1715.50 492.53 1579.81 620.90 1439.46 792.24 1722.47 778.32
00002894 00000116 1258.55 247.20 618.90 759.69 1424.56 502.01 1715.94 488.76 1577.04 615.32 1440.69 789.63 1717.99 776.34
00002895 00000117 1259.71 245.15 617.38 763.80 1426.97 500.45 1717.47 487.46 1580.21 613.19 1449.17 791.93 1713.32 779.43
00002896 00000118 1261.42 241.97 620.09 771.54 1427.62 504.05 1718.77 490.14 1582.45 621.17 1457.98 796.58 1711.33 783.83
00002897 00000119 1266.97 256.72 618.19 762.83 1432.17 506.96 1721.36 496.82 1585.28 628.69 1463.16 803.98 1709.86 795.20
00002898 00000120 1264.46 246.15 627.10 786.78 1433.78 515.65 1723.46 507.23 1587.67 638.23 1467.23 815.21 1711.79 808.02
00002899 00000121 1269.21 258.24 628.14 781.21 1438.15 524.45 1729.13 518.80 1590.81 650.18 1469.31 827.87 1717.10 823.12
00002900 00000122 1274.36 257.32 629.93 789.74 1441.35 526.31 1737.67 524.09 1593.32 662.29 1472.93 837.73 1717.70 836.39
00002901 00000123 1278.48 263.52 631.08 802.89 1443.31 535.71 1742.68 527.81 1594.17 672.69 1483.90 859.99 1724.65 853.15
00002902 00000124 1277.32 241.43 634.77 852.06 1447.28 554.50 1737.87 548.59 1591.84 693.46 1485.31 877.85 1715.95 873.23
00002903 00000125 1270.33 252.77 640.56 887.18 1444.42 583.01 1734.09 571.20 1591.66 727.01 1486.66 917.22 1713.05 908.28
00002904 00000126 1274.82 347.07 642.62 849.78 1442.00 628.51 1744.12 621.27 1598.85 800.13 1467.28 965.54 1735.78 959.27
00002905 00000127 1267.91 333.75 643.72 899.09 1442.55 680.16 1736.10 670.43 1596.81 859.21 1462.00 987.58 1738.68 979.37
00002906 00000128 1277.79 350.27 641.25 880.58 1445.26 686.91 1746.13 677.16 1603.76 866.89 1464.08 989.77 1748.93 981.17
00002907 00000129 1277.52 330.00 654.03 878.27 1450.29 671.97 1752.45 662.45 1610.51 850.15 1465.95 969.02 1757.36 959.95
00002908 00000130 1274.91 308.82 659.61 871.66 1452.73 655.81 1752.95 642.58 1617.80 828.87 1463.33 950.80 1767.78 938.86
00002909 00000131 1274.54 307.04 663.05 864.32 1449.69 646.55 1751.26 629.88 1614.90 816.83 1461.25 943.12 1773.31 927.81
00002910 00000132 1275.32 304.63 665.83 862.70 1449.76 648.91 1752.59 629.29 1618.28 819.90 1463.68 944.09 1778.40 925.98
00002911 00000133 1280.37 319.06 661.78 853.13 1455.20 652.41 1757.87 636.17 1625.00 824.59 1466.97 946.69 1781.99 931.19
00002912 00000134 1286.84 316.70 659.88 858.84 1461.33 656.35 1765.09 642.74 1630.87 829.07 1471.92 950.28 1785.93 937.30
00002913 00000135 1287.75 306.77 658.63 872.10 1463.75 658.46 1769.42 645.05 1635.45 834.81 1473.63 953.45 1787.38 941.09
00002914 00000136 1287.69 311.76 657.42 868.21 1461.95 660.30 1766.93 647.14 1631.86 835.90 1473.10 953.19 1783.94 941.02
00002915 00000137 1285.99 302.91 655.48 883.79 1459.42 661.93 1765.54 647.74 1632.87 839.19 1467.29 955.68 1779.80 943.28
00002916 00000138 1286.37 320.76 655.99 865.84 1461.50 666.64 1767.52 650.52 1635.74 846.27 1473.92 955.25 1782.87 940.32
00002917 00000139 1293.45 329.51 650.61 854.94 1466.98 665.88 1772.25 650.73 1640.66 843.68 1479.86 955.61 1786.76 941.71
00002918 00000140 1296.10 312.19 646.53 878.19 1471.36 657.64 1772.73 650.33 1639.56 840.99 1482.12 952.76 1778.61 945.98
00002919 00000141 1297.22 298.23 640.92 897.10 1471.93 649.37 1772.20 643.79 1637.33 832.62 1488.04 961.06 1768.56 956.74
00002920 00000142 1300.50 305.74 635.09 876.42 1476.73 641.93 1771.00 638.34 1633.42 827.70 1483.75 964.09 1764.66 960.82
CROP_BBOX: 773 0 2381 1609
