Video ID: 	T4mJEWNmHeo
H: 	1080
W: 	1920
FPS: 	25.0

FRAME INDEX X0 Y0 W H [Landmarks (5 Points)]

00022987 00000000 686.86 182.06 377.23 529.28 788.19 391.23 962.62 404.51 867.96 466.63 794.09 578.85 935.82 590.41
00022988 00000001 688.60 182.02 376.35 525.52 795.97 387.52 965.49 406.73 877.09 463.43 798.21 568.36 931.05 584.89
00022989 00000002 689.86 179.64 374.72 524.52 796.86 385.65 963.42 404.41 876.85 460.53 800.56 566.04 929.17 582.30
00022990 00000003 689.38 179.31 374.82 525.03 796.19 385.54 963.65 405.56 875.86 462.68 798.20 566.96 927.30 584.28
00022991 00000004 690.70 180.18 374.62 526.01 791.11 388.65 964.49 402.58 867.70 474.64 796.73 579.83 932.27 591.91
00022992 DELETE   688.31 190.77 377.34 526.21 786.14 395.78 960.53 412.37 858.05 484.68 789.83 587.04 925.48 602.04
00022993 00000006 683.20 191.35 377.34 525.75 778.76 399.04 953.31 418.23 848.80 489.89 782.21 588.93 918.40 606.15
00022994 DELETE   680.94 183.87 368.58 525.20 773.23 390.95 946.54 412.70 842.37 481.36 774.28 576.64 914.66 595.68
00022995 00000008 682.66 171.18 360.55 531.40 770.33 385.06 940.23 405.02 839.61 476.80 774.99 571.42 914.56 588.26
00022996 00000009 682.21 171.44 358.97 534.00 771.38 384.39 939.70 401.62 842.61 472.37 775.77 571.40 915.02 586.28
00022997 00000010 681.23 169.91 360.03 541.49 771.54 386.01 941.31 400.50 845.22 473.05 779.09 576.26 918.22 588.93
00022998 00000011 680.15 170.13 361.50 538.93 769.74 386.95 941.46 402.73 844.51 477.26 778.16 575.75 920.05 589.16
00022999 00000012 679.36 173.94 361.54 534.13 767.76 388.16 937.36 404.48 839.35 477.04 774.16 574.74 913.85 588.99
00023000 00000013 677.86 175.59 361.60 529.69 764.55 387.10 932.29 403.05 833.07 475.19 770.35 574.35 906.38 588.73
00023001 00000014 677.35 172.64 358.46 528.99 761.70 382.90 928.51 398.57 827.62 467.70 766.38 570.25 902.82 584.43
00023002 00000015 675.73 172.72 359.38 519.72 759.09 376.26 926.66 388.67 825.45 453.97 763.54 559.74 899.46 571.49
00023003 DELETE   673.19 163.34 364.86 517.73 757.43 368.31 928.69 377.91 826.34 437.30 764.48 549.89 899.73 559.06
00023004 DELETE   669.06 152.70 366.98 514.14 756.84 361.86 926.18 364.62 829.52 421.65 769.47 538.31 905.14 542.22
00023005 00000018 669.09 150.00 363.02 498.42 757.06 356.09 924.66 361.11 825.31 413.43 770.47 522.83 906.93 528.12
00023006 00000019 667.09 147.14 364.31 497.02 755.26 354.30 922.42 356.08 825.83 409.61 771.50 520.25 907.02 522.80
00023007 00000020 665.61 147.36 365.99 498.87 752.92 355.20 921.07 355.42 825.12 411.71 771.74 522.40 907.63 523.64
00023008 00000021 664.40 149.11 366.29 500.96 751.35 357.22 920.15 357.90 823.34 413.46 769.32 524.86 906.07 526.52
00023009 00000022 666.51 148.09 364.96 499.11 753.13 355.02 921.99 357.78 823.53 410.59 768.75 521.69 906.41 525.13
00023010 00000023 668.70 146.36 363.33 493.95 755.89 352.12 924.02 355.23 825.12 406.28 770.11 516.86 908.10 520.54
00023011 00000024 670.13 142.22 362.08 492.60 757.80 347.75 923.49 349.83 826.19 398.76 771.60 511.14 908.48 514.24
00023012 00000025 670.78 141.70 360.74 492.88 758.33 346.27 924.02 347.56 827.07 396.61 771.88 509.77 908.93 512.42
00023013 00000026 670.88 140.86 360.35 494.74 758.64 346.46 923.65 347.84 827.42 397.33 772.61 510.44 909.25 513.12
00023014 00000027 671.85 140.29 360.66 497.86 758.77 347.04 925.59 349.68 828.12 400.67 772.17 512.18 910.96 515.75
00023015 00000028 671.27 141.23 362.54 500.19 759.92 348.63 925.85 353.23 829.25 405.77 772.45 514.94 909.06 520.03
00023016 00000029 670.95 144.61 362.80 505.77 760.75 351.93 927.61 357.99 829.59 411.92 770.42 520.32 907.87 526.66
00023017 00000030 671.49 146.34 359.43 516.40 762.59 358.89 928.90 367.23 831.19 418.66 770.47 528.71 906.27 536.90
00023018 DELETE   672.64 160.39 362.97 520.56 759.42 365.45 928.91 372.90 833.27 435.22 767.80 545.88 902.19 553.55
00023019 DELETE   674.25 173.45 361.24 527.94 764.99 379.94 927.91 388.93 840.16 463.88 776.94 565.51 908.52 574.03
00023020 DELETE   675.44 179.63 364.38 538.16 770.54 394.64 941.00 406.03 850.19 485.02 783.84 585.25 920.33 596.06
00023021 00000034 678.36 179.74 365.66 537.30 775.86 397.24 949.62 410.31 858.59 484.19 788.38 585.83 930.67 597.78
00023022 00000035 683.21 172.36 363.82 537.72 780.03 390.50 955.48 403.85 864.84 474.83 791.32 581.47 935.49 593.16
00023023 00000036 684.90 170.65 362.27 535.27 782.02 387.55 955.97 399.04 868.77 468.80 796.03 577.87 936.78 588.00
00023024 00000037 689.28 178.31 367.80 529.01 787.38 393.03 963.58 404.03 873.00 476.12 800.71 581.57 943.69 591.11
00023025 00000038 691.86 184.32 372.76 527.83 790.47 401.23 969.08 410.58 876.48 486.50 806.83 588.61 949.27 597.00
00023026 00000039 695.48 183.35 371.31 529.07 794.31 401.84 973.36 410.68 879.87 489.63 810.14 590.28 951.64 598.41
00023027 00000040 696.94 184.15 371.62 527.83 796.84 400.23 975.45 410.64 881.61 490.68 811.53 588.34 951.98 597.95
00023028 00000041 696.77 190.32 373.74 527.76 803.00 401.63 981.18 419.81 886.08 489.42 813.43 582.90 951.68 597.83
00023029 00000042 698.08 193.70 374.58 528.38 804.66 406.75 981.30 423.44 886.94 495.99 815.38 587.79 953.22 601.72
00023030 DELETE   700.09 195.01 373.34 534.51 805.72 412.98 982.86 429.05 889.28 507.71 817.15 596.03 955.16 610.02
00023031 00000044 704.21 196.50 370.55 536.83 810.16 416.53 984.17 431.94 894.30 515.73 823.54 602.00 957.03 615.72
00023032 00000045 708.69 197.73 368.11 536.73 815.03 418.10 987.69 433.25 899.08 518.15 829.71 605.44 960.13 619.08
00023033 00000046 712.25 199.98 365.78 534.99 818.08 417.41 991.07 432.74 903.21 517.45 832.68 606.22 963.57 620.14
00023034 00000047 716.63 202.23 365.71 531.23 819.86 419.18 993.12 434.80 903.73 521.09 833.68 604.96 965.81 619.28
00023035 00000048 716.36 207.89 368.18 533.70 818.61 425.11 994.75 437.36 904.00 529.95 833.11 612.73 970.34 624.19
00023036 DELETE   713.61 216.72 375.79 541.90 819.15 437.48 996.82 448.27 904.38 548.64 831.54 626.89 971.92 637.07
00023037 DELETE   720.19 244.45 368.81 532.14 823.05 454.82 993.06 466.60 907.15 568.90 835.25 649.34 967.10 659.23
00023038 00000051 721.19 259.70 369.18 525.82 825.05 466.60 998.06 478.33 910.37 584.22 842.10 662.18 971.45 672.51
00023039 00000052 724.16 260.36 360.62 526.62 827.25 468.42 999.52 482.82 912.49 588.13 840.23 661.98 971.44 675.09
00023040 00000053 727.77 258.65 355.88 526.99 828.65 467.45 1000.91 483.60 912.57 588.22 839.20 657.93 973.73 672.43
00023041 00000054 730.25 257.20 354.02 525.64 829.35 465.90 1001.21 483.05 911.62 583.96 837.52 653.96 974.79 669.24
00023042 00000055 731.65 255.46 355.11 525.62 830.40 464.70 1002.10 479.43 913.80 579.44 839.91 653.03 977.55 666.09
00023043 00000056 732.40 251.42 356.99 529.79 832.14 462.48 1003.60 477.85 915.30 576.30 841.55 652.57 977.66 665.97
00023044 00000057 732.38 246.49 360.26 536.22 833.60 460.51 1004.91 476.38 917.36 574.88 843.09 652.80 977.51 666.42
00023045 00000058 732.70 243.22 360.93 540.45 833.36 457.46 1005.89 474.31 916.45 572.26 841.49 650.78 978.86 664.99
00023046 00000059 732.66 241.21 360.38 544.65 833.91 456.90 1004.72 473.80 915.88 568.64 838.72 651.84 976.68 666.35
00023047 00000060 732.63 238.67 359.42 550.42 834.71 454.23 1006.81 471.86 917.05 562.33 835.26 649.75 978.37 665.05
00023048 00000061 733.07 234.57 360.11 554.89 836.11 452.21 1009.68 468.66 921.62 560.24 836.13 647.93 983.92 662.02
00023049 00000062 732.84 233.89 360.89 555.82 838.67 450.37 1011.75 466.25 925.91 557.81 837.56 644.02 988.86 657.53
00023050 00000063 732.09 232.55 363.92 554.90 841.51 446.69 1013.00 464.14 928.99 554.11 839.01 638.87 990.72 653.54
00023051 00000064 732.84 232.92 364.97 552.47 843.35 446.48 1014.02 463.92 931.28 552.50 840.77 635.75 993.18 650.37
00023052 00000065 734.15 230.55 366.70 553.18 847.91 444.83 1017.22 463.20 938.13 550.00 844.77 631.93 997.23 647.15
00023053 00000066 736.98 230.74 369.00 548.78 852.78 443.07 1022.77 462.89 945.56 546.39 849.64 630.37 1000.94 646.55
00023054 00000067 740.08 229.68 371.21 543.36 858.00 439.42 1027.91 461.26 953.28 545.54 858.08 629.25 1001.33 647.10
00023055 00000068 744.72 229.03 368.62 534.82 863.26 442.60 1031.72 464.16 958.94 547.55 862.12 624.85 1006.55 643.06
00023056 DELETE   750.20 233.44 367.71 529.53 868.76 448.17 1037.19 468.97 962.47 549.80 866.16 626.16 1010.99 644.78
00023057 DELETE   751.43 238.70 368.94 523.84 867.88 450.15 1038.80 470.86 960.99 553.18 866.26 629.30 1011.49 647.60
00023058 DELETE   749.85 240.19 371.66 527.66 865.61 450.50 1039.11 471.84 958.40 556.84 864.27 633.34 1010.40 651.72
00023059 00000072 747.71 241.07 372.58 526.81 864.32 448.11 1037.91 471.80 955.93 559.28 861.46 635.62 1003.16 656.02
00023060 00000073 746.59 240.93 372.85 528.28 861.84 447.81 1036.10 472.95 952.22 563.90 856.51 637.37 998.53 659.20
00023061 00000074 744.05 241.79 373.23 529.43 859.42 449.21 1031.62 474.92 948.28 565.45 853.23 637.19 996.00 659.49
00023062 00000075 742.45 242.58 371.79 531.66 855.40 452.37 1029.40 478.56 943.45 564.49 846.12 636.14 997.18 658.89
00023063 00000076 741.99 243.48 371.26 534.55 853.14 455.30 1027.58 480.88 939.11 567.89 843.26 637.73 996.65 660.11
00023064 00000077 741.02 249.45 371.88 529.96 852.10 459.10 1028.83 482.94 938.26 572.41 841.73 639.33 999.40 660.70
00023065 00000078 741.34 253.60 372.11 527.03 856.02 459.07 1030.54 483.81 941.92 574.54 842.53 636.97 1001.76 659.53
00023066 00000079 744.76 252.85 371.60 525.43 859.18 458.99 1034.21 483.85 946.48 574.86 846.56 636.22 1006.79 658.97
00023067 00000080 748.05 254.09 371.91 522.71 861.65 459.21 1036.26 484.05 948.84 574.72 850.37 637.40 1008.01 660.18
00023068 00000081 748.80 253.49 374.37 522.72 862.14 459.02 1036.74 483.34 949.15 574.69 853.64 642.33 1004.38 664.42
00023069 00000082 748.13 252.91 376.58 522.38 861.01 457.95 1035.74 482.10 946.90 573.27 856.04 645.94 999.86 667.57
00023070 00000083 746.56 251.51 376.00 522.87 857.92 457.59 1033.36 481.27 943.52 573.40 853.78 646.98 996.75 668.03
00023071 00000084 745.66 250.19 374.11 524.69 855.27 457.93 1029.98 481.39 940.20 573.07 852.35 647.63 993.66 668.25
00023072 00000085 744.87 249.91 374.28 525.11 855.39 457.94 1028.42 481.17 940.37 572.95 853.83 648.67 990.99 668.99
00023073 00000086 745.94 248.47 373.75 526.37 855.56 457.69 1029.50 480.53 941.08 573.76 855.12 649.67 992.13 669.54
00023074 00000087 746.60 248.12 373.40 525.50 856.66 457.13 1030.72 479.56 943.05 574.39 857.84 650.56 992.83 670.03
00023075 00000088 746.87 248.24 374.60 525.06 857.94 457.13 1032.08 479.90 944.54 574.26 858.70 650.11 994.13 669.89
00023076 00000089 747.04 248.02 375.17 526.05 858.65 457.22 1032.52 479.98 945.18 574.63 858.33 649.44 995.45 669.33
00023077 00000090 746.49 248.18 375.60 526.83 858.96 456.33 1032.76 479.94 944.53 573.28 857.26 649.38 994.56 669.99
00023078 00000091 746.17 248.50 375.92 528.00 859.65 456.03 1033.44 480.29 944.77 571.90 856.33 647.51 996.14 668.77
00023079 00000092 746.63 249.25 375.44 526.51 861.23 455.44 1034.46 481.50 946.59 568.93 854.93 644.03 997.41 666.86
00023080 00000093 745.01 247.38 377.35 528.11 861.19 454.74 1033.49 481.78 946.75 568.24 851.86 640.15 997.33 663.81
00023081 00000094 744.92 248.02 377.81 526.76 862.80 452.76 1035.70 481.90 948.33 567.27 851.37 637.01 998.22 662.36
00023082 00000095 747.50 251.47 378.25 522.38 869.45 450.70 1042.80 478.35 958.22 564.45 856.60 635.69 1004.19 660.18
00023083 DELETE   755.85 247.02 380.95 526.50 881.63 450.18 1058.64 473.53 979.86 563.95 873.40 636.02 1025.12 656.78
00023084 DELETE   758.81 246.72 384.26 533.16 903.88 445.25 1070.87 471.20 1001.17 556.16 886.58 634.10 1028.56 656.06
00023085 00000098 762.55 243.88 381.67 528.42 913.43 443.99 1077.61 467.77 1011.67 552.44 899.56 632.22 1034.84 651.98
00023086 00000099 762.14 240.02 382.02 527.30 910.37 439.30 1074.41 460.67 1008.27 549.70 898.67 630.57 1028.38 648.39
00023087 00000100 759.97 234.59 381.85 532.52 900.32 435.75 1067.50 459.12 998.35 548.66 889.16 628.26 1022.56 647.90
00023088 00000101 758.93 234.27 378.27 525.76 891.02 434.02 1064.76 459.19 992.32 545.48 884.55 627.37 1023.61 649.80
00023089 00000102 756.07 229.50 379.25 531.39 886.39 431.83 1062.35 457.65 988.30 545.81 880.27 628.57 1018.98 651.11
00023090 00000103 755.99 228.56 377.06 531.30 885.68 433.24 1061.68 459.05 988.36 548.03 880.89 628.32 1020.75 650.77
00023091 00000104 758.68 233.14 374.16 527.71 891.39 437.74 1065.87 462.70 995.27 551.54 886.56 630.64 1026.58 652.77
00023092 00000105 760.40 236.10 374.25 526.72 894.74 438.39 1069.29 462.71 999.30 553.55 889.90 632.48 1030.11 654.08
00023093 DELETE   759.73 236.06 374.72 527.97 893.52 438.71 1066.56 461.91 997.56 552.54 888.77 632.42 1028.88 653.13
00023094 00000107 757.13 232.29 375.27 530.55 889.50 437.42 1061.93 460.90 992.83 549.67 884.58 630.96 1023.52 651.71
00023095 00000108 755.19 231.36 375.40 528.34 885.04 434.41 1059.30 459.48 988.34 548.05 881.14 629.34 1018.67 651.21
00023096 00000109 754.90 230.88 373.95 526.67 883.73 434.17 1058.42 459.09 988.04 548.09 881.27 629.20 1018.01 650.92
00023097 00000110 755.63 231.49 375.00 526.33 885.41 435.84 1061.37 460.01 990.91 549.21 884.03 630.91 1021.62 651.97
00023098 00000111 756.04 237.32 375.35 525.67 887.85 438.52 1062.47 462.18 992.61 550.31 885.72 634.21 1023.07 654.87
00023099 00000112 752.73 236.20 379.00 536.07 885.56 439.97 1056.50 462.06 987.94 553.19 882.30 638.02 1018.52 657.23
00023100 00000113 748.05 232.95 379.82 541.04 876.49 439.81 1050.63 461.47 977.83 554.71 872.66 638.79 1013.12 657.52
00023101 00000114 743.55 235.48 379.12 543.21 868.65 440.15 1042.52 462.11 965.90 556.98 862.93 640.84 1003.88 659.79
00023102 00000115 740.31 240.01 378.01 546.27 869.73 444.24 1041.20 466.04 966.76 560.68 864.09 643.79 1004.52 662.67
00023103 DELETE   745.67 243.89 377.18 541.82 874.54 454.69 1048.64 473.34 977.11 572.11 876.36 652.56 1012.63 668.95
00023104 DELETE   748.11 255.59 376.97 537.66 878.16 465.79 1052.05 478.55 986.25 583.70 884.67 661.17 1024.48 672.93
00023105 00000118 742.54 261.86 381.10 533.91 875.33 472.29 1049.06 486.53 980.94 591.18 880.47 664.61 1018.76 678.02
00023106 00000119 739.26 261.65 379.58 530.57 869.33 472.01 1041.15 487.18 970.47 590.57 872.80 663.07 1008.63 677.49
00023107 00000120 739.63 256.09 377.94 532.86 867.31 468.84 1040.20 484.34 968.47 584.28 874.17 662.00 1008.24 676.29
00023108 00000121 745.06 254.89 380.82 539.48 873.03 471.95 1045.47 485.55 976.69 590.42 884.77 669.68 1014.79 682.13
00023109 DELETE   752.57 273.85 376.72 530.59 879.44 482.89 1053.17 494.44 984.68 604.18 890.79 681.58 1022.05 692.29
00023110 00000123 753.87 285.58 373.19 520.62 875.81 488.58 1052.87 499.87 984.31 614.69 881.56 684.99 1017.66 696.21
00023111 00000124 753.08 286.71 371.89 522.66 876.90 489.44 1052.45 502.25 979.87 612.83 886.73 687.26 1016.86 699.20
00023112 00000125 753.57 283.58 372.31 523.39 876.27 487.06 1052.99 500.12 978.69 610.25 886.68 684.81 1018.57 697.04
00023113 00000126 753.11 275.32 378.14 533.29 885.51 483.97 1058.88 498.88 983.94 607.80 886.44 680.52 1020.19 694.73
00023114 00000127 755.67 277.72 378.77 532.81 890.91 484.98 1061.74 498.40 989.68 610.78 892.35 682.64 1023.07 695.60
00023115 00000128 755.99 278.99 378.59 535.01 889.37 485.28 1059.74 501.24 986.54 609.74 887.02 681.37 1020.75 696.53
00023116 DELETE   754.62 274.45 377.91 535.90 882.30 481.06 1056.25 498.20 978.53 603.82 877.63 676.88 1019.11 692.95
00023117 00000130 754.01 268.96 378.01 530.07 875.37 474.81 1050.74 493.06 973.24 588.17 877.11 664.54 1022.00 681.32
00023118 DELETE   755.86 254.47 374.75 537.00 877.65 464.13 1052.39 480.66 978.59 574.78 877.88 652.72 1027.87 667.99
00023119 00000132 758.96 243.98 376.66 543.80 880.61 461.07 1058.67 475.32 985.63 571.29 881.63 649.66 1036.30 662.81
00023120 00000133 761.60 242.49 375.07 542.59 884.52 459.10 1060.74 473.03 988.95 570.42 888.83 651.33 1035.05 663.99
00023121 00000134 761.51 251.49 376.95 537.07 884.25 462.30 1056.29 476.97 985.67 575.11 891.41 654.82 1029.88 667.80
00023122 00000135 757.64 260.22 378.24 531.85 878.79 469.77 1051.46 484.37 978.49 583.23 887.34 661.10 1025.20 674.13
00023123 00000136 755.21 261.23 378.24 531.18 877.42 470.21 1049.70 485.95 976.41 585.22 885.88 663.66 1021.02 677.72
00023124 00000137 757.34 255.00 373.08 532.82 878.52 465.48 1049.60 480.52 977.70 579.85 886.74 658.56 1022.13 672.18
00023125 00000138 758.53 248.39 372.66 535.25 878.80 461.06 1050.96 475.63 978.75 576.73 887.23 655.66 1023.24 668.63
00023126 00000139 756.99 248.52 373.47 537.59 877.12 464.01 1049.37 477.02 976.83 579.56 886.94 658.41 1023.32 670.11
00023127 00000140 756.04 254.12 374.19 538.69 875.65 471.43 1048.80 484.80 976.10 585.77 884.09 662.46 1025.25 674.77
00023128 00000141 756.95 260.72 375.55 538.11 876.38 475.32 1051.43 488.32 977.27 590.97 885.72 668.07 1027.02 680.05
00023129 00000142 757.81 261.50 374.69 535.25 876.79 475.08 1050.84 488.60 976.81 587.95 882.95 662.66 1028.13 675.36
00023130 00000143 756.30 258.55 375.62 535.17 875.71 471.78 1049.91 485.33 975.92 583.32 879.12 657.16 1028.38 670.13
00023131 00000144 755.44 257.62 375.75 535.77 875.90 470.49 1050.24 483.67 976.17 583.94 876.98 654.80 1029.71 667.63
00023132 00000145 758.07 259.93 374.17 536.45 879.58 473.18 1051.51 487.46 979.02 589.26 879.00 655.11 1031.53 668.93
00023133 00000146 759.86 259.04 371.78 538.61 886.01 470.78 1058.44 488.20 981.62 589.34 880.48 654.96 1031.14 670.71
00023134 00000147 760.35 260.03 373.20 535.83 890.13 467.15 1063.47 483.43 987.81 586.13 884.11 651.20 1036.23 666.20
00023135 00000148 761.43 256.05 375.78 538.19 891.09 461.82 1064.67 481.51 989.43 574.89 882.97 644.49 1038.87 661.92
00023136 00000149 764.06 252.32 375.64 541.14 894.03 457.40 1067.26 478.80 992.66 568.72 885.79 639.93 1043.30 658.45
00023137 00000150 771.99 250.54 374.55 543.98 906.72 458.32 1078.57 477.05 1007.09 568.15 899.13 640.06 1054.78 656.39
00023138 DELETE   786.28 255.93 375.88 541.67 922.06 468.68 1093.62 484.06 1023.83 582.03 916.09 647.57 1068.87 661.77
00023139 DELETE   796.04 268.42 377.74 532.07 935.82 478.85 1104.95 494.72 1038.31 590.91 933.33 659.88 1076.40 674.84
00023140 00000153 798.64 269.31 379.34 534.40 936.39 481.43 1107.56 492.80 1042.86 593.23 942.52 670.17 1078.87 681.03
00023141 00000154 799.12 265.32 377.47 535.53 936.73 477.95 1106.12 488.69 1042.79 589.61 945.35 669.55 1076.97 679.91
00023142 00000155 799.30 255.64 376.04 540.84 937.22 471.83 1106.12 482.43 1044.05 581.23 948.93 665.77 1078.37 675.56
00023143 00000156 801.00 252.36 374.15 541.70 939.37 466.25 1106.53 477.42 1045.80 575.99 951.79 663.46 1077.50 673.53
00023144 00000157 802.71 252.02 374.47 542.81 942.88 466.47 1110.00 477.84 1050.83 575.97 956.12 665.10 1080.09 675.34
00023145 00000158 803.56 257.47 377.74 543.75 942.22 474.06 1113.35 482.49 1052.86 584.45 957.63 673.58 1086.00 681.69
00023146 00000159 804.09 266.75 378.18 535.45 941.24 477.05 1116.03 486.39 1052.38 589.39 956.88 677.14 1086.07 686.18
00023147 DELETE   803.27 263.02 376.72 533.88 939.90 475.39 1116.14 485.04 1052.18 586.08 955.90 673.64 1086.17 682.81
00023148 DELETE   803.90 258.09 370.68 531.81 943.09 479.07 1108.80 490.14 1048.91 577.63 953.51 663.67 1081.16 673.95
00023149 DELETE   802.77 254.50 369.67 532.14 942.98 471.62 1109.37 482.76 1050.39 572.85 951.22 657.39 1080.47 667.68
00023150 00000163 803.01 254.16 367.42 535.35 944.97 469.88 1110.02 478.50 1053.94 578.07 954.81 660.62 1079.64 668.98
00023151 DELETE   804.19 264.35 372.48 528.03 945.88 477.13 1116.59 485.44 1056.36 588.79 958.10 670.01 1085.18 678.26
00023152 00000165 806.79 270.59 374.96 530.03 948.77 479.11 1120.52 490.45 1059.48 594.61 959.61 673.97 1089.94 684.72
00023153 00000166 807.82 268.69 376.20 528.87 952.13 474.20 1121.25 485.70 1061.96 588.81 961.04 669.37 1090.33 680.61
00023154 00000167 807.20 257.12 376.77 537.28 952.69 467.02 1120.22 477.74 1063.64 580.64 959.14 661.05 1093.22 671.62
00023155 00000168 806.14 250.20 377.41 540.83 951.79 464.90 1120.11 476.56 1063.18 576.23 956.72 657.78 1092.67 668.81
