Video ID: 	QNpPWJpdhSA
H: 	1080
W: 	1920
FPS: 	23.976023976023978

FRAME INDEX X0 Y0 W H [Landmarks (5 Points)]

00001059 00000000 509.15 47.89 253.03 344.28
00001060 DELETE   507.03 47.65 253.13 344.52
00001061 DELETE   504.59 47.42 253.21 344.78
00001062 00000003 502.14 47.19 253.29 345.05
00001063 00000004 499.70 46.95 253.37 345.32
00001064 00000005 497.28 46.83 253.42 345.60
00001065 00000006 901.14 143.44 362.57 534.99 961.86 333.95 1139.13 342.86 1002.53 420.47 947.30 523.46 1100.76 534.13
00001066 00000007 898.37 142.62 365.74 538.13 959.85 337.67 1131.54 343.02 995.77 425.73 948.72 528.31 1097.12 535.99
00001067 00000008 896.81 136.22 370.42 546.02 956.65 339.54 1128.47 343.32 991.32 427.87 948.24 530.61 1095.65 536.88
00001068 00000009 896.68 135.58 369.36 548.60 953.96 341.11 1126.04 342.38 988.21 427.75 948.10 534.34 1094.50 538.50
00001069 00000010 486.43 50.29 252.63 347.70
00001070 00000011 485.60 51.00 252.66 348.09
00001071 00000012 484.76 51.71 252.69 348.48
00001072 00000013 483.93 52.42 252.72 348.88
00001073 00000014 483.10 53.13 252.75 349.27
00001074 00000015 482.98 53.80 252.76 349.30
00001075 00000016 483.50 54.44 252.74 348.99
00001076 00000017 484.02 55.09 252.72 348.68
00001077 00000018 484.53 55.73 252.70 348.37
00001078 00000019 485.05 56.37 252.67 348.07
00001079 00000020 485.94 56.03 252.69 347.98
00001080 00000021 486.96 55.34 252.73 347.98
00001081 00000022 487.98 54.65 252.76 347.98
00001082 00000023 488.99 53.96 252.80 347.98
00001083 00000024 490.01 53.26 252.83 347.98
00001084 00000025 490.24 53.74 252.97 347.97
00001085 00000026 490.41 54.29 253.11 347.95
00001086 00000027 490.59 54.85 253.25 347.94
00001087 DELETE   490.76 55.40 253.39 347.93
00001088 00000029 490.93 56.11 253.52 347.94
00001089 00000030 491.07 57.77 253.61 348.12
00001090 00000031 491.20 59.43 253.69 348.31
00001091 00000032 920.61 161.20 357.55 545.95 993.25 350.77 1171.39 378.83 1035.42 448.40 966.69 545.42 1124.03 572.87
00001092 00000033 917.04 159.49 359.27 546.33 989.76 351.59 1165.72 380.94 1030.14 451.27 962.10 543.75 1118.25 571.97
00001093 00000034 915.77 163.78 354.97 540.79 986.96 354.49 1160.40 383.35 1023.90 454.56 960.10 544.34 1111.64 571.68
00001094 00000035 911.20 161.08 357.10 541.67 981.45 357.33 1157.53 385.19 1018.32 457.10 957.11 548.46 1104.52 574.44
00001095 00000036 908.20 162.44 352.55 540.15 976.70 359.44 1151.14 385.77 1011.14 459.60 955.61 553.94 1094.46 578.97
00001096 00000037 487.14 67.64 252.83 348.48
00001097 00000038 485.82 68.78 252.51 348.39
00001098 00000039 484.18 68.55 252.26 348.26
00001099 00000040 891.79 149.42 351.94 538.51 958.04 345.01 1134.30 371.86 996.70 440.60 934.97 532.56 1094.43 558.40
00001100 00000041 886.02 141.87 357.57 542.24 952.03 342.08 1131.76 367.13 994.17 435.12 932.67 531.06 1094.38 554.84
00001101 00000042 478.47 64.53 251.69 347.79
00001102 00000043 476.56 63.20 251.50 347.63
00001103 DELETE   474.10 61.37 251.52 347.28
00001104 DELETE   471.46 59.39 251.60 346.88
00001105 DELETE   468.82 57.41 251.68 346.47
00001106 00000047 466.18 55.43 251.76 346.06
00001107 00000048 854.48 113.55 349.93 541.73 891.19 310.56 1066.89 298.81 935.14 381.72 904.03 524.42 1036.98 516.87
00001108 00000049 846.57 111.74 346.04 537.15 890.24 308.01 1069.64 290.67 949.64 374.40 915.78 519.93 1050.31 507.52
00001109 00000050 844.40 115.03 350.18 528.76 891.61 299.68 1071.12 278.80 961.10 363.21 924.40 509.32 1065.79 493.43
00001110 00000051 837.34 108.33 356.87 530.65 897.35 309.29 1069.48 272.91 959.61 351.87 922.81 504.04 1069.10 478.22
00001111 00000052 830.30 111.88 357.32 517.70 886.54 297.38 1061.90 272.29 962.41 338.17 921.60 492.13 1066.62 472.38
00001112 00000053 829.90 108.23 357.94 518.00 887.17 298.03 1063.53 273.30 959.86 340.88 919.04 488.90 1065.43 469.44
00001113 00000054 835.18 111.36 354.77 516.51 892.03 299.71 1068.18 277.46 962.85 352.28 921.20 491.50 1065.82 474.47
00001114 00000055 842.14 106.66 354.97 527.71 898.16 308.92 1070.50 278.33 958.11 365.46 919.79 497.84 1068.43 475.35
00001115 00000056 843.33 115.07 354.49 522.40 894.21 302.72 1076.74 280.40 962.15 366.08 923.68 501.21 1071.54 483.97
00001116 00000057 846.86 113.87 350.72 524.80 894.10 304.19 1077.43 280.46 959.79 364.35 924.47 503.40 1072.00 484.79
00001117 00000058 445.04 37.37 252.22 344.58
00001118 00000059 446.05 37.31 252.31 344.64
00001119 00000060 447.06 37.25 252.40 344.69
00001120 00000061 858.00 114.74 351.59 528.65 897.68 308.79 1082.21 280.57 955.49 369.97 924.33 512.63 1077.87 490.42
00001121 00000062 861.37 118.07 358.67 530.95 901.74 317.16 1080.00 284.28 952.16 372.81 930.45 521.33 1074.97 495.43
00001122 00000063 861.58 121.36 361.44 540.65 904.23 323.53 1078.49 285.09 951.66 373.53 938.89 533.02 1070.49 501.90
00001123 00000064 860.40 123.21 366.92 551.27 904.99 328.73 1078.12 288.80 952.50 381.59 943.84 542.51 1072.54 509.60
00001124 00000065 860.96 133.01 366.49 550.30 902.33 334.13 1076.69 296.13 951.43 392.53 942.37 551.31 1073.97 519.86
00001125 00000066 861.04 132.88 369.47 552.72 901.88 341.46 1078.25 305.66 951.37 402.99 939.01 556.24 1074.57 526.39
00001126 00000067 859.09 146.44 373.29 542.53 899.12 350.91 1077.49 318.19 950.95 412.87 934.70 562.06 1074.66 534.40
00001127 00000068 857.77 149.27 371.69 540.25 894.50 351.58 1075.99 330.12 942.93 424.52 922.78 556.22 1064.40 537.73
00001128 00000069 455.60 50.60 252.95 345.94
00001129 00000070 456.21 53.13 252.86 345.34
00001130 DELETE   456.82 55.65 252.77 344.75
00001131 DELETE   457.42 58.17 252.67 344.15
00001132 00000073 459.47 58.34 252.35 344.13
00001133 DELETE   461.53 58.48 252.03 344.11
00001134 DELETE   463.59 58.62 251.70 344.10
00001135 00000076 465.65 58.75 251.38 344.08
00001136 00000077 467.69 58.72 251.13 344.14
00001137 00000078 469.60 57.94 251.21 344.49
00001138 00000079 471.52 57.16 251.28 344.84
00001139 00000080 473.44 56.38 251.36 345.20
00001140 00000081 475.36 55.60 251.44 345.55
00001141 00000082 476.85 55.10 251.49 345.89
00001142 00000083 477.69 55.05 251.51 346.23
00001143 00000084 478.53 55.00 251.53 346.56
00001144 00000085 479.36 54.95 251.55 346.89
00001145 00000086 480.20 54.89 251.58 347.22
00001146 00000087 479.77 54.68 251.38 347.31
00001147 00000088 478.50 54.36 251.04 347.24
00001148 00000089 477.23 54.04 250.71 347.17
00001149 00000090 475.95 53.72 250.37 347.10
00001150 00000091 474.68 53.40 250.03 347.02
00001151 00000092 473.37 54.06 249.62 346.91
00001152 00000093 472.04 54.97 249.18 346.79
00001153 00000094 470.72 55.88 248.75 346.66
00001154 00000095 469.39 56.78 248.32 346.54
00001155 00000096 468.08 57.68 247.89 346.41
00001156 00000097 467.39 57.61 247.81 346.08
00001157 00000098 466.71 57.54 247.73 345.75
00001158 00000099 466.03 57.46 247.65 345.42
00001159 00000100 465.34 57.39 247.58 345.09
00001160 00000101 464.94 57.39 247.41 344.81
00001161 00000102 465.58 57.61 246.92 344.69
00001162 00000103 466.22 57.84 246.43 344.57
00001163 00000104 886.64 147.21 350.06 553.52 932.63 350.26 1105.52 341.43 973.80 418.64 943.17 555.69 1081.04 547.66
00001164 00000105 467.49 58.29 245.44 344.33
00001165 00000106 468.26 58.39 245.13 344.37
00001166 00000107 469.24 58.31 245.05 344.62
00001167 00000108 470.22 58.23 244.98 344.88
00001168 00000109 471.19 58.15 244.90 345.13
00001169 00000110 472.17 58.08 244.83 345.39
00001170 00000111 472.75 58.02 244.73 345.43
00001171 00000112 473.10 57.97 244.62 345.34
00001172 00000113 473.46 57.92 244.51 345.26
00001173 00000114 473.81 57.88 244.40 345.17
00001174 00000115 474.16 57.83 244.28 345.08
00001175 00000116 474.18 58.36 244.16 344.82
00001176 00000117 474.13 59.01 244.04 344.52
00001177 00000118 474.08 59.65 243.92 344.22
00001178 00000119 474.03 60.30 243.80 343.92
00001179 00000120 879.94 168.69 353.37 520.41 930.51 359.16 1100.24 346.74 984.09 429.85 944.10 533.78 1099.57 528.10
00001180 00000121 473.02 61.73 243.66 342.89
00001181 00000122 472.08 62.51 243.65 342.16
00001182 00000123 471.14 63.29 243.63 341.44
00001183 00000124 470.21 64.07 243.61 340.71
CROP_BBOX: 622 0 1519 868
