Video ID: 	VqFDkWY737A
H: 	1080
W: 	1920
FPS: 	25.0

FRAME INDEX X0 Y0 W H [Landmarks (5 Points)]

00040261 00000000 779.48 267.71 431.12 651.62 878.74 535.12 1069.57 600.07 911.34 704.27 843.27 746.75 1005.34 798.39
00040262 DELETE   793.09 260.36 422.15 669.26 885.34 526.48 1079.18 600.94 914.80 704.67 847.66 747.98 1012.47 808.53
00040263 DELETE   795.03 262.14 421.77 674.46 890.65 524.93 1085.25 600.49 922.18 703.42 850.45 748.38 1017.79 809.91
00040264 00000003 790.45 262.35 421.57 669.87 893.80 529.77 1085.85 600.64 927.57 708.71 854.44 739.65 1020.53 797.19
00040265 00000004 791.82 264.29 423.40 668.69 896.41 528.85 1089.43 601.80 930.36 711.10 857.17 737.59 1025.25 796.76
00040266 00000005 798.51 256.66 417.87 673.25 909.77 524.73 1098.55 595.19 949.84 704.25 868.39 742.52 1020.14 800.34
00040267 00000006 798.34 259.56 420.04 672.01 909.95 525.64 1099.70 595.96 949.75 704.88 868.63 743.35 1022.10 801.01
00040268 00000007 798.58 259.01 421.96 673.46 910.97 525.67 1101.14 597.65 950.11 704.43 868.12 741.37 1023.95 800.30
00040269 00000008 799.48 261.68 420.33 671.65 910.86 526.98 1100.53 598.19 949.59 704.91 868.85 741.43 1025.28 799.79
00040270 00000009 800.17 260.78 419.81 672.47 911.93 527.82 1101.32 599.49 950.00 705.53 869.12 742.52 1024.02 801.26
00040271 00000010 800.40 258.85 418.89 676.79 912.71 528.13 1101.66 599.64 951.09 704.73 868.39 743.53 1022.64 802.26
00040272 00000011 801.77 260.64 417.80 674.54 913.62 526.78 1100.91 598.52 951.31 703.37 869.74 742.82 1020.63 802.00
00040273 00000012 799.87 258.77 419.22 676.13 913.34 525.55 1100.15 597.86 950.24 702.02 867.24 743.95 1016.39 803.65
00040274 00000013 799.00 254.59 417.92 670.65 909.45 524.71 1097.84 593.03 947.73 698.09 866.08 743.44 1015.02 799.57
00040275 00000014 799.57 254.43 417.46 671.36 908.91 524.36 1097.25 591.70 947.06 696.97 866.13 744.36 1015.61 799.67
00040276 00000015 800.56 256.89 417.83 675.27 911.34 524.56 1099.41 593.63 948.99 699.60 867.72 744.64 1018.43 801.35
00040277 00000016 801.64 261.90 417.81 672.37 913.18 525.05 1099.88 594.67 950.53 700.47 869.40 744.40 1017.67 801.94
00040278 00000017 802.84 263.23 416.77 672.77 913.77 525.27 1100.23 595.69 950.41 700.93 869.16 745.70 1017.56 803.96
00040279 00000018 803.92 261.32 414.54 675.38 914.00 528.47 1100.17 595.81 952.45 700.58 871.44 748.20 1020.35 803.83
00040280 00000019 806.45 250.68 409.16 681.46 913.79 531.46 1097.39 594.80 955.86 699.27 876.04 751.37 1022.30 803.45
00040281 00000020 803.80 253.61 413.69 675.34 910.28 531.66 1095.18 593.33 952.73 697.37 874.50 752.66 1018.40 803.48
00040282 00000021 800.98 268.22 416.10 657.85 898.72 536.43 1083.38 599.22 930.63 700.30 867.95 752.22 1018.42 802.33
00040283 00000022 804.88 249.53 409.35 677.14 906.43 529.38 1092.48 587.78 949.12 694.25 872.57 752.69 1016.09 801.07
00040284 00000023 806.56 248.60 405.96 677.59 906.19 527.81 1092.13 585.87 949.11 693.42 872.27 752.15 1015.02 800.49
00040285 00000024 807.35 250.10 403.99 675.78 905.00 528.06 1090.15 583.33 948.96 692.21 873.37 752.91 1014.39 799.10
00040286 00000025 807.57 251.05 401.58 674.99 902.86 527.08 1088.12 580.25 947.40 690.95 872.96 754.92 1013.24 799.56
00040287 00000026 807.27 254.47 400.73 666.60 898.86 525.14 1085.48 577.52 944.22 690.14 870.61 754.25 1011.21 798.36
00040288 00000027 806.41 255.63 402.18 662.65 896.41 525.11 1083.09 577.38 942.50 690.41 869.15 754.35 1008.70 798.31
00040289 00000028 804.91 258.96 401.11 658.42 894.67 524.22 1081.53 575.92 940.90 689.37 867.18 753.98 1007.69 797.58
00040290 00000029 803.58 257.93 401.71 658.99 892.82 524.67 1079.55 576.00 939.69 688.95 864.80 754.58 1005.33 798.03
00040291 00000030 802.86 261.66 401.11 653.37 890.63 524.88 1077.23 576.06 938.28 689.04 864.42 755.66 1003.12 799.14
00040292 00000031 803.04 258.42 399.95 653.24 889.51 524.00 1075.12 576.02 937.79 686.28 862.14 753.99 1000.38 798.57
00040293 00000032 805.59 253.12 405.50 660.21 883.07 523.91 1069.10 580.61 910.79 684.04 860.90 757.27 998.62 803.88
00040294 00000033 798.44 256.16 412.99 653.93 880.02 523.20 1068.48 578.92 908.52 679.39 857.11 754.17 996.99 800.47
00040295 00000034 793.16 249.71 413.88 657.86 874.96 520.87 1063.18 576.93 901.43 677.20 851.71 752.16 991.01 799.11
00040296 00000035 788.92 255.50 418.28 648.26 872.53 520.04 1063.33 577.09 898.27 675.55 846.18 745.89 990.97 793.92
00040297 00000036 786.39 256.29 418.54 648.73 872.48 519.82 1063.09 579.27 898.65 674.67 841.47 739.57 992.00 789.66
00040298 00000037 786.71 254.50 407.24 653.01 873.77 520.23 1059.69 579.11 905.54 674.43 841.30 731.68 995.02 780.77
00040299 00000038 785.52 260.13 406.49 655.98 873.81 519.48 1056.69 578.74 905.16 673.34 839.80 730.09 997.16 779.27
00040300 00000039 782.02 260.85 407.41 654.08 870.40 518.81 1051.14 578.49 899.74 671.93 838.23 729.74 992.00 779.34
00040301 00000040 779.38 267.59 410.98 640.72 863.83 516.11 1045.50 576.82 889.91 674.14 834.40 734.33 979.77 785.96
00040302 DELETE   776.88 258.95 411.28 644.75 858.34 509.40 1042.23 572.02 880.21 669.74 831.22 730.38 975.68 783.71
00040303 00000042 772.55 268.95 413.77 634.12 858.24 502.17 1038.07 564.53 877.60 661.41 828.33 722.48 972.15 775.54
00040304 00000043 769.76 261.46 418.84 639.37 853.98 497.96 1031.42 557.57 867.18 654.76 824.21 715.57 969.25 765.53
00040305 00000044 766.15 259.36 420.47 636.38 855.68 490.22 1033.62 553.45 870.89 646.98 823.82 706.72 969.60 759.25
00040306 00000045 762.85 251.66 421.99 629.57 855.19 486.20 1037.31 551.75 875.05 644.08 822.36 695.33 975.22 749.24
00040307 00000046 760.19 243.79 425.69 639.05 851.08 485.11 1038.31 547.74 874.67 641.23 820.08 697.11 978.13 748.27
00040308 00000047 758.98 238.61 425.05 639.19 851.69 482.16 1039.22 547.83 876.36 638.90 816.76 690.56 979.07 743.74
00040309 00000048 757.72 240.27 425.76 636.35 851.38 479.76 1040.77 549.53 875.72 639.62 815.44 685.70 981.54 742.02
00040310 00000049 758.40 240.99 425.76 636.27 851.93 480.05 1041.60 549.74 876.50 641.75 817.40 686.65 983.74 742.96
00040311 00000050 758.83 252.53 426.23 626.62 852.63 480.35 1041.71 550.17 875.07 643.76 818.77 689.16 981.88 745.82
00040312 00000051 759.86 260.17 426.70 617.05 853.57 482.54 1041.94 554.59 874.58 646.34 817.60 689.36 977.88 748.06
00040313 00000052 760.80 258.74 425.20 620.60 853.94 484.29 1041.95 556.78 875.24 648.34 819.02 690.79 978.76 749.95
00040314 00000053 762.70 251.86 423.08 630.98 852.75 487.46 1041.93 557.82 874.27 651.88 820.34 697.03 978.90 754.78
00040315 00000054 765.69 253.70 420.76 634.39 852.49 489.44 1042.47 558.81 874.10 656.34 821.01 702.39 980.67 759.84
00040316 00000055 766.58 255.31 421.10 636.98 854.31 490.65 1042.74 560.29 875.03 658.31 821.99 703.12 981.86 760.68
00040317 00000056 768.02 252.56 421.41 644.60 854.31 492.75 1042.62 561.04 875.01 660.65 822.22 706.72 983.26 762.92
00040318 00000057 769.52 252.29 420.47 647.01 855.35 493.30 1043.80 561.71 876.25 660.73 823.15 708.39 983.41 764.68
00040319 00000058 770.38 255.59 419.99 649.21 856.95 492.77 1044.55 561.71 877.12 659.58 823.42 709.67 983.40 766.48
00040320 00000059 771.41 255.92 420.13 649.12 857.84 492.70 1045.26 561.44 877.49 659.34 823.55 710.36 982.86 767.25
00040321 00000060 772.98 262.45 419.32 638.89 859.83 492.81 1046.05 560.84 879.09 656.84 824.89 707.23 983.26 763.64
00040322 00000061 775.09 260.14 416.66 639.86 859.10 493.17 1043.84 559.09 878.27 653.59 826.20 711.33 979.10 766.25
00040323 00000062 773.65 260.67 418.23 631.39 858.43 493.73 1043.55 558.40 877.24 651.20 825.83 710.38 974.11 764.55
00040324 00000063 774.65 257.63 417.04 629.35 858.11 494.17 1042.70 556.99 875.49 649.85 826.47 711.04 971.46 763.97
00040325 00000064 775.83 254.88 414.07 630.36 858.34 492.23 1042.73 555.47 876.85 650.67 826.85 710.22 971.78 763.19
00040326 00000065 776.06 257.34 413.47 628.79 860.10 490.28 1044.62 554.46 876.94 648.56 826.81 709.44 971.76 763.42
00040327 00000066 775.37 262.28 414.73 624.26 860.46 488.09 1045.45 552.83 876.29 648.26 826.28 707.10 972.94 761.51
00040328 00000067 774.87 257.05 415.89 623.81 860.89 488.01 1044.61 551.64 876.60 644.65 826.94 702.54 973.79 755.76
00040329 00000068 773.13 263.33 421.19 616.23 863.47 485.08 1047.43 548.53 879.75 641.29 827.85 698.80 974.84 752.02
00040330 00000069 783.31 247.88 404.84 634.37 861.09 480.76 1043.43 538.04 886.33 638.10 828.12 704.13 976.23 752.88
00040331 00000070 782.57 251.03 406.89 631.69 863.00 478.33 1045.95 535.34 888.56 639.60 829.20 702.89 981.17 751.70
00040332 00000071 782.21 242.48 409.96 641.23 861.30 476.55 1045.96 532.12 887.40 635.74 829.47 704.57 980.56 752.42
00040333 00000072 773.75 255.76 426.97 626.04 867.11 480.91 1053.57 544.72 886.10 638.34 829.50 691.82 985.54 744.46
00040334 00000073 773.07 255.86 430.56 622.64 867.82 480.61 1054.97 545.80 886.72 638.65 829.33 689.17 986.30 742.75
00040335 00000074 773.89 257.69 430.03 620.25 869.71 480.84 1056.85 550.16 889.09 640.43 829.47 686.78 987.09 743.59
00040336 00000075 774.26 260.76 426.33 617.65 869.80 481.83 1057.27 553.59 890.05 644.24 829.58 685.22 990.39 744.06
00040337 00000076 775.55 259.17 426.54 621.05 868.31 483.96 1057.31 555.04 888.42 646.42 829.48 688.61 990.80 746.90
00040338 00000077 776.12 257.78 426.51 627.68 866.83 486.76 1056.68 555.52 886.76 648.89 829.62 695.85 988.97 752.66
00040339 00000078 776.49 255.27 425.85 635.23 866.36 489.13 1056.21 555.86 887.01 649.63 830.24 702.10 987.98 757.41
00040340 00000079 779.52 260.02 422.83 633.97 867.25 493.59 1054.49 556.82 886.46 649.48 834.22 705.00 989.81 757.73
00040341 00000080 784.31 259.42 418.16 641.20 869.76 495.83 1055.96 556.88 889.06 649.11 836.88 705.66 996.02 756.36
00040342 00000081 784.55 256.36 421.17 644.20 870.72 495.68 1058.49 558.83 888.84 649.61 836.31 705.32 996.27 757.56
00040343 00000082 784.77 255.27 420.13 645.64 872.12 495.80 1060.22 558.71 890.58 649.88 836.35 706.19 996.19 758.40
00040344 00000083 787.93 250.68 413.65 646.03 874.44 488.72 1056.05 551.66 902.33 649.45 839.54 705.13 994.92 758.40
00040345 00000084 789.69 251.05 415.18 636.71 874.37 486.35 1059.48 547.29 905.17 643.66 840.03 705.10 991.28 757.10
00040346 00000085 796.02 241.38 405.87 637.89 876.66 484.48 1061.01 542.23 911.12 636.95 844.79 706.72 984.44 756.10
00040347 00000086 786.37 243.26 415.36 630.99 879.71 493.37 1058.72 546.87 902.40 630.42 844.28 699.69 983.63 744.70
00040348 00000087 784.01 240.04 418.54 631.82 875.66 490.27 1055.60 543.85 895.43 628.54 842.31 703.37 977.91 748.71
00040349 00000088 785.14 247.71 416.35 627.05 874.86 489.38 1052.69 545.03 891.22 631.58 841.02 702.86 975.73 749.84
00040350 00000089 785.11 252.96 415.65 624.86 872.74 490.85 1050.96 548.10 888.67 637.02 838.81 706.43 974.15 754.81
00040351 00000090 791.26 278.99 402.39 601.57 868.49 488.26 1049.27 545.11 899.42 644.69 835.98 715.78 975.65 765.25
00040352 00000091 784.71 264.85 417.87 622.80 868.64 492.11 1050.88 552.97 883.00 646.88 834.10 715.85 972.68 767.21
00040353 00000092 786.17 266.52 416.37 625.00 866.50 493.92 1051.49 555.99 882.42 652.38 833.80 719.82 975.97 771.80
00040354 00000093 785.36 264.62 416.56 631.77 866.78 497.66 1051.77 559.56 882.84 657.03 834.21 723.65 976.97 775.54
00040355 00000094 786.72 265.18 413.74 636.18 867.49 499.59 1052.22 562.95 883.55 661.42 834.72 726.44 979.10 779.67
00040356 00000095 787.62 255.52 415.42 648.87 867.00 503.50 1052.32 564.87 884.34 662.77 836.49 732.11 980.30 783.32
00040357 00000096 788.65 257.10 413.56 645.71 868.51 502.50 1054.07 564.87 884.39 662.00 836.71 730.76 980.37 783.01
00040358 00000097 789.07 256.33 415.73 645.67 869.84 501.06 1057.29 562.92 886.82 660.89 837.46 730.09 982.72 781.60
00040359 00000098 789.18 258.68 416.03 641.83 870.28 500.31 1060.73 559.38 890.55 658.08 838.37 726.24 988.94 775.48
00040360 00000099 789.85 259.04 419.09 642.02 872.04 497.46 1062.97 557.29 891.93 655.32 838.31 723.50 990.58 773.29
00040361 00000100 790.35 257.95 419.32 640.73 873.70 497.54 1064.20 557.50 894.32 653.78 839.04 720.62 992.19 770.40
00040362 00000101 792.73 254.42 413.42 636.86 875.37 490.45 1061.75 551.95 908.11 648.00 838.98 712.65 988.32 765.13
00040363 00000102 790.78 256.52 415.16 630.84 878.68 486.93 1064.36 550.58 912.13 645.60 839.19 708.53 986.50 762.80
00040364 00000103 790.44 263.87 415.52 620.16 880.59 485.06 1066.75 549.23 913.31 642.91 839.63 707.06 986.73 761.66
00040365 00000104 790.84 260.49 416.52 625.28 881.31 485.48 1066.98 550.76 913.87 645.64 840.75 705.91 988.99 761.46
00040366 00000105 790.33 257.72 416.57 626.58 882.64 486.31 1066.24 553.47 914.32 648.31 840.36 703.74 988.39 760.67
00040367 00000106 790.84 252.77 418.19 640.96 881.29 489.58 1065.14 556.84 910.63 654.48 841.42 707.16 993.93 764.17
00040368 00000107 788.64 263.65 424.89 633.95 878.88 496.57 1070.12 564.69 900.50 660.91 838.46 707.51 1002.61 764.03
00040369 00000108 789.29 257.48 424.63 635.96 875.13 500.27 1070.66 569.77 896.95 665.88 839.88 713.59 1000.70 770.74
00040370 00000109 789.13 258.79 425.83 636.27 875.47 501.49 1071.81 573.09 898.29 671.11 839.49 713.47 1002.43 772.64
00040371 00000110 790.32 256.35 424.90 642.22 876.05 502.65 1071.61 576.53 897.47 673.17 838.42 713.40 1003.55 774.43
00040372 00000111 791.34 256.09 424.61 649.88 877.32 504.27 1072.20 577.67 899.62 674.26 837.02 715.42 1005.63 776.00
00040373 00000112 790.97 254.18 424.09 651.98 877.19 504.97 1071.34 578.37 899.09 674.81 837.03 716.63 1004.07 777.30
00040374 00000113 790.98 253.85 424.09 651.48 876.32 505.18 1071.87 577.79 899.00 673.89 837.29 716.20 1005.96 776.02
00040375 00000114 790.28 254.83 424.61 651.30 876.56 505.32 1071.33 576.83 899.66 672.99 837.91 717.66 1004.52 776.55
00040376 00000115 789.57 253.50 424.71 653.61 875.91 504.63 1071.21 576.49 898.00 673.18 837.01 718.73 1003.32 777.87
00040377 00000116 789.18 252.16 424.12 657.29 876.45 505.77 1071.65 577.48 898.51 673.53 836.96 722.21 1001.36 781.37
00040378 00000117 790.01 252.54 423.55 658.06 877.17 506.31 1073.25 579.18 899.43 675.52 838.39 722.86 1004.60 782.93
00040379 00000118 790.60 255.07 425.69 655.04 878.65 507.35 1074.35 581.44 900.27 676.15 838.43 722.39 1005.21 783.69
00040380 00000119 792.40 255.12 423.61 654.40 880.31 508.68 1075.36 582.50 901.54 675.91 839.41 723.02 1005.35 784.23
00040381 00000120 792.44 256.72 423.48 654.37 880.22 509.00 1074.74 582.78 901.42 675.55 838.19 723.41 1004.39 784.74
00040382 00000121 792.62 255.13 422.90 655.70 881.78 509.10 1074.77 584.48 902.67 676.85 839.65 723.34 1003.52 785.86
00040383 00000122 792.03 252.57 423.16 658.08 881.00 510.28 1075.57 584.72 902.66 677.62 841.84 726.93 1004.07 788.26
00040384 00000123 791.99 250.73 423.99 657.67 879.62 510.25 1075.32 582.92 902.33 677.04 844.33 729.27 1004.71 789.08
00040385 00000124 790.74 251.52 426.74 661.74 878.62 511.60 1077.61 582.32 904.11 678.29 846.09 736.70 1006.28 794.84
00040386 00000125 790.43 253.53 427.01 657.95 878.50 512.16 1076.68 583.14 903.03 679.20 846.13 738.07 1003.00 796.57
00040387 00000126 790.21 253.65 427.07 659.10 879.34 513.30 1076.48 583.01 903.43 679.19 847.42 739.96 1002.79 797.55
00040388 00000127 790.83 253.05 427.49 659.41 879.10 513.48 1076.63 582.58 903.10 679.41 847.55 740.21 1003.47 797.24
00040389 00000128 790.93 253.31 427.18 661.12 879.85 513.08 1076.47 582.92 903.23 679.30 847.36 739.70 1003.20 797.36
00040390 00000129 791.39 253.27 427.14 661.20 879.90 514.22 1075.71 583.35 902.81 679.57 848.10 740.93 1002.37 798.10
00040391 00000130 791.75 255.45 427.41 659.69 879.83 514.55 1075.02 583.37 902.71 680.51 848.77 742.10 1001.49 799.05
00040392 00000131 793.32 259.31 425.93 655.70 880.39 514.76 1074.85 583.26 903.26 680.26 849.42 742.24 1001.91 799.04
00040393 00000132 793.50 260.31 426.05 653.26 879.32 514.56 1075.30 583.32 901.98 680.41 849.71 744.67 1000.29 801.67
00040394 00000133 793.54 261.43 427.85 650.26 879.45 512.94 1077.07 583.56 900.82 678.59 848.89 740.24 1004.13 798.52
00040395 00000134 794.04 262.10 425.68 652.66 882.90 511.03 1078.29 588.10 902.90 680.17 842.34 729.45 1007.49 793.24
00040396 00000135 795.26 263.87 424.06 653.11 883.49 510.68 1079.26 588.56 904.02 682.45 841.74 728.37 1009.63 792.75
00040397 00000136 796.84 262.78 423.80 659.25 884.26 509.86 1079.93 588.63 903.53 683.67 842.21 730.17 1011.57 795.21
00040398 00000137 797.30 259.85 423.57 660.60 884.56 511.69 1079.34 588.17 903.88 683.45 843.15 730.73 1011.61 793.77
00040399 00000138 786.86 272.14 425.27 640.06 887.24 522.48 1070.54 586.89 912.63 683.26 849.27 725.70 1011.45 777.07
00040400 00000139 798.33 265.41 419.61 653.12 886.24 517.38 1074.73 588.29 905.58 682.42 847.80 733.05 1009.42 791.39
00040401 00000140 798.14 264.21 421.41 655.27 884.76 515.62 1077.85 588.62 903.91 682.24 843.91 733.69 1009.93 794.05
00040402 00000141 797.05 262.90 423.61 656.82 884.47 511.89 1080.04 587.84 902.51 682.34 843.08 730.89 1011.46 793.57
00040403 00000142 795.89 264.97 424.52 653.23 884.81 509.14 1080.08 585.95 903.60 680.52 842.28 727.61 1011.15 791.06
00040404 00000143 797.00 262.86 422.60 653.57 885.77 508.78 1080.08 586.58 903.33 680.87 842.85 728.11 1008.08 792.45
00040405 00000144 797.98 258.05 422.54 657.52 886.75 508.25 1080.82 586.35 905.09 681.04 844.39 728.37 1007.50 792.66
00040406 00000145 801.99 258.27 419.05 649.72 886.54 510.68 1080.70 585.45 904.66 678.40 848.78 729.54 1007.64 790.83
00040407 00000146 803.04 260.18 418.14 646.67 886.45 510.57 1079.62 584.09 904.35 679.98 849.74 735.78 999.69 796.44
00040408 00000147 802.13 262.40 418.05 639.78 885.02 510.69 1078.22 582.59 902.95 679.37 849.04 736.31 996.60 795.81
00040409 00000148 801.39 261.28 418.39 641.69 884.41 510.63 1077.89 582.89 902.47 678.96 846.96 735.44 996.21 795.16
00040410 00000149 800.72 264.23 418.34 638.68 882.54 510.97 1077.24 582.73 900.94 679.45 846.04 736.65 996.12 796.16
00040411 00000150 801.40 260.45 417.59 644.09 880.95 515.49 1076.38 583.54 900.62 680.58 848.76 744.06 996.45 800.26
00040412 00000151 802.16 257.62 414.50 649.66 881.88 519.41 1074.51 585.50 902.26 683.05 851.02 749.18 995.51 803.80
00040413 00000152 806.23 272.51 410.17 630.90 885.83 526.87 1071.35 588.14 906.56 689.26 857.46 752.21 995.49 802.86
00040414 00000153 802.41 273.47 417.41 632.43 884.44 530.76 1071.07 593.84 905.66 692.29 853.92 752.18 996.21 804.01
00040415 00000154 802.52 268.80 416.06 641.04 881.90 533.22 1066.92 597.53 901.13 694.86 850.10 751.81 996.11 804.55
00040416 00000155 785.34 263.18 426.54 648.06 874.74 537.33 1059.62 599.59 901.00 698.27 849.27 743.55 1002.42 792.26
00040417 00000156 781.98 266.62 431.45 645.96 874.89 530.61 1062.75 595.70 899.51 697.07 843.68 736.13 1002.97 787.52
00040418 00000157 792.66 259.71 423.50 659.61 873.59 521.71 1070.49 588.36 897.13 684.32 839.97 745.74 1001.72 800.71
00040419 00000158 790.20 257.86 423.09 651.84 875.81 511.81 1070.42 579.02 897.06 673.12 839.90 729.47 1002.24 784.83
00040420 00000159 792.94 260.74 424.27 635.25 876.42 503.07 1071.49 568.00 897.25 663.63 840.98 717.49 1002.40 771.16
00040421 00000160 797.27 257.06 417.01 634.06 881.82 492.31 1070.19 556.41 914.08 653.08 846.50 712.49 1000.37 767.03
00040422 00000161 798.05 250.91 415.31 632.22 887.61 487.04 1076.06 552.56 922.35 646.85 848.33 706.80 999.33 762.54
00040423 00000162 799.09 245.28 414.10 637.77 888.27 486.87 1075.40 552.34 922.06 644.73 848.56 708.23 995.39 763.82
00040424 00000163 799.83 251.69 413.55 635.81 887.92 488.51 1076.00 553.90 919.93 646.20 847.34 712.19 993.33 767.82
00040425 00000164 801.07 256.62 413.97 633.42 888.15 491.87 1073.94 558.44 918.18 651.53 849.20 715.11 994.02 771.76
00040426 00000165 800.53 261.25 417.49 635.46 884.44 498.97 1074.06 564.67 902.26 659.62 849.34 724.63 997.45 778.89
00040427 00000166 807.20 263.62 407.84 629.43 892.29 500.72 1072.19 568.76 921.08 666.99 851.75 722.70 993.48 779.81
00040428 00000167 808.74 264.12 407.86 631.56 893.97 502.24 1074.00 569.89 922.18 668.82 854.78 724.04 997.16 780.48
00040429 00000168 808.87 262.09 409.74 634.74 895.70 502.55 1075.14 571.37 923.57 668.75 855.78 723.81 996.54 781.29
