Video ID: 	0D21bhmB19k
H: 	1080
W: 	1920
FPS: 	29.97002997002997

FRAME INDEX X0 Y0 W H [Landmarks (5 Points)]

00001509 00000000 714.20 230.04 404.09 575.35 763.51 492.26 837.91 475.26 750.59 600.45 827.78 689.05 886.79 673.49
00001510 00000001 712.28 232.71 407.36 575.39 761.75 496.02 836.75 477.39 749.69 601.01 824.21 692.81 882.84 676.20
00001511 00000002 705.47 235.32 409.67 574.42 757.81 491.18 841.61 474.54 742.76 600.18 818.96 697.36 881.11 681.41
00001512 00000003 703.38 235.24 407.81 575.07 756.16 488.93 837.25 472.88 743.04 601.81 823.19 696.90 884.13 681.40
00001513 00000004 702.07 236.23 412.58 580.46 755.19 489.95 832.88 473.94 740.82 604.38 827.55 696.32 888.37 680.55
00001514 DELETE   700.95 233.53 415.43 588.73 755.50 488.58 828.69 471.80 739.71 604.34 832.82 696.34 893.09 679.58
00001515 00000006 700.92 235.65 414.73 584.95 753.67 488.09 832.13 469.31 740.98 604.90 833.57 697.43 897.16 679.24
00001516 00000007 701.01 234.89 414.29 578.41 749.76 487.71 840.75 468.67 741.67 603.42 825.60 696.45 898.03 678.08
00001517 00000008 701.86 242.22 416.44 570.53 752.01 485.96 841.80 467.37 741.94 600.99 826.05 693.75 898.46 675.71
00001518 00000009 703.79 239.23 417.43 571.92 753.45 484.14 846.90 467.20 745.74 598.25 825.26 691.95 900.27 675.15
00001519 00000010 706.21 238.29 420.07 573.67 756.59 487.69 852.86 466.28 749.89 594.98 827.95 691.52 906.05 670.85
00001520 00000011 708.67 242.63 418.12 566.93 758.62 485.48 859.58 466.43 754.81 593.15 828.38 689.67 908.59 671.29
00001521 00000012 718.21 232.12 409.63 575.87 761.85 487.20 858.56 465.74 758.53 595.60 834.44 684.98 908.75 665.82
00001522 00000013 721.31 236.54 411.03 568.09 762.62 483.70 864.76 462.35 760.50 594.59 835.60 683.54 913.17 664.26
00001523 00000014 724.23 235.48 414.28 567.52 764.31 477.59 870.87 460.74 764.69 593.55 836.06 678.63 917.19 663.05
00001524 00000015 727.18 227.99 425.15 574.84 773.68 472.39 877.54 455.37 771.11 594.01 841.23 674.23 921.17 656.94
00001525 00000016 729.76 222.10 429.23 578.74 778.18 471.13 886.06 453.68 777.52 590.41 845.93 675.35 925.33 657.57
00001526 00000017 733.04 222.36 428.44 576.70 781.55 467.77 890.62 453.66 780.81 588.87 847.13 672.06 927.76 656.91
00001527 00000018 737.80 217.33 429.80 576.89 777.34 463.57 898.80 445.61 782.29 583.21 841.26 676.32 932.77 658.99
00001528 00000019 743.54 217.90 430.52 575.11 782.52 463.64 905.55 446.65 786.82 582.15 841.99 672.44 937.42 656.14
00001529 00000020 747.25 219.21 431.60 577.17 796.11 461.12 912.48 448.63 791.59 576.84 851.02 662.35 942.98 649.21
00001530 00000021 750.43 213.71 429.09 578.34 796.68 458.98 920.61 447.47 794.99 573.47 848.07 657.93 947.50 645.60
00001531 00000022 758.52 211.46 417.72 580.10 796.60 457.93 930.80 441.43 800.20 567.88 849.46 660.69 957.37 645.28
00001532 00000023 761.13 209.84 414.80 576.53 799.15 457.02 935.35 441.71 803.77 566.17 847.95 658.57 958.91 644.21
00001533 00000024 763.63 212.14 415.52 573.89 801.39 457.84 939.30 442.54 808.45 565.83 850.87 658.41 961.49 644.08
00001534 00000025 854.70 186.12 408.95 546.18 890.69 413.05 1005.23 410.16 890.99 533.76 939.30 615.68 1031.72 611.87
00001535 00000026 852.11 185.75 410.93 546.88 888.18 413.49 1003.35 409.27 888.38 531.59 935.47 615.92 1028.06 611.22
00001536 00000027 849.70 181.09 414.45 555.15 887.66 415.13 1000.57 410.26 886.68 531.49 934.72 616.78 1025.13 611.55
00001537 00000028 846.60 185.14 415.30 551.89 885.10 415.18 999.89 409.30 884.01 531.66 931.79 617.40 1023.55 611.30
00001538 00000029 843.62 188.30 415.28 548.79 880.30 416.54 999.30 407.49 882.90 530.48 927.44 619.79 1021.29 611.16
00001539 00000030 841.28 186.90 416.60 551.68 875.76 419.68 999.14 407.89 880.78 530.34 924.05 623.58 1019.47 612.83
00001540 00000031 839.42 188.46 416.65 551.91 873.20 420.80 998.84 408.51 879.50 531.08 922.02 626.51 1016.24 615.33
00001541 00000032 836.54 187.93 421.82 558.82 871.60 425.01 997.71 410.04 879.40 532.50 924.16 631.67 1014.94 618.10
00001542 00000033 833.53 184.94 420.52 568.07 868.38 428.22 996.96 411.19 877.66 531.54 922.52 633.74 1012.83 618.15
00001543 00000034 831.44 189.91 417.91 567.97 866.08 430.22 994.26 415.32 873.08 535.79 920.16 632.61 1013.04 618.59
00001544 00000035 829.81 192.55 413.59 564.15 864.42 428.34 988.51 417.36 868.90 537.84 918.56 629.17 1010.49 618.02
00001545 00000036 826.94 193.42 411.60 564.41 862.02 430.17 985.11 418.69 865.61 540.34 916.58 631.17 1007.58 619.52
00001546 00000037 824.95 201.43 412.49 555.89 856.65 430.74 980.24 418.55 861.01 543.48 914.78 632.75 1005.07 620.25
00001547 00000038 822.87 202.85 415.65 552.46 854.95 431.91 977.35 420.41 858.54 545.92 914.05 634.88 1002.05 623.01
00001548 00000039 822.03 206.55 416.28 550.40 853.36 431.07 976.52 419.26 857.97 547.00 912.88 635.47 1001.49 623.23
00001549 00000040 821.88 208.12 412.55 549.05 853.43 431.96 976.79 419.75 858.52 546.30 912.97 635.19 1001.67 622.56
00001550 00000041 821.06 208.30 415.43 549.12 851.96 432.98 977.64 419.70 858.77 547.08 913.00 636.24 1002.92 622.79
00001551 00000042 820.51 207.61 414.07 550.02 852.22 432.34 978.68 419.50 859.49 546.21 912.81 635.20 1003.68 622.11
00001552 00000043 820.41 208.14 415.15 550.46 851.94 432.96 977.86 419.47 859.15 545.99 913.16 634.43 1004.67 620.77
00001553 00000044 820.08 209.05 414.86 548.98 851.93 432.53 978.62 419.75 858.94 546.13 912.58 633.92 1005.26 620.84
00001554 00000045 820.63 209.18 414.68 548.15 851.38 433.12 977.81 419.50 859.35 546.85 913.03 633.99 1005.55 620.19
00001555 00000046 819.73 210.39 415.59 547.70 850.99 430.55 979.32 418.71 859.50 546.34 911.84 632.16 1005.87 619.84
00001556 00000047 817.30 205.21 416.42 551.56 850.50 428.66 979.38 418.24 859.25 544.69 911.33 630.67 1005.47 619.63
00001557 00000048 815.94 205.52 418.09 549.11 849.07 427.54 976.81 418.82 855.92 545.21 908.97 628.32 1002.44 618.65
00001558 00000049 814.65 206.30 418.29 546.38 847.48 425.52 974.55 417.52 853.02 544.38 907.48 627.46 999.82 618.28
00001559 00000050 813.41 206.41 417.61 543.59 845.63 422.39 972.25 417.56 849.20 543.33 903.27 625.98 994.12 619.30
00001560 00000051 812.95 208.97 412.83 537.98 843.87 421.67 970.94 417.13 846.25 542.57 899.58 626.30 988.60 619.93
00001561 00000052 811.60 207.68 414.93 540.19 842.86 421.22 969.83 417.99 844.93 544.16 898.38 627.97 984.85 622.57
00001562 00000053 811.32 207.13 414.07 538.30 841.28 420.90 971.20 418.13 845.53 543.92 894.45 630.20 979.59 625.38
00001563 00000054 808.25 204.48 418.81 545.54 841.72 422.55 973.88 418.51 847.24 544.75 893.81 635.43 980.87 629.94
00001564 00000055 808.19 204.21 419.97 542.55 841.26 425.57 975.97 417.18 849.83 543.08 894.42 635.25 984.30 626.46
00001565 00000056 804.02 197.33 423.34 552.12 840.57 424.88 975.60 415.07 848.55 541.73 896.87 636.42 986.82 626.62
00001566 00000057 801.30 200.27 419.56 554.84 840.41 423.62 972.32 412.74 849.02 541.04 903.11 635.01 990.74 623.83
00001567 00000058 800.53 200.51 411.97 564.23 841.01 420.66 966.39 413.31 844.76 542.46 903.63 631.51 993.07 622.00
00001568 00000059 796.70 193.84 413.37 566.16 838.90 419.92 958.95 417.42 836.24 542.70 897.70 628.16 982.74 622.70
00001569 00000060 795.97 193.81 412.58 561.43 838.12 418.02 957.17 420.31 833.43 542.27 888.31 625.08 972.15 624.02
00001570 00000061 796.07 195.72 409.36 561.23 837.68 418.12 956.23 420.25 832.34 543.56 885.92 627.14 968.98 626.05
00001571 00000062 795.06 200.49 411.33 559.41 834.58 418.40 954.90 418.27 830.06 545.33 884.36 630.49 968.07 627.43
00001572 00000063 794.54 196.12 410.64 565.08 833.27 418.13 956.40 417.13 830.72 546.07 884.52 634.30 967.69 630.76
00001573 00000064 795.66 193.21 415.04 569.75 834.48 421.46 959.57 415.01 833.20 542.61 885.66 637.21 969.18 629.53
00001574 00000065 794.73 191.75 416.67 569.18 833.35 421.76 960.88 412.11 836.53 539.88 886.81 637.45 971.40 627.50
00001575 00000066 793.94 193.33 413.41 565.38 832.95 419.92 958.69 408.53 836.63 537.30 887.45 637.11 971.06 625.67
00001576 00000067 793.64 195.14 413.28 566.08 832.83 418.46 955.31 409.80 831.77 537.70 885.16 635.07 967.65 625.36
00001577 00000068 794.35 194.18 405.30 568.47 832.24 419.61 949.10 408.84 826.51 537.25 882.10 641.19 956.74 629.74
00001578 00000069 794.09 200.17 391.84 559.69 834.81 421.38 937.89 414.91 817.57 540.78 880.55 640.89 947.57 632.11
00001579 00000070 791.14 192.95 392.69 563.80 834.21 421.36 934.35 419.11 814.85 544.33 876.67 640.21 939.78 636.05
00001580 00000071 780.79 199.69 397.51 564.15 829.51 420.35 924.47 421.05 811.39 545.06 872.03 641.78 936.84 640.51
00001581 00000072 778.43 202.81 402.03 560.66 830.04 422.25 915.59 421.82 807.49 548.23 878.55 640.41 937.31 637.56
00001582 00000073 776.37 204.87 398.76 558.25 827.94 423.29 909.72 422.78 806.88 549.94 881.08 639.46 937.77 636.27
00001583 00000074 776.34 201.13 399.34 563.83 826.07 424.58 910.03 422.68 806.60 548.80 880.75 639.04 940.39 635.12
00001584 00000075 776.08 201.59 404.11 563.16 825.68 421.43 917.64 421.87 809.42 548.50 882.05 636.63 947.72 634.64
00001585 00000076 780.98 192.19 402.25 571.26 825.97 426.72 924.92 424.17 812.85 548.55 878.92 639.12 951.36 635.06
00001586 00000077 784.28 193.06 398.44 571.20 827.18 435.24 926.18 430.01 813.24 548.71 876.56 644.67 946.92 639.02
00001587 00000078 781.84 190.80 394.70 570.17 826.23 441.31 921.39 435.12 815.06 550.31 877.68 646.90 941.83 640.08
00001588 00000079 777.21 203.58 395.93 556.44 824.95 442.99 912.05 440.58 810.83 558.08 883.78 645.91 941.41 641.19
00001589 00000080 776.18 210.87 385.76 546.85 825.36 446.94 904.38 444.97 811.58 565.03 889.69 643.26 942.11 638.74
00001590 DELETE   774.52 227.90 376.43 533.53 825.03 450.97 898.42 452.23 809.19 568.74 888.16 640.95 938.14 638.41
00001591 00000082 772.43 234.39 370.02 533.41 824.85 451.29 891.85 454.05 804.23 570.03 883.90 642.09 929.49 640.46
00001592 00000083 771.85 233.17 365.38 536.67 825.18 455.89 885.27 459.53 804.60 572.57 884.70 644.01 924.52 642.95
00001593 00000084 772.82 240.21 368.48 534.04 833.31 456.80 885.22 455.61 792.14 571.84 878.14 648.45 925.31 643.83
00001594 00000085 769.57 238.39 370.44 533.07 822.87 456.64 886.66 463.12 802.67 576.78 881.98 646.59 924.22 647.47
00001595 00000086 768.42 240.08 371.86 529.43 820.08 456.81 889.51 463.33 802.99 580.09 880.90 646.57 928.79 647.54
00001596 00000087 768.75 239.06 374.36 531.70 821.25 456.03 889.54 461.13 805.07 580.03 885.55 647.20 931.92 647.38
00001597 00000088 766.85 234.89 375.07 535.94 819.87 454.54 889.62 459.72 803.43 580.05 886.41 646.74 934.07 647.03
00001598 00000089 767.81 234.51 374.31 537.75 820.03 454.65 889.11 459.06 802.57 579.08 885.84 648.30 932.16 648.06
00001599 00000090 765.13 235.90 380.25 537.40 820.41 452.86 886.22 457.61 798.55 578.94 884.70 648.55 927.96 648.17
00001600 00000091 763.20 228.69 375.59 541.41 818.22 456.75 879.76 449.53 794.75 570.22 877.82 649.16 933.83 639.37
00001601 00000092 761.66 227.83 375.29 540.86 818.60 455.70 878.46 449.46 794.33 569.54 875.44 647.60 928.79 638.90
00001602 00000093 760.58 226.01 372.96 542.24 816.50 454.71 876.52 449.03 794.17 568.96 871.76 647.52 923.20 639.42
00001603 00000094 760.94 228.10 369.65 549.85 815.87 452.13 881.19 454.20 796.56 575.45 875.79 649.09 920.24 646.86
00001604 00000095 759.87 225.31 373.98 544.09 814.44 451.02 877.71 445.18 793.80 567.17 869.46 647.08 921.99 638.92
00001605 00000096 759.41 225.28 376.22 544.04 812.54 451.21 879.74 442.75 792.93 563.77 866.92 646.37 922.82 636.20
00001606 00000097 759.48 224.55 381.48 543.41 810.52 446.45 880.36 438.29 793.15 562.29 867.40 643.42 924.77 633.22
00001607 00000098 756.08 232.44 384.19 542.99 811.97 439.35 881.54 440.55 790.16 570.09 876.88 642.79 925.43 639.11
00001608 00000099 756.81 233.04 382.91 536.97 809.58 439.51 883.10 439.13 790.63 569.03 874.75 640.26 926.52 635.12
00001609 00000100 756.41 233.89 386.49 533.39 809.51 436.71 885.38 436.38 790.82 566.04 874.15 636.93 927.56 631.55
00001610 00000101 756.45 230.33 388.18 533.28 806.71 434.32 888.19 433.88 789.76 564.05 870.85 634.83 930.45 629.47
00001611 00000102 758.19 223.99 389.55 539.90 805.32 429.99 891.88 430.93 789.61 561.17 866.68 633.09 933.16 629.14
00001612 00000103 757.68 216.97 395.07 546.48 804.26 424.05 896.22 426.77 788.84 557.24 864.49 630.62 935.46 628.55
00001613 00000104 757.18 211.60 398.15 547.50 803.59 419.82 897.97 422.71 788.19 553.95 865.09 627.36 938.66 625.59
00001614 00000105 759.20 209.46 399.77 543.69 805.23 420.20 900.95 420.65 791.87 549.20 865.49 625.08 940.86 621.44
00001615 00000106 760.22 195.29 404.22 558.83 806.16 417.55 904.16 416.36 793.35 545.97 867.47 623.65 946.06 618.99
00001616 00000107 762.54 193.98 402.32 557.74 808.98 414.77 909.22 412.16 797.72 542.07 872.01 624.40 950.23 618.69
00001617 00000108 763.47 188.58 408.02 565.20 812.94 412.65 914.70 411.07 804.23 541.79 876.52 625.96 953.65 621.44
00001618 00000109 766.38 187.17 408.81 566.49 815.17 411.19 920.78 408.55 809.25 539.26 878.51 626.35 959.48 621.08
00001619 00000110 767.14 185.02 411.19 567.31 817.97 410.47 928.02 406.62 815.34 536.30 883.06 625.59 966.11 619.36
00001620 00000111 769.66 184.82 408.25 568.60 820.24 409.14 932.27 405.15 818.85 534.59 886.71 623.91 970.86 617.54
00001621 00000112 773.84 180.49 404.84 573.70 821.50 409.97 933.81 404.18 819.74 532.68 888.08 623.48 973.53 615.62
00001622 00000113 777.74 177.06 405.56 578.81 822.67 409.89 936.02 401.14 819.83 531.05 890.75 621.95 980.33 611.21
00001623 00000114 778.84 179.36 409.95 576.96 822.15 408.48 938.95 399.07 820.45 532.33 892.12 618.24 989.52 606.49
00001624 00000115 779.74 181.12 411.86 572.76 823.97 408.89 940.37 397.71 822.76 531.50 893.36 616.94 991.73 603.49
00001625 00000116 781.18 183.55 413.10 569.85 826.53 409.19 943.06 396.38 825.03 530.01 895.57 616.32 994.87 601.51
00001626 00000117 781.55 184.21 411.49 567.09 826.23 408.87 943.96 395.92 825.27 528.13 893.80 615.12 993.99 600.33
00001627 00000118 787.15 180.28 411.13 571.22 829.54 407.95 949.55 394.89 834.82 531.40 898.45 615.00 992.99 600.16
00001628 00000119 786.84 178.74 409.27 566.45 829.98 407.96 951.25 396.04 834.10 530.88 893.90 613.90 988.66 600.91
00001629 00000120 785.35 181.17 405.77 558.42 827.84 410.84 943.63 403.43 828.69 529.51 886.63 611.37 981.74 603.47
00001630 00000121 785.03 185.28 404.58 544.88 825.45 411.21 941.43 404.03 824.54 527.91 880.20 609.50 975.47 601.78
00001631 00000122 784.44 181.26 404.59 544.47 823.43 411.47 938.57 404.57 822.25 528.46 876.85 609.36 970.71 601.86
00001632 00000123 785.13 184.39 402.97 540.68 822.10 410.74 937.74 404.81 820.75 528.46 873.65 610.48 966.66 603.89
00001633 00000124 786.38 182.39 401.48 541.65 822.22 409.46 936.66 403.72 820.81 528.57 872.61 611.27 963.57 605.03
00001634 00000125 787.09 180.32 400.89 542.26 824.16 408.04 935.95 403.65 822.11 528.66 871.38 611.69 960.75 606.77
00001635 00000126 790.61 183.68 400.54 537.21 825.46 408.70 935.83 404.38 822.93 527.41 865.35 613.48 948.56 609.01
00001636 00000127 791.32 183.44 400.40 539.56 825.18 408.01 935.22 402.58 822.20 524.81 863.04 617.72 939.92 612.29
00001637 00000128 790.96 179.63 400.24 551.08 824.75 411.48 937.50 401.70 822.15 524.14 866.62 622.68 942.33 613.68
00001638 00000129 791.53 169.76 405.32 560.11 824.10 410.26 955.67 398.69 828.05 522.09 875.98 620.97 960.07 610.25
00001639 00000130 792.30 177.84 403.08 549.25 824.83 410.66 962.87 397.10 836.43 522.62 882.95 620.17 972.58 607.45
00001640 00000131 795.59 181.06 401.87 541.72 826.80 411.21 966.30 396.24 843.12 522.07 883.56 618.67 979.78 604.96
00001641 00000132 798.91 186.49 401.23 537.96 829.42 414.10 972.01 394.06 849.02 519.58 888.02 622.42 986.24 604.51
00001642 00000133 799.27 188.05 409.49 543.64 831.42 414.93 975.49 392.37 852.28 518.37 892.49 621.34 991.16 601.24
00001643 00000134 795.81 197.02 409.61 544.69 840.14 415.41 970.04 390.09 853.69 516.99 897.62 618.28 1000.20 596.08
00001644 00000135 797.38 198.64 408.47 547.46 839.12 414.47 966.23 388.13 851.45 519.46 905.71 617.51 1008.57 593.61
00001645 00000136 795.56 201.77 401.62 538.55 837.75 411.88 962.25 390.97 846.62 521.51 904.55 612.14 1006.31 592.11
00001646 00000137 797.40 199.74 397.99 534.22 842.24 410.06 957.58 397.52 844.15 523.31 901.31 607.51 994.29 594.86
00001647 00000138 799.60 188.17 399.79 537.37 837.48 412.49 958.18 399.22 844.88 524.34 899.79 610.36 985.42 597.25
00001648 00000139 804.84 189.35 391.61 531.68 839.62 408.93 955.50 401.24 838.82 525.41 895.17 608.16 979.38 599.95
00001649 00000140 805.93 188.95 383.69 531.31 841.61 409.70 950.78 401.05 835.85 523.43 893.77 608.49 974.62 599.71
00001650 00000141 799.85 186.97 382.34 537.87 840.69 410.72 937.83 401.26 832.56 521.32 896.27 603.51 974.46 593.66
00001651 00000142 799.62 191.83 371.39 531.04 846.04 405.04 935.62 399.87 831.77 518.30 899.04 604.16 972.73 598.05
00001652 00000143 799.95 191.32 372.08 531.87 846.24 404.89 932.99 398.71 829.92 519.04 900.50 604.17 972.69 597.19
00001653 00000144 799.49 192.48 370.45 526.83 844.02 406.51 933.99 399.94 830.51 519.51 896.98 603.03 971.40 596.04
00001654 00000145 799.89 191.13 377.61 531.29 839.07 409.75 932.35 398.68 828.70 520.68 895.16 603.07 973.28 591.73
00001655 00000146 799.43 192.48 379.43 529.45 838.17 412.34 934.55 399.89 830.73 521.10 893.57 604.37 973.79 592.05
00001656 00000147 799.49 193.48 383.29 527.09 836.93 413.41 937.23 399.86 832.27 521.94 892.53 606.94 972.55 593.79
00001657 00000148 798.28 195.42 391.30 523.60 836.35 412.98 941.17 399.44 834.71 523.01 893.53 607.80 972.76 594.55
00001658 00000149 798.62 192.79 394.17 525.12 835.20 413.27 944.94 398.94 836.35 523.18 891.92 609.30 972.17 595.63
00001659 00000150 799.37 191.83 391.50 525.73 834.56 414.33 946.53 399.21 838.09 523.77 893.05 610.87 974.55 596.58
00001660 00000151 804.41 197.74 388.35 516.37 836.65 410.57 956.15 399.86 840.37 525.30 892.25 610.50 977.70 599.94
00001661 00000152 803.97 197.94 392.72 517.46 836.49 411.10 958.83 399.09 841.26 524.71 893.89 611.73 979.28 600.11
00001662 00000153 799.30 197.42 397.80 523.12 833.72 411.48 954.88 397.69 840.53 525.56 896.13 613.36 979.71 599.58
00001663 00000154 798.44 195.74 394.75 529.69 834.16 410.62 953.24 396.73 840.77 525.15 897.90 612.58 981.01 598.69
00001664 00000155 802.58 193.29 391.48 530.56 837.74 407.53 957.77 395.63 842.68 522.83 900.03 611.80 983.03 599.80
00001665 00000156 801.33 192.96 390.34 531.03 835.81 407.99 954.68 396.81 838.52 523.28 895.27 612.61 977.22 601.36
00001666 00000157 795.37 191.91 393.60 528.75 834.02 410.47 939.13 398.19 830.11 523.76 891.37 610.75 967.17 598.67
00001667 00000158 793.27 188.15 389.76 534.53 835.04 411.77 933.61 400.16 828.06 520.32 886.75 608.59 962.25 597.54
00001668 00000159 792.17 188.15 386.36 528.89 834.88 407.86 928.99 402.05 822.86 521.03 884.07 605.47 956.78 599.03
00001669 00000160 791.59 182.76 381.15 534.41 834.20 407.98 923.51 403.68 820.28 520.47 880.28 604.48 951.42 599.35
00001670 00000161 791.57 182.16 381.23 536.35 833.73 410.03 923.10 405.96 820.14 521.88 879.48 606.68 949.98 601.74
00001671 00000162 790.92 183.75 381.11 534.06 832.89 409.74 923.16 405.36 821.12 522.47 879.28 606.77 950.49 601.67
00001672 00000163 791.23 183.13 385.94 539.17 835.95 410.66 926.15 404.46 824.00 522.65 884.15 608.51 955.14 601.97
00001673 DELETE   791.01 187.04 387.63 537.27 834.30 408.74 931.45 403.08 825.94 524.65 885.17 610.31 955.98 603.92
00001674 00000165 799.93 181.91 388.06 539.05 838.62 408.80 944.34 400.28 828.04 522.01 887.91 610.35 961.44 602.16
00001675 00000166 800.44 181.04 389.37 542.54 838.72 409.19 945.55 397.71 830.12 521.32 891.18 611.82 965.77 601.10
00001676 00000167 800.53 184.67 385.01 537.31 837.70 409.05 948.58 395.37 832.11 519.33 890.96 611.92 968.81 599.28
00001677 00000168 796.09 190.17 389.88 531.20 833.88 413.37 941.14 396.67 831.48 519.33 890.20 609.60 969.20 594.17
00001678 00000169 797.14 188.04 390.39 529.40 833.48 413.31 943.19 397.46 831.88 516.43 885.71 605.52 969.45 591.02
00001679 00000170 799.21 191.45 390.92 519.95 833.39 412.49 945.82 396.19 831.44 514.23 884.88 602.91 970.43 587.82
