Video ID: 	HQcnCMxGhN8
H: 	1080
W: 	1920
FPS: 	25.0

FRAME INDEX X0 Y0 W H [Landmarks (5 Points)]

00007021 00000000 1042.97 145.16 454.09 585.12 1165.20 340.96 1343.12 377.29 1203.09 423.08 1120.19 543.14 1253.64 575.54
00007022 00000001 1044.90 142.58 455.00 596.63 1167.45 338.56 1352.14 379.73 1207.68 424.37 1121.23 547.63 1262.28 584.12
00007023 00000002 1043.96 147.88 457.39 594.40 1169.18 341.97 1358.19 385.79 1213.86 429.13 1123.59 550.91 1269.84 589.39
00007024 00000003 1039.90 145.20 463.82 590.85 1168.21 339.74 1356.59 390.17 1214.38 430.49 1123.18 541.85 1272.03 585.06
00007025 00000004 1038.78 141.65 465.42 598.13 1166.79 337.21 1356.58 389.17 1211.43 427.40 1118.12 539.06 1274.62 583.48
00007026 00000005 1037.14 141.36 465.73 607.34 1163.98 338.71 1353.08 393.94 1205.08 436.07 1113.93 542.41 1269.19 589.81
00007027 DELETE   1034.28 143.07 462.67 610.72 1158.71 342.76 1346.94 402.03 1199.34 445.99 1107.80 547.21 1261.07 598.28
00007028 00000007 1031.15 152.29 461.93 612.74 1158.43 347.02 1342.60 404.57 1196.54 454.31 1108.25 557.93 1256.42 607.50
00007029 00000008 1034.81 153.49 454.75 619.58 1157.31 355.77 1338.11 411.53 1193.13 469.93 1110.95 571.89 1251.77 619.99
00007030 00000009 1030.33 159.53 461.47 636.23 1155.45 369.59 1332.75 421.38 1190.98 484.64 1110.50 581.83 1249.86 626.74
00007031 00000010 1028.08 170.81 455.94 622.95 1148.03 376.03 1331.59 425.01 1194.75 490.94 1110.06 591.88 1253.13 634.30
00007032 00000011 1029.59 167.96 444.10 616.39 1137.99 375.04 1327.10 426.75 1179.75 500.06 1103.05 598.97 1242.23 643.62
00007033 00000012 1026.95 166.10 442.50 617.18 1133.80 379.36 1322.62 428.15 1176.57 502.49 1099.77 603.05 1237.90 645.23
00007034 00000013 1023.93 165.44 442.38 618.76 1129.30 382.34 1317.97 430.08 1170.38 503.53 1095.40 605.11 1236.43 646.26
00007035 00000014 1022.56 171.86 442.91 614.90 1127.08 385.79 1316.16 431.65 1168.90 505.45 1094.23 607.12 1237.63 646.72
00007036 00000015 1021.53 176.22 442.62 614.82 1122.84 388.68 1312.08 433.11 1163.15 509.14 1091.09 609.11 1236.58 647.65
00007037 00000016 1022.07 179.63 443.23 613.92 1119.05 391.15 1310.20 434.35 1163.16 514.55 1089.66 611.80 1240.56 649.21
00007038 00000017 1020.32 177.62 445.94 629.95 1115.35 390.54 1310.16 431.99 1163.53 516.42 1088.21 612.02 1258.56 647.59
00007039 00000018 1014.82 178.82 448.79 647.62 1112.76 390.44 1308.99 430.50 1161.32 514.12 1085.70 615.78 1261.18 650.26
00007040 00000019 1013.71 178.72 447.34 658.61 1107.96 394.91 1303.30 433.76 1153.47 519.91 1081.61 620.30 1259.55 654.00
00007041 00000020 1011.26 193.70 446.14 649.02 1102.77 404.92 1297.91 438.98 1149.16 527.40 1082.18 631.36 1257.60 661.06
00007042 00000021 1005.27 199.91 442.57 642.71 1102.32 425.83 1291.64 455.85 1150.62 543.87 1084.63 642.31 1260.47 664.37
00007043 00000022 1004.84 201.38 437.34 652.03 1097.49 433.62 1283.11 461.40 1146.31 554.24 1081.23 653.07 1259.79 673.23
00007044 00000023 999.81 204.45 438.48 638.70 1089.69 433.31 1275.66 457.35 1138.74 551.12 1079.41 650.50 1254.70 667.48
00007045 00000024 997.28 212.44 433.84 619.31 1081.99 425.68 1266.23 445.59 1128.70 538.42 1074.67 644.03 1246.14 658.48
00007046 00000025 993.53 209.52 433.95 615.76 1072.75 417.88 1261.38 435.60 1120.70 531.45 1068.37 638.16 1239.69 651.67
00007047 00000026 992.31 201.31 429.78 622.34 1068.29 417.26 1255.28 434.11 1116.06 531.32 1062.80 634.37 1234.48 647.73
00007048 00000027 987.72 204.79 428.91 622.63 1061.07 421.66 1247.15 437.05 1108.65 539.18 1059.95 641.84 1227.20 654.16
00007049 00000028 979.70 207.74 431.40 630.13 1052.39 426.41 1236.72 445.05 1094.79 550.08 1050.89 650.49 1219.58 665.03
00007050 DELETE   970.36 204.69 436.36 648.45 1042.52 448.82 1220.06 462.95 1080.41 567.16 1048.44 665.96 1212.77 677.68
00007051 00000030 968.20 213.51 435.59 650.81 1042.10 452.70 1215.77 467.41 1076.43 571.49 1047.75 674.73 1202.21 687.44
00007052 00000031 964.02 213.07 438.97 649.82 1040.44 451.23 1214.05 466.84 1072.99 565.58 1041.80 678.24 1172.09 693.19
00007053 00000032 958.32 211.08 440.39 649.90 1036.06 448.82 1211.26 463.20 1067.95 559.88 1036.77 679.32 1158.82 693.36
00007054 00000033 956.61 206.94 441.73 650.18 1036.09 444.30 1210.59 457.00 1065.75 550.86 1036.76 674.08 1156.57 686.82
00007055 00000034 957.55 201.28 441.39 646.11 1036.21 441.68 1211.64 450.28 1066.90 543.41 1038.96 669.41 1157.39 678.86
00007056 00000035 960.91 196.74 439.03 637.93 1034.40 432.79 1212.59 442.49 1070.61 535.67 1041.54 662.61 1161.11 672.71
00007057 00000036 966.14 194.20 436.10 636.40 1039.10 425.69 1217.84 434.97 1075.46 531.66 1043.32 654.73 1172.84 664.77
00007058 00000037 972.49 194.34 433.77 634.27 1044.68 422.99 1227.88 430.26 1086.04 530.22 1050.84 651.55 1188.30 659.89
00007059 00000038 983.60 205.25 429.15 622.99 1056.36 417.13 1238.24 427.86 1099.25 525.80 1057.31 644.90 1200.85 655.40
00007060 00000039 989.15 209.19 429.36 614.74 1062.45 418.30 1242.96 427.86 1106.53 523.45 1062.60 641.05 1210.05 650.18
00007061 00000040 995.49 204.69 431.81 611.16 1066.60 418.30 1249.78 425.63 1111.81 518.95 1069.79 638.16 1222.24 644.48
00007062 00000041 1004.28 203.76 430.54 604.13 1071.86 415.15 1258.53 421.63 1115.45 515.24 1075.98 633.93 1232.13 639.33
00007063 00000042 1002.00 184.19 442.25 613.84 1081.64 412.84 1266.84 418.41 1128.20 511.75 1085.05 630.29 1229.47 635.65
00007064 00000043 1004.90 182.80 445.15 611.81 1082.59 412.08 1270.81 419.07 1132.67 516.19 1085.88 626.10 1239.73 632.77
00007065 00000044 1009.73 199.54 433.51 600.84 1075.33 420.26 1270.02 426.63 1128.25 527.21 1081.89 629.04 1258.59 632.88
00007066 00000045 1012.43 203.32 430.87 612.32 1081.46 420.57 1271.02 428.49 1131.25 533.02 1087.76 635.12 1262.07 639.75
00007067 00000046 1005.21 190.18 445.54 641.42 1081.13 413.83 1272.96 418.17 1131.47 521.48 1087.77 640.83 1254.57 645.26
00007068 00000047 1005.83 177.34 445.68 619.60 1083.54 411.90 1266.87 412.26 1129.61 508.97 1092.92 629.29 1239.26 630.39
00007069 DELETE   1008.27 174.96 439.34 611.74 1076.39 403.18 1266.05 397.41 1122.46 491.74 1083.36 609.93 1254.14 603.78
00007070 DELETE   1007.57 164.83 428.65 598.07 1078.94 393.72 1258.36 386.95 1125.71 464.83 1084.08 596.77 1241.78 590.14
00007071 00000050 1005.33 167.69 428.72 583.51 1076.32 386.44 1256.06 375.49 1123.32 457.16 1084.57 585.24 1240.17 575.76
00007072 00000051 1004.80 163.41 426.48 574.78 1070.72 382.94 1256.53 371.82 1118.70 453.49 1077.98 580.83 1240.71 571.29
00007073 00000052 1005.83 166.14 425.29 571.34 1072.93 380.61 1256.88 370.98 1121.21 453.70 1078.52 577.55 1240.00 569.50
00007074 00000053 1008.32 170.86 428.75 566.19 1075.15 381.12 1262.32 367.51 1125.86 450.19 1086.49 576.90 1247.72 565.51
00007075 00000054 1010.56 169.78 427.41 556.77 1075.24 378.71 1265.99 365.44 1127.67 444.69 1085.97 570.90 1252.71 559.83
00007076 00000055 1013.05 175.01 422.15 549.37 1081.46 372.57 1269.94 364.75 1133.46 441.25 1088.73 567.68 1249.80 562.01
00007077 00000056 1016.31 169.39 422.18 563.79 1087.44 370.75 1278.20 363.59 1139.51 439.57 1092.64 574.57 1253.66 569.62
00007078 00000057 1017.05 165.75 426.24 579.84 1091.62 371.33 1284.12 363.69 1145.21 441.87 1097.26 579.57 1262.45 573.77
00007079 00000058 1018.34 162.62 430.24 581.84 1095.32 368.40 1289.56 365.28 1148.42 441.57 1096.25 573.81 1262.48 571.39
00007080 00000059 1022.21 160.95 427.56 576.82 1096.50 366.39 1288.89 366.69 1146.29 441.81 1093.88 568.50 1259.40 569.21
00007081 00000060 1022.16 163.31 427.20 574.29 1099.27 366.67 1289.07 368.89 1148.97 441.88 1096.33 568.08 1256.54 570.50
00007082 00000061 1023.21 163.21 425.74 574.35 1101.04 366.34 1290.25 367.05 1151.28 442.30 1100.26 569.42 1256.76 570.50
00007083 00000062 1022.37 163.66 422.80 571.90 1101.07 367.23 1286.79 369.13 1150.75 445.57 1101.91 570.22 1251.13 572.20
00007084 00000063 1019.18 166.70 422.09 574.17 1098.86 364.17 1285.41 371.79 1147.99 451.12 1096.74 576.07 1241.33 583.40
00007085 00000064 1014.62 163.43 427.12 590.69 1091.28 371.47 1285.61 376.20 1143.82 458.43 1091.63 587.90 1256.04 592.14
00007086 00000065 1012.98 167.48 425.78 586.95 1086.29 376.04 1278.66 377.12 1139.44 461.07 1091.01 590.04 1261.71 590.90
00007087 00000066 1009.75 170.04 427.86 585.25 1082.50 379.08 1275.64 379.88 1138.20 463.12 1085.57 588.71 1259.85 589.02
00007088 00000067 1006.72 171.19 430.25 590.65 1078.97 380.20 1271.86 381.31 1135.77 468.89 1082.84 591.46 1260.73 591.42
00007089 00000068 1003.66 174.74 434.46 605.52 1072.30 391.98 1267.78 385.42 1128.46 475.43 1083.57 602.05 1263.96 595.05
00007090 00000069 998.60 186.18 433.18 606.01 1071.43 394.51 1261.76 389.01 1124.37 479.64 1082.51 607.48 1259.00 601.28
00007091 00000070 994.01 171.54 432.86 618.27 1070.43 387.20 1257.21 385.16 1123.72 484.88 1077.87 608.57 1255.76 604.64
00007092 00000071 991.66 172.98 433.23 610.71 1068.42 391.39 1256.31 390.31 1122.80 487.29 1074.25 607.35 1252.16 604.80
00007093 00000072 991.60 176.97 430.38 601.18 1066.29 390.99 1252.62 395.57 1116.07 492.17 1067.85 604.21 1241.99 606.55
00007094 DELETE   990.76 175.44 426.07 601.95 1065.39 391.37 1246.87 404.08 1109.73 498.34 1060.45 605.59 1218.35 615.52
00007095 00000074 985.58 184.37 432.46 605.69 1060.37 401.38 1238.79 407.66 1103.73 501.12 1060.42 611.05 1207.52 617.16
00007096 00000075 978.03 174.89 430.27 608.31 1048.15 404.77 1229.91 413.88 1088.97 506.18 1044.92 617.42 1181.39 627.26
00007097 00000076 970.65 188.81 432.83 598.91 1042.83 408.46 1221.80 418.08 1080.45 512.33 1040.80 625.06 1167.38 635.70
00007098 00000077 962.51 190.15 434.56 620.09 1037.36 417.05 1212.34 424.66 1073.90 519.99 1040.89 641.94 1156.87 650.89
00007099 00000078 953.04 187.89 434.51 637.89 1027.48 424.76 1203.28 433.99 1064.24 531.15 1037.00 654.57 1151.84 664.12
00007100 00000079 939.21 191.37 438.73 644.36 1015.47 435.33 1194.27 439.35 1060.23 538.80 1028.94 665.72 1148.95 670.60
00007101 DELETE   932.73 197.89 440.15 637.42 1014.98 430.03 1193.52 435.31 1061.53 532.16 1026.42 659.73 1150.74 665.40
00007102 00000081 932.84 202.97 437.66 629.39 1012.89 423.71 1193.70 426.03 1059.94 526.43 1024.40 653.95 1158.27 656.97
00007103 00000082 932.56 189.75 444.12 642.83 1009.19 417.25 1198.70 416.32 1060.24 521.65 1020.77 648.70 1168.96 649.20
00007104 00000083 934.01 191.43 443.37 636.80 1008.94 412.41 1198.22 410.96 1057.66 513.99 1020.13 643.41 1169.34 643.76
00007105 00000084 932.15 193.47 444.69 631.89 1009.82 408.74 1198.97 409.78 1059.40 514.48 1020.84 642.01 1161.89 644.54
00007106 00000085 932.74 184.93 444.59 626.54 1011.33 408.94 1201.89 416.13 1062.42 518.26 1017.32 634.40 1157.39 642.11
00007107 00000086 932.52 184.68 446.66 617.13 1010.01 411.08 1202.14 419.65 1062.68 520.67 1013.27 628.81 1162.82 637.38
00007108 00000087 936.68 183.85 442.48 616.46 1015.69 409.16 1206.28 421.16 1066.72 519.32 1015.60 627.05 1160.60 638.55
00007109 00000088 941.89 199.45 443.73 608.88 1020.37 410.85 1209.71 419.65 1070.72 515.89 1023.66 634.18 1161.67 642.80
00007110 00000089 949.98 190.53 443.12 617.20 1025.55 409.80 1216.39 417.66 1076.39 515.58 1027.82 632.86 1170.01 641.43
00007111 00000090 955.73 187.11 440.43 621.95 1030.90 405.60 1222.97 417.05 1082.89 521.93 1030.40 628.88 1182.53 640.51
00007112 00000091 959.86 190.76 436.70 624.37 1037.79 414.03 1226.47 421.58 1092.34 529.03 1043.04 639.78 1186.85 648.41
00007113 00000092 962.05 200.32 435.03 625.77 1040.64 420.02 1228.20 431.41 1093.57 540.01 1048.20 649.85 1186.69 661.51
00007114 00000093 965.30 199.88 432.10 621.05 1039.78 425.10 1227.83 438.46 1093.71 547.90 1046.49 651.56 1187.73 664.96
00007115 00000094 967.04 196.01 432.90 619.92 1040.92 422.83 1232.97 437.82 1098.02 547.61 1045.31 645.84 1195.09 660.68
00007116 00000095 975.19 198.04 428.68 606.01 1046.89 415.50 1237.23 430.75 1102.63 537.51 1048.21 636.73 1196.83 651.81
00007117 00000096 978.26 193.79 431.64 597.78 1049.74 405.28 1240.40 421.44 1104.35 529.57 1049.19 625.23 1202.32 640.76
00007118 00000097 977.84 184.73 434.78 605.03 1053.68 400.16 1241.99 417.60 1105.82 521.53 1051.52 617.14 1200.46 633.83
00007119 00000098 978.94 180.02 433.49 610.43 1053.35 396.74 1241.35 415.32 1103.62 516.86 1049.20 615.43 1198.31 633.05
00007120 00000099 978.17 179.76 433.65 614.05 1052.29 397.31 1239.41 415.36 1100.41 516.85 1047.71 618.26 1193.25 635.55
00007121 00000100 978.63 181.42 430.95 613.13 1051.36 399.17 1237.24 416.86 1097.94 517.63 1047.06 621.33 1187.60 638.51
00007122 00000101 976.24 184.13 432.37 609.39 1049.68 401.70 1236.21 419.26 1096.78 522.07 1045.71 625.04 1186.10 642.22
00007123 00000102 976.30 192.29 431.89 604.40 1048.72 405.24 1236.09 421.16 1097.32 525.62 1047.02 629.08 1189.44 644.85
00007124 00000103 977.77 193.82 430.38 603.36 1047.75 405.91 1236.80 420.77 1098.19 529.27 1047.52 631.24 1196.32 645.88
00007125 00000104 979.06 196.32 429.96 597.07 1047.46 407.63 1237.93 421.28 1099.94 529.52 1047.73 630.56 1202.31 643.91
00007126 00000105 980.64 198.45 429.55 592.79 1050.71 405.50 1240.17 420.51 1103.03 528.90 1050.21 625.80 1207.46 640.03
00007127 00000106 981.50 194.12 433.51 589.95 1058.04 403.18 1248.24 419.08 1107.94 520.19 1053.26 617.68 1220.02 630.24
00007128 00000107 984.59 182.27 434.10 595.75 1062.52 397.51 1254.10 411.67 1113.62 508.40 1056.88 610.49 1228.35 621.43
00007129 00000108 991.51 172.66 431.14 600.38 1071.52 392.20 1262.04 408.00 1121.29 496.25 1063.22 605.53 1235.33 617.49
00007130 00000109 992.94 178.43 435.87 590.44 1074.11 386.19 1268.74 401.82 1125.36 491.18 1066.85 599.51 1242.07 611.47
00007131 00000110 998.55 173.25 435.59 593.07 1079.50 380.85 1276.30 397.77 1132.20 483.96 1071.44 594.41 1248.47 607.37
00007132 00000111 1002.89 169.32 431.81 594.61 1081.75 378.71 1280.77 394.02 1136.83 478.35 1074.25 593.41 1251.07 605.40
00007133 00000112 1007.72 167.86 429.68 588.96 1087.52 377.77 1282.75 395.18 1137.24 471.57 1074.86 591.31 1240.23 605.87
00007134 00000113 1008.47 163.69 431.50 589.59 1086.67 376.24 1279.26 395.59 1133.39 467.30 1071.01 584.65 1235.18 600.49
00007135 00000114 1008.78 164.33 433.41 596.66 1085.76 374.25 1277.73 391.06 1127.82 465.39 1070.94 590.96 1230.97 605.25
00007136 00000115 1005.17 175.32 440.20 598.19 1085.59 385.44 1273.93 396.91 1128.46 472.73 1080.88 600.24 1232.44 609.47
00007137 00000116 1005.23 176.69 437.29 604.05 1078.48 391.21 1270.41 403.13 1120.80 481.58 1075.06 607.70 1237.39 616.98
00007138 00000117 1003.59 186.99 434.98 604.53 1072.99 399.14 1266.10 409.06 1116.38 490.29 1071.26 617.91 1237.56 625.64
00007139 00000118 1001.35 187.21 432.56 608.99 1067.71 407.32 1259.22 413.88 1108.11 492.33 1067.03 625.02 1236.20 630.01
00007140 00000119 999.41 184.76 430.69 610.66 1064.61 409.66 1248.44 418.98 1097.86 495.96 1060.74 626.66 1220.73 634.28
00007141 00000120 998.99 186.05 426.88 605.51 1066.25 405.92 1240.92 423.41 1089.18 498.27 1050.07 621.87 1191.13 637.38
00007142 00000121 998.21 184.39 424.96 596.28 1066.84 404.39 1231.40 424.44 1081.35 498.69 1041.12 610.38 1167.05 627.89
00007143 00000122 989.73 180.98 420.77 590.12 1061.24 392.18 1225.13 425.96 1067.24 488.11 1026.39 597.86 1146.84 628.22
00007144 00000123 991.11 176.04 424.03 594.99 1065.02 386.74 1230.22 419.36 1069.92 481.51 1029.27 595.29 1148.27 624.85
00007145 00000124 989.15 177.54 438.96 606.92 1074.60 390.92 1233.76 422.90 1077.32 487.87 1034.79 598.40 1155.20 626.35
CROP_BBOX: 538 0 1712 1080
