Video ID: 	Y7uE_wvRKiI
H: 	2160
W: 	3840
FPS: 	25.0

FRAME INDEX X0 Y0 W H [Landmarks (5 Points)]

00002623 00000000 1744.28 366.37 787.03 1097.51 1897.89 868.71 2241.41 831.64 2057.89 1082.30 1997.74 1212.97 2302.39 1179.44
00002624 00000001 1733.73 366.65 791.90 1097.72 1884.99 866.15 2227.68 828.50 2044.55 1078.79 1989.78 1209.31 2295.50 1174.58
00002625 00000002 1733.40 372.64 792.32 1091.05 1879.04 868.12 2221.27 825.90 2035.81 1078.72 1987.57 1208.59 2296.06 1170.02
00002626 00000003 1734.78 370.57 794.04 1094.73 1877.72 868.12 2226.65 822.33 2038.01 1083.71 1987.56 1211.23 2305.63 1170.05
00002627 00000004 1738.02 365.49 798.85 1103.62 1880.31 871.01 2229.20 818.81 2040.21 1086.08 1988.83 1211.91 2314.62 1165.67
00002628 00000005 1742.09 355.06 803.05 1113.90 1888.24 865.48 2236.78 814.39 2047.82 1081.59 1995.02 1208.93 2320.15 1163.85
00002629 00000006 1745.51 354.63 811.69 1111.62 1896.85 863.37 2241.01 810.10 2055.26 1078.77 2004.48 1203.89 2325.90 1157.32
00002630 00000007 1751.37 344.37 814.69 1118.80 1906.66 857.92 2253.15 802.60 2067.13 1072.99 2011.50 1199.37 2336.37 1151.63
00002631 00000008 1760.02 349.21 822.92 1116.97 1916.55 852.80 2268.20 799.70 2074.78 1066.67 2016.08 1193.19 2348.07 1147.47
00002632 00000009 1768.51 345.55 826.39 1120.54 1926.50 851.95 2285.86 790.49 2091.38 1063.09 2029.62 1195.09 2367.74 1142.67
00002633 00000010 1787.32 340.41 828.04 1121.13 1945.34 841.74 2296.34 785.81 2113.05 1054.98 2066.18 1196.31 2387.59 1146.10
00002634 00000011 1799.73 335.29 828.90 1137.81 1956.85 850.03 2312.03 793.19 2129.91 1056.86 2073.72 1201.44 2403.71 1149.68
00002635 DELETE   1822.48 345.37 827.01 1136.58 1972.07 852.79 2329.16 798.40 2140.45 1064.12 2084.36 1200.39 2422.98 1149.75
00002636 DELETE   1848.21 354.61 818.13 1131.33 1990.16 860.26 2344.14 808.18 2150.98 1071.39 2097.97 1209.30 2434.13 1161.39
00002637 00000014 1869.42 360.55 808.70 1128.24 2011.01 870.39 2367.17 818.99 2171.45 1077.17 2111.94 1216.84 2447.62 1170.31
00002638 00000015 1882.48 364.00 804.17 1126.74 2028.06 875.27 2388.41 825.60 2188.95 1087.23 2121.52 1220.94 2462.25 1176.93
00002639 00000016 1888.91 369.00 807.76 1130.51 2043.30 879.18 2399.50 827.36 2204.25 1091.15 2133.12 1222.25 2472.74 1177.37
00002640 00000017 1899.07 377.09 812.29 1131.41 2061.13 893.19 2413.99 838.42 2222.87 1096.62 2151.67 1233.56 2483.16 1186.50
00002641 00000018 1915.81 394.14 811.87 1137.08 2079.48 900.81 2433.28 845.55 2239.38 1110.40 2167.92 1247.70 2500.77 1200.06
00002642 00000019 1937.59 389.01 802.17 1146.13 2086.45 898.35 2448.62 852.32 2256.10 1114.37 2187.18 1251.04 2528.28 1209.48
00002643 00000020 1943.41 399.70 804.92 1156.26 2091.19 906.72 2450.57 863.64 2253.32 1122.66 2186.48 1262.35 2528.13 1223.71
00002644 00000021 1945.54 409.41 805.54 1162.36 2092.71 917.09 2446.76 873.37 2247.26 1129.18 2183.26 1268.44 2526.86 1229.23
00002645 00000022 1944.78 413.16 805.02 1170.64 2090.84 916.29 2443.99 872.17 2241.22 1129.53 2179.03 1272.95 2522.09 1233.83
00002646 00000023 1942.47 402.68 806.57 1187.57 2086.06 915.85 2439.86 869.32 2235.38 1123.93 2173.81 1275.67 2517.42 1234.47
00002647 00000024 1938.30 383.48 806.53 1202.73 2080.97 903.76 2440.44 855.98 2231.37 1111.16 2166.00 1269.62 2511.99 1227.34
00002648 00000025 1938.07 357.18 809.02 1211.63 2074.25 881.03 2451.16 837.62 2229.77 1087.96 2156.79 1260.22 2506.96 1221.76
00002649 00000026 1917.17 340.71 814.21 1171.03 2073.75 863.47 2439.85 829.24 2220.39 1073.36 2144.86 1233.98 2472.85 1204.77
00002650 00000027 1918.90 326.42 813.55 1158.43 2071.61 833.03 2435.41 803.57 2214.77 1036.70 2140.07 1205.97 2465.33 1180.07
00002651 00000028 1912.16 307.11 816.22 1174.59 2066.25 816.69 2432.10 785.01 2208.44 1005.65 2131.85 1198.82 2455.40 1169.91
00002652 00000029 1901.89 303.05 813.55 1185.64 2056.48 809.33 2422.68 774.04 2201.38 999.37 2122.17 1198.29 2450.68 1166.61
00002653 00000030 1894.01 311.54 810.83 1177.41 2047.93 819.96 2409.22 783.07 2194.03 1003.33 2115.24 1198.86 2445.33 1165.07
00002654 00000031 1890.45 321.49 795.75 1167.26 2035.99 828.18 2397.39 797.86 2181.06 1015.10 2101.38 1195.26 2439.43 1166.87
00002655 00000032 1880.45 331.91 796.38 1158.75 2023.22 840.66 2379.75 805.96 2172.72 1025.27 2097.14 1197.37 2433.66 1164.80
00002656 00000033 1861.99 341.72 803.29 1159.04 2002.00 857.75 2361.13 815.33 2158.11 1036.57 2082.19 1207.43 2422.03 1167.45
00002657 00000034 1851.35 346.63 803.85 1159.37 1987.71 867.95 2351.96 822.99 2143.49 1053.54 2073.11 1218.82 2414.53 1176.30
00002658 00000035 1844.84 358.98 797.64 1151.66 1979.23 873.45 2343.48 830.93 2133.47 1062.48 2064.28 1223.61 2405.38 1183.13
00002659 00000036 1832.90 364.78 795.97 1147.65 1971.55 871.65 2331.65 831.28 2125.31 1068.01 2058.29 1225.48 2395.94 1187.33
00002660 00000037 1825.71 370.48 782.23 1143.79 1960.58 873.48 2320.88 830.95 2114.80 1069.02 2049.31 1231.60 2385.03 1192.09
00002661 00000038 1816.15 372.92 782.47 1145.47 1949.72 878.96 2308.90 832.71 2103.92 1072.20 2039.14 1234.74 2375.55 1192.59
00002662 00000039 1807.68 381.66 783.05 1138.57 1939.78 881.91 2300.23 835.64 2090.63 1071.65 2027.53 1236.31 2364.54 1194.81
00002663 00000040 1797.55 402.49 778.98 1124.88 1954.20 885.31 2300.38 838.18 2100.65 1076.96 2023.21 1237.22 2347.34 1198.81
00002664 00000041 1803.72 373.08 788.91 1145.26 1946.17 879.18 2314.39 836.57 2103.54 1066.64 2025.19 1230.17 2368.00 1191.96
00002665 00000042 1808.95 370.74 789.15 1141.90 1958.52 872.88 2333.05 833.49 2125.90 1067.60 2033.47 1226.36 2384.32 1190.61
00002666 00000043 1821.48 362.17 789.14 1156.45 1975.33 868.79 2356.20 842.32 2147.90 1071.03 2040.66 1224.73 2397.03 1198.95
00002667 00000044 1831.74 365.20 790.47 1157.36 2001.73 868.13 2377.96 852.15 2179.23 1075.32 2054.10 1218.66 2409.86 1201.95
00002668 00000045 1839.61 368.27 780.89 1165.13 2021.80 875.41 2394.03 862.07 2204.45 1082.51 2067.65 1227.68 2418.49 1213.70
00002669 00000046 1839.77 374.61 782.89 1169.20 2028.76 886.40 2400.67 871.03 2216.28 1088.03 2071.17 1236.70 2424.99 1221.92
00002670 00000047 1833.85 378.80 783.90 1170.49 2029.56 889.85 2400.89 874.62 2220.62 1090.28 2069.22 1238.40 2423.51 1224.54
00002671 00000048 1823.37 385.58 795.48 1169.30 2026.58 893.00 2398.48 878.19 2219.61 1096.95 2065.74 1240.66 2420.26 1227.53
00002672 00000049 1818.44 384.57 796.82 1175.94 2018.25 897.02 2396.00 880.50 2214.49 1102.65 2059.40 1244.97 2418.09 1230.23
00002673 00000050 1821.65 388.91 784.22 1175.42 2011.87 902.26 2393.26 885.42 2208.51 1111.33 2051.03 1247.97 2417.70 1232.55
00002674 00000051 1813.30 387.16 789.47 1175.08 2003.86 902.81 2385.61 883.27 2201.57 1111.32 2044.40 1246.97 2412.62 1228.74
00002675 00000052 1809.16 382.19 793.84 1172.61 1996.52 895.96 2381.12 876.54 2194.88 1107.85 2039.95 1243.35 2409.62 1225.11
00002676 00000053 1804.58 374.51 794.97 1173.99 1989.22 888.98 2381.28 870.93 2190.06 1105.45 2035.09 1242.55 2407.84 1225.44
00002677 00000054 1802.37 369.98 800.53 1178.02 1988.93 887.06 2383.80 869.50 2189.91 1104.87 2033.11 1242.61 2407.87 1226.38
00002678 00000055 1806.19 353.01 799.74 1198.70 2000.85 876.03 2394.96 860.70 2207.82 1106.95 2038.66 1236.39 2417.98 1223.27
00002679 00000056 1812.89 346.59 806.17 1204.17 2015.00 868.46 2409.20 847.84 2231.23 1101.91 2054.67 1235.35 2434.88 1219.06
00002680 00000057 1819.97 338.88 816.28 1211.83 2030.63 858.47 2435.34 833.53 2262.48 1091.47 2073.49 1235.49 2462.37 1215.64
00002681 00000058 1831.97 338.42 819.36 1210.96 2056.92 861.54 2460.20 829.62 2299.29 1093.28 2093.63 1235.84 2490.02 1210.11
00002682 00000059 1831.42 337.56 828.99 1211.03 2074.06 857.95 2475.90 823.10 2320.79 1089.21 2104.92 1234.39 2498.69 1206.49
00002683 00000060 1844.79 338.82 823.37 1209.24 2088.38 856.85 2482.21 818.53 2330.34 1088.90 2117.62 1234.10 2506.02 1203.57
00002684 00000061 1857.02 342.09 818.46 1205.39 2099.50 855.21 2490.23 819.27 2339.66 1086.40 2126.79 1236.35 2510.17 1208.33
00002685 00000062 1874.97 345.76 803.65 1206.65 2110.10 858.32 2498.73 826.47 2349.27 1086.11 2134.07 1241.18 2515.05 1217.00
00002686 00000063 1877.30 352.30 804.60 1211.13 2120.53 861.76 2511.00 836.74 2359.65 1086.30 2139.81 1247.45 2518.69 1229.01
00002687 00000064 1881.26 360.25 803.07 1216.22 2128.17 868.86 2514.86 847.00 2364.52 1089.60 2143.22 1255.53 2518.12 1239.59
00002688 00000065 1882.71 366.78 809.12 1208.95 2130.25 871.55 2510.66 851.54 2379.23 1089.81 2157.89 1253.76 2519.52 1236.44
00002689 00000066 1884.09 370.31 802.70 1197.43 2133.49 871.65 2507.03 851.99 2380.82 1092.59 2172.45 1268.58 2505.94 1252.02
00002690 00000067 1879.77 371.00 792.04 1192.14 2129.95 868.43 2508.98 855.61 2367.55 1087.34 2171.53 1277.35 2499.89 1266.86
00002691 00000068 1875.63 372.07 794.83 1185.80 2129.77 867.25 2507.16 853.13 2369.58 1083.99 2174.66 1273.40 2501.79 1261.67
00002692 00000069 1872.17 377.49 787.48 1187.75 2127.53 871.91 2501.15 859.06 2367.49 1083.53 2172.61 1276.62 2496.13 1265.38
00002693 00000070 1871.69 381.80 781.12 1198.89 2128.62 875.06 2487.76 858.33 2380.29 1083.89 2180.24 1279.05 2489.48 1264.50
00002694 00000071 1860.69 393.54 784.14 1180.66 2121.42 876.35 2478.36 861.35 2372.51 1086.19 2172.09 1272.02 2484.55 1258.34
00002695 00000072 1853.92 400.65 783.57 1157.04 2115.12 876.44 2473.08 862.34 2362.70 1086.95 2161.31 1263.46 2477.71 1250.71
00002696 00000073 1842.62 399.90 782.28 1158.24 2109.39 879.07 2478.23 865.97 2353.79 1083.94 2139.48 1255.71 2479.11 1245.14
00002697 00000074 1836.74 395.99 785.11 1161.12 2107.23 875.25 2473.23 863.07 2352.15 1081.20 2136.53 1251.49 2474.44 1241.66
00002698 00000075 1837.25 395.39 781.66 1151.40 2106.32 869.53 2468.58 857.52 2352.48 1074.20 2144.57 1250.46 2468.21 1240.13
00002699 00000076 1836.97 393.85 778.65 1143.87 2104.77 865.93 2463.17 850.18 2352.94 1067.42 2154.18 1249.87 2465.38 1236.83
00002700 00000077 1834.81 389.70 778.26 1132.55 2101.61 860.95 2457.10 843.08 2348.73 1060.22 2164.02 1246.09 2463.26 1231.18
00002701 00000078 1833.68 385.05 774.07 1130.04 2098.28 858.21 2450.49 835.84 2346.07 1056.61 2168.83 1246.14 2458.74 1227.63
00002702 00000079 1830.12 382.01 771.68 1133.15 2095.74 853.61 2445.77 834.97 2342.40 1043.67 2169.40 1245.19 2451.81 1229.92
00002703 00000080 1829.39 379.54 772.22 1131.63 2093.64 849.94 2445.35 831.10 2342.49 1035.55 2166.78 1239.59 2454.71 1223.93
00002704 00000081 1827.55 374.63 778.79 1130.52 2089.45 841.51 2451.61 825.06 2340.95 1029.99 2159.16 1230.89 2462.70 1217.01
00002705 00000082 1825.63 369.68 786.33 1132.74 2086.31 836.93 2457.43 822.08 2339.36 1027.70 2152.30 1225.53 2466.47 1212.56
00002706 00000083 1828.55 367.28 785.29 1136.03 2082.55 837.19 2454.98 819.54 2335.70 1027.86 2147.54 1222.65 2469.59 1208.03
00002707 00000084 1826.74 366.26 790.02 1136.38 2082.19 837.06 2455.92 817.84 2335.04 1027.49 2145.64 1221.17 2469.74 1205.30
00002708 00000085 1822.52 364.29 797.15 1142.62 2077.27 836.48 2456.73 814.44 2332.50 1024.58 2140.96 1221.42 2471.48 1203.44
00002709 00000086 1817.45 361.76 803.13 1146.81 2071.47 836.83 2450.67 812.34 2324.38 1025.90 2135.67 1222.28 2466.00 1202.48
00002710 00000087 1812.60 353.65 802.58 1153.42 2056.67 857.62 2428.21 823.25 2298.20 1029.59 2124.34 1222.98 2453.31 1195.65
00002711 00000088 1806.79 351.46 791.42 1147.30 2024.05 867.92 2395.34 832.86 2248.56 1026.68 2097.74 1218.59 2431.13 1190.96
00002712 DELETE   1768.92 352.17 801.84 1156.44 2000.25 869.62 2372.28 824.87 2232.44 1032.95 2060.42 1233.17 2400.69 1197.62
00002713 DELETE   1749.10 356.55 808.48 1177.86 1960.52 867.12 2340.35 815.59 2182.37 1040.23 2023.97 1242.89 2376.97 1199.52
00002714 00000091 1726.22 352.96 816.11 1195.48 1931.97 866.60 2320.03 813.48 2154.13 1038.58 1999.48 1249.48 2359.27 1203.31
00002715 00000092 1706.54 360.69 820.63 1183.95 1908.25 869.66 2294.31 810.28 2135.19 1048.56 1984.58 1251.24 2343.45 1199.58
00002716 00000093 1695.73 371.37 824.17 1171.95 1894.45 870.86 2276.96 808.35 2119.01 1060.28 1977.13 1252.55 2332.83 1198.31
00002717 00000094 1688.66 377.25 825.54 1170.64 1887.10 874.12 2272.87 808.54 2115.10 1065.11 1972.77 1256.62 2332.24 1200.04
00002718 00000095 1689.50 379.65 823.12 1172.60 1886.13 879.68 2272.55 814.99 2111.58 1068.57 1970.73 1260.45 2331.68 1204.86
00002719 00000096 1689.45 382.31 826.03 1173.19 1887.38 886.27 2275.80 821.00 2112.69 1076.27 1969.01 1264.28 2332.45 1208.76
00002720 00000097 1690.18 381.99 827.60 1177.70 1888.54 889.15 2278.43 823.67 2114.64 1083.64 1968.37 1267.06 2334.01 1211.46
00002721 00000098 1695.03 384.23 825.48 1175.21 1892.10 893.93 2280.32 827.88 2116.51 1088.68 1971.81 1268.26 2336.80 1212.18
00002722 00000099 1696.38 381.01 824.16 1178.08 1895.03 893.78 2282.33 828.46 2119.35 1088.56 1971.66 1265.61 2338.70 1210.27
00002723 00000100 1698.17 382.55 823.31 1172.50 1894.78 894.77 2281.46 828.58 2117.35 1088.22 1971.11 1263.14 2339.49 1207.07
00002724 00000101 1697.77 383.61 817.07 1170.39 1888.10 901.11 2273.40 834.06 2106.87 1086.48 1965.14 1262.87 2332.94 1205.97
00002725 00000102 1692.81 389.47 815.95 1163.47 1873.98 901.00 2253.55 838.66 2080.57 1091.26 1956.37 1260.47 2316.12 1207.14
00002726 00000103 1690.05 391.21 803.50 1154.77 1858.62 905.39 2232.51 848.52 2055.52 1100.12 1945.39 1259.78 2300.03 1209.67
00002727 00000104 1681.21 392.44 806.05 1152.33 1842.85 901.63 2211.02 847.53 2029.98 1103.17 1933.93 1257.93 2283.68 1209.88
00002728 00000105 1673.57 393.89 807.87 1149.14 1828.07 900.86 2194.21 844.70 2007.48 1101.24 1923.33 1257.97 2269.72 1208.46
00002729 00000106 1670.37 395.71 802.71 1147.57 1819.16 898.45 2179.71 842.85 1990.76 1101.76 1918.31 1258.01 2260.19 1208.77
00002730 00000107 1668.02 404.34 796.93 1137.88 1816.17 909.02 2175.72 853.17 1985.32 1098.24 1912.60 1255.62 2256.78 1206.16
00002731 00000108 1661.50 417.50 795.64 1123.02 1816.31 916.49 2170.53 855.89 1984.50 1095.00 1911.61 1252.41 2255.83 1198.69
00002732 00000109 1662.48 421.10 800.78 1124.22 1808.96 912.94 2163.20 851.04 1970.59 1101.70 1905.71 1256.70 2250.47 1202.17
00002733 00000110 1666.56 431.36 794.65 1110.73 1806.29 911.00 2159.99 849.81 1965.01 1105.77 1904.68 1258.43 2246.48 1204.40
00002734 00000111 1670.75 432.16 793.50 1110.17 1807.33 906.60 2161.66 849.17 1963.61 1104.94 1905.15 1257.57 2245.80 1206.71
00002735 00000112 1668.43 435.50 804.50 1106.85 1808.20 906.11 2158.93 849.07 1962.95 1106.71 1909.60 1257.18 2246.12 1206.63
00002736 00000113 1671.99 429.35 799.51 1112.67 1809.95 904.33 2159.51 848.15 1964.32 1104.44 1911.35 1256.13 2247.65 1206.21
00002737 00000114 1675.98 432.13 796.33 1106.13 1812.36 902.40 2163.68 844.98 1967.26 1101.41 1916.24 1255.80 2251.77 1204.56
00002738 00000115 1680.13 426.27 793.86 1111.02 1813.76 902.21 2164.89 845.71 1968.61 1100.36 1919.57 1256.89 2252.83 1206.33
00002739 00000116 1683.71 427.69 792.84 1107.27 1817.37 903.44 2168.00 846.74 1973.32 1101.33 1923.89 1257.92 2254.75 1207.13
00002740 00000117 1691.33 431.44 792.49 1101.96 1822.44 904.94 2171.03 849.06 1977.13 1101.64 1930.02 1259.61 2254.27 1209.48
00002741 00000118 1704.80 432.27 784.74 1103.51 1833.36 908.38 2179.95 853.78 1986.48 1104.49 1937.56 1261.24 2258.75 1212.65
00002742 00000119 1710.81 428.82 777.16 1110.63 1839.84 909.42 2181.57 857.58 1991.59 1110.52 1944.93 1264.09 2260.22 1218.00
00002743 00000120 1711.86 429.27 784.30 1112.26 1841.59 908.22 2180.32 861.02 1989.03 1108.65 1946.37 1268.18 2247.84 1226.80
00002744 00000121 1719.74 427.66 777.72 1114.50 1845.81 907.05 2180.49 858.80 1991.31 1103.37 1952.10 1271.72 2245.03 1230.03
00002745 00000122 1734.55 441.97 778.95 1102.77 1861.58 912.86 2194.10 856.49 2012.48 1105.33 1960.70 1283.86 2248.64 1235.29
00002746 00000123 1740.08 436.36 789.74 1102.75 1867.82 915.19 2202.76 856.29 2017.39 1104.96 1967.12 1283.18 2262.02 1231.17
00002747 00000124 1747.58 437.72 790.36 1096.75 1877.65 914.45 2215.89 855.63 2026.27 1103.99 1974.93 1280.97 2273.79 1228.79
00002748 00000125 1761.09 433.30 777.39 1094.07 1890.72 916.16 2228.67 854.21 2038.40 1097.72 1984.36 1277.75 2282.65 1223.36
00002749 00000126 1759.93 434.17 776.28 1089.30 1911.32 917.62 2230.30 854.82 2048.86 1087.67 2008.28 1267.15 2283.91 1214.74
00002750 00000127 1773.98 435.08 769.41 1076.14 1923.79 922.88 2241.66 854.84 2071.15 1075.55 2020.96 1264.47 2297.81 1205.64
00002751 00000128 1782.36 427.88 780.93 1073.90 1930.46 908.03 2253.58 828.83 2087.09 1063.20 2039.34 1258.51 2317.57 1190.97
00002752 00000129 1796.84 412.81 785.37 1080.94 1932.72 880.49 2267.55 810.19 2083.95 1047.52 2052.83 1240.96 2337.22 1181.40
00002753 00000130 1800.83 404.05 787.38 1081.41 1939.47 866.41 2273.33 795.95 2092.37 1030.20 2059.76 1233.48 2337.30 1174.21
00002754 00000131 1805.12 394.83 799.66 1088.06 1946.30 865.53 2282.23 792.38 2102.12 1030.32 2070.68 1233.11 2350.64 1171.45
00002755 00000132 1811.11 394.16 799.83 1090.29 1952.00 865.18 2290.77 791.37 2111.95 1030.65 2076.05 1233.80 2360.27 1171.22
00002756 00000133 1815.84 392.05 801.15 1089.34 1954.96 865.83 2294.68 792.59 2115.80 1030.74 2076.87 1233.53 2362.98 1171.37
00002757 00000134 1819.47 390.87 804.35 1088.15 1961.73 862.20 2304.53 791.24 2123.89 1026.62 2083.88 1232.07 2369.52 1171.74
00002758 00000135 1824.85 386.04 800.44 1092.35 1966.05 861.48 2312.15 789.82 2129.24 1019.87 2086.71 1230.83 2374.91 1170.11
00002759 00000136 1827.78 382.49 805.42 1093.39 1970.15 858.75 2319.58 782.91 2133.97 1005.17 2088.32 1227.08 2379.86 1163.24
00002760 00000137 1832.43 376.20 810.80 1098.39 1976.18 853.67 2327.14 773.46 2143.33 995.17 2092.45 1221.12 2388.04 1153.68
00002761 00000138 1840.53 373.32 809.74 1094.69 1986.04 843.81 2333.51 767.56 2151.37 984.55 2097.94 1213.87 2390.50 1150.02
00002762 00000139 1846.98 367.49 802.69 1088.71 1990.64 836.98 2339.26 759.75 2156.57 975.79 2099.64 1208.64 2394.44 1144.64
00002763 00000140 1854.27 360.62 801.91 1092.20 1995.66 832.67 2344.09 754.52 2161.57 969.73 2101.74 1206.24 2398.92 1141.95
00002764 00000141 1861.26 355.15 800.83 1085.35 1999.11 827.37 2347.81 750.36 2161.86 964.98 2099.15 1198.14 2400.89 1135.02
00002765 00000142 1865.76 348.00 789.50 1083.75 2004.07 817.56 2350.39 739.95 2167.22 950.06 2100.29 1185.67 2402.00 1123.00
00002766 00000143 1867.72 343.95 793.10 1081.82 2004.15 813.20 2351.70 734.68 2165.61 944.24 2099.25 1180.89 2403.14 1116.59
00002767 00000144 1868.31 341.34 791.81 1079.39 2007.97 806.34 2354.59 731.89 2171.52 940.11 2102.12 1172.98 2403.54 1112.32
00002768 00000145 1868.27 336.26 791.43 1080.98 2011.06 800.15 2360.96 728.74 2177.06 933.11 2103.73 1167.26 2404.51 1109.23
00002769 00000146 1873.09 319.76 792.99 1089.21 2016.19 798.69 2369.12 725.66 2183.66 927.83 2103.55 1161.59 2410.86 1102.12
00002770 00000147 1877.25 315.53 795.95 1088.99 2024.26 788.79 2379.89 718.00 2194.18 921.19 2115.25 1164.67 2410.11 1107.70
00002771 00000148 1878.93 311.45 798.19 1108.18 2032.76 789.79 2390.16 715.55 2209.48 926.43 2129.33 1173.35 2425.68 1113.79
00002772 00000149 1881.03 314.78 798.07 1110.99 2037.64 791.65 2404.29 722.54 2221.03 942.13 2132.61 1180.46 2440.85 1124.31
CROP_BBOX: 1274 0 3230 1979
