Video ID: 	moqy9hUORgk
H: 	2160
W: 	3840
FPS: 	25.0

FRAME INDEX X0 Y0 W H [Landmarks (5 Points)]

00010015 00000000 2234.31 488.80 586.88 960.25 2432.42 924.65 2701.14 927.66 2604.04 1105.18 2449.93 1231.02 2674.57 1234.75
00010016 DELETE   2245.63 487.79 580.27 965.05 2445.11 927.61 2711.69 929.67 2617.67 1109.03 2461.43 1233.52 2684.22 1236.80
00010017 DELETE   2244.76 486.01 590.63 962.81 2452.76 922.52 2727.92 921.70 2633.94 1102.71 2473.96 1239.49 2687.95 1241.58
00010018 00000003 2258.98 482.68 575.20 963.74 2461.33 925.96 2724.39 929.78 2637.38 1100.85 2477.34 1229.41 2693.38 1234.59
00010019 00000004 2261.70 481.97 576.28 964.57 2467.03 925.09 2728.04 930.56 2642.60 1099.94 2484.20 1232.07 2695.12 1238.43
00010020 00000005 2266.54 480.52 582.25 973.35 2473.64 925.68 2735.32 932.34 2649.26 1103.98 2488.03 1233.25 2705.35 1240.39
00010021 DELETE   2270.41 483.76 582.59 973.51 2477.32 928.75 2741.37 927.97 2659.11 1100.30 2498.73 1235.55 2714.24 1237.67
00010022 DELETE   2275.48 486.79 585.35 964.77 2485.03 929.70 2748.25 930.47 2665.18 1100.67 2507.96 1238.98 2714.91 1242.26
00010023 DELETE   2276.62 489.06 590.45 963.20 2489.24 929.16 2753.99 930.39 2670.54 1101.16 2510.28 1236.72 2723.48 1240.27
00010024 00000009 2285.57 485.02 586.65 970.56 2498.96 926.67 2763.24 930.13 2679.53 1099.30 2521.37 1240.85 2727.46 1245.77
00010025 00000010 2291.39 497.72 578.86 959.33 2505.05 928.83 2773.27 932.96 2685.90 1101.11 2527.66 1244.69 2733.85 1249.94
00010026 00000011 2304.52 497.45 570.69 959.35 2514.62 925.28 2778.28 933.46 2689.98 1099.66 2535.10 1243.64 2733.16 1251.02
00010027 00000012 2309.36 498.71 569.36 950.90 2521.77 924.68 2783.74 934.57 2695.99 1099.50 2537.26 1240.09 2736.79 1248.93
00010028 00000013 2320.60 482.63 568.50 951.89 2527.81 920.93 2791.48 934.41 2698.40 1105.17 2534.74 1231.20 2738.33 1244.85
00010029 00000014 2320.95 481.31 570.52 950.55 2534.49 917.58 2793.82 933.22 2702.75 1099.11 2540.57 1229.36 2734.47 1244.48
00010030 00000015 2315.92 473.96 578.59 960.83 2542.79 908.52 2808.14 930.38 2715.92 1093.40 2545.93 1228.19 2731.60 1248.43
00010031 00000016 2321.99 480.07 572.31 958.27 2540.79 912.82 2799.66 933.66 2722.26 1085.20 2539.47 1222.07 2737.42 1243.60
00010032 00000017 2318.96 492.33 578.97 929.75 2541.86 914.79 2812.87 932.11 2724.40 1091.81 2549.22 1227.88 2753.36 1247.02
00010033 00000018 2325.15 466.84 575.01 955.98 2543.28 907.29 2813.79 925.46 2730.90 1077.19 2551.96 1218.92 2761.64 1237.53
00010034 00000019 2330.55 472.42 574.51 947.21 2556.30 894.82 2824.52 921.99 2732.31 1076.50 2560.62 1217.10 2763.66 1240.92
00010035 00000020 2333.50 473.74 575.31 941.94 2561.95 884.77 2829.17 919.82 2734.80 1070.68 2563.07 1215.06 2763.94 1243.53
00010036 00000021 2339.92 478.05 579.65 939.03 2568.29 882.78 2831.44 917.08 2745.13 1063.99 2571.65 1212.17 2767.56 1241.51
00010037 00000022 2340.18 478.47 579.54 938.84 2568.51 882.93 2831.80 917.33 2745.59 1064.12 2571.82 1212.31 2768.09 1241.72
00010038 00000023 2343.15 484.55 583.90 933.71 2577.20 880.90 2833.63 921.66 2749.04 1067.47 2572.40 1210.98 2758.86 1244.51
00010039 00000024 2354.92 484.08 578.92 940.22 2584.57 877.10 2835.68 924.94 2752.95 1069.46 2569.13 1210.42 2750.75 1249.27
00010040 00000025 2359.15 486.94 578.99 939.18 2588.67 874.62 2838.79 925.55 2753.30 1069.71 2568.95 1208.13 2749.46 1249.47
00010041 00000026 2360.47 491.35 581.51 935.46 2592.66 870.86 2840.64 925.55 2753.69 1066.88 2566.34 1204.87 2745.04 1249.33
00010042 00000027 2364.16 494.10 578.38 936.59 2590.84 871.40 2839.80 930.50 2750.72 1067.63 2554.73 1200.96 2741.27 1249.91
00010043 00000028 2360.38 491.66 578.21 937.49 2583.96 875.11 2835.68 933.86 2745.23 1072.40 2546.04 1202.15 2736.27 1251.02
00010044 00000029 2353.34 497.13 580.36 927.97 2578.63 878.89 2833.01 937.16 2740.54 1073.92 2544.58 1202.69 2735.14 1251.23
00010045 00000030 2343.94 495.56 584.98 931.28 2573.72 879.26 2827.79 935.94 2736.06 1073.30 2541.13 1202.85 2732.45 1250.38
00010046 00000031 2337.12 492.99 586.26 931.58 2569.10 878.60 2825.48 936.56 2733.70 1072.52 2537.25 1202.30 2730.50 1250.56
00010047 00000032 2329.97 493.65 588.09 927.32 2563.27 877.83 2821.95 935.11 2728.96 1072.07 2532.12 1200.41 2728.37 1248.16
00010048 00000033 2326.42 489.68 590.13 932.77 2558.23 877.87 2820.25 934.02 2725.84 1070.80 2528.18 1200.46 2728.02 1247.68
00010049 00000034 2324.12 487.71 590.20 936.99 2554.58 878.17 2816.97 933.15 2721.08 1069.82 2525.93 1200.66 2724.93 1247.08
00010050 00000035 2325.00 485.02 589.30 940.64 2551.73 881.49 2815.34 934.98 2714.88 1069.50 2526.36 1202.06 2721.48 1247.27
00010051 00000036 2326.72 492.17 584.63 940.90 2551.46 894.13 2811.65 946.33 2712.06 1072.28 2524.22 1205.50 2721.28 1250.75
00010052 00000037 2325.41 490.90 582.40 943.97 2547.35 891.94 2811.02 944.60 2709.03 1073.38 2520.76 1207.13 2719.83 1252.79
00010053 00000038 2319.69 487.72 582.78 952.49 2535.54 890.33 2805.03 937.88 2698.01 1076.65 2515.79 1213.57 2717.54 1255.02
00010054 00000039 2321.72 489.46 581.52 954.68 2533.03 888.15 2801.38 936.30 2687.73 1083.11 2508.36 1218.02 2712.61 1259.82
00010055 00000040 2319.87 490.80 581.32 959.57 2530.69 889.28 2799.14 936.07 2686.25 1086.20 2505.18 1219.08 2710.97 1260.43
00010056 00000041 2319.97 493.23 581.11 956.34 2529.91 890.46 2796.82 935.31 2684.69 1084.70 2507.02 1217.81 2709.16 1257.60
00010057 00000042 2321.75 494.09 576.59 950.70 2526.19 892.69 2795.38 937.23 2679.56 1083.03 2508.15 1220.22 2706.66 1259.06
00010058 00000043 2322.06 495.83 575.12 946.78 2524.61 892.84 2794.47 935.85 2676.50 1081.90 2510.71 1219.64 2707.45 1257.05
00010059 00000044 2322.18 496.22 575.88 946.58 2523.98 893.87 2794.50 935.02 2673.75 1082.72 2513.13 1219.77 2709.68 1255.56
00010060 00000045 2323.22 494.40 575.61 948.60 2522.99 895.12 2795.13 935.26 2672.55 1083.67 2513.44 1221.22 2713.18 1256.09
00010061 00000046 2326.39 491.69 573.30 951.14 2522.75 896.06 2796.11 934.81 2672.93 1084.90 2514.07 1222.85 2717.42 1256.59
00010062 00000047 2326.17 491.32 573.51 951.38 2522.69 896.06 2796.13 934.84 2673.22 1084.85 2514.29 1223.01 2717.32 1256.70
00010063 00000048 2327.40 491.18 573.61 951.98 2524.17 897.64 2798.32 936.63 2675.70 1087.86 2513.90 1223.84 2723.01 1257.55
00010064 00000049 2330.34 490.47 572.37 952.10 2528.42 897.95 2801.53 937.61 2681.83 1090.17 2515.04 1224.61 2729.03 1258.75
00010065 00000050 2332.06 491.23 572.48 948.50 2532.52 897.67 2804.95 938.26 2687.05 1090.30 2517.78 1224.72 2732.87 1259.44
00010066 00000051 2336.84 490.27 569.12 943.88 2536.16 897.31 2810.38 939.31 2691.05 1087.69 2520.42 1224.57 2738.69 1260.34
00010067 00000052 2336.32 486.47 572.69 944.82 2538.21 897.18 2812.52 940.98 2692.03 1085.49 2521.28 1222.66 2738.78 1260.03
00010068 00000053 2337.73 491.86 571.23 938.84 2539.57 897.33 2814.48 941.96 2696.03 1084.44 2521.25 1220.78 2741.43 1259.07
00010069 00000054 2339.61 489.39 570.03 938.05 2540.94 897.89 2815.64 942.70 2697.63 1085.52 2522.96 1221.05 2742.67 1259.42
00010070 00000055 2338.59 488.58 571.33 935.58 2541.38 896.23 2815.79 941.66 2698.04 1083.83 2525.09 1220.53 2740.62 1259.09
00010071 00000056 2337.83 490.52 573.13 932.03 2542.23 894.57 2814.99 940.57 2697.70 1082.15 2525.99 1218.99 2737.16 1257.98
00010072 00000057 2333.73 491.80 577.41 939.47 2542.98 892.30 2814.35 939.29 2706.62 1076.30 2528.44 1213.80 2731.63 1255.51
00010073 00000058 2330.72 494.07 580.40 937.12 2541.91 883.49 2813.51 935.75 2697.75 1075.67 2514.33 1210.59 2727.54 1255.27
00010074 00000059 2330.42 494.31 579.80 939.05 2540.67 882.53 2814.55 935.94 2705.79 1071.37 2515.41 1204.12 2730.22 1251.50
00010075 00000060 2329.94 496.51 580.54 934.76 2540.86 880.82 2813.83 934.96 2704.03 1070.02 2513.86 1201.11 2728.49 1249.15
00010076 00000061 2328.37 493.65 580.26 932.63 2541.34 878.91 2811.86 931.90 2702.51 1069.72 2516.37 1200.04 2723.98 1246.63
00010077 00000062 2326.46 496.84 580.03 931.38 2537.26 877.79 2811.92 931.91 2700.76 1068.56 2511.66 1199.02 2727.18 1246.78
00010078 00000063 2320.99 495.99 580.77 941.99 2533.78 876.29 2805.34 930.36 2693.41 1069.73 2506.66 1199.32 2717.71 1247.08
00010079 00000064 2313.54 493.17 586.11 947.91 2528.59 876.66 2801.65 933.24 2688.03 1071.90 2493.25 1195.66 2712.29 1246.02
00010080 00000065 2309.66 501.89 588.45 938.73 2520.02 892.50 2788.20 946.59 2668.63 1074.77 2478.59 1187.16 2710.47 1236.36
00010081 00000066 2302.80 504.81 591.88 930.13 2509.70 895.51 2779.89 946.71 2653.26 1072.22 2474.36 1186.61 2705.14 1233.27
00010082 DELETE   2285.64 498.14 601.86 934.90 2487.30 889.92 2770.69 937.37 2637.86 1071.35 2464.07 1192.11 2697.59 1234.26
00010083 00000068 2287.07 487.14 597.18 938.69 2478.10 880.91 2760.71 924.28 2630.24 1061.52 2463.64 1198.30 2687.63 1236.38
00010084 DELETE   2283.14 482.49 587.30 943.84 2465.19 872.77 2750.14 919.30 2616.26 1065.39 2449.34 1201.08 2672.61 1241.99
00010085 00000070 2272.59 478.67 591.60 954.39 2454.52 869.28 2742.14 917.24 2604.68 1067.35 2435.00 1197.50 2664.51 1239.81
00010086 00000071 2258.32 480.04 593.28 955.98 2443.95 864.88 2729.95 919.88 2586.72 1061.37 2414.92 1190.28 2642.34 1238.71
00010087 00000072 2258.15 479.94 593.70 956.21 2444.11 864.97 2729.74 920.09 2586.01 1061.43 2414.87 1190.02 2641.76 1238.58
00010088 00000073 2254.17 480.84 592.31 946.84 2437.17 864.67 2727.22 920.33 2579.98 1060.62 2408.30 1187.69 2643.68 1236.51
00010089 00000074 2251.12 481.68 592.83 938.12 2434.96 861.86 2724.58 921.14 2575.45 1056.93 2404.40 1183.86 2639.16 1235.17
00010090 00000075 2249.51 477.51 596.45 937.73 2432.49 857.60 2721.72 918.10 2570.86 1050.68 2401.76 1181.00 2632.21 1232.54
00010091 00000076 2239.94 464.05 603.11 946.69 2424.53 843.77 2708.45 905.48 2554.12 1044.31 2391.05 1173.89 2615.19 1224.84
00010092 00000077 2229.50 461.31 610.07 946.50 2415.64 830.70 2699.88 896.78 2537.30 1036.63 2380.11 1169.30 2596.51 1222.88
00010093 00000078 2216.98 460.92 622.56 945.48 2403.69 822.33 2688.81 891.35 2516.53 1027.50 2363.52 1164.38 2577.92 1220.46
00010094 00000079 2215.57 462.53 620.37 942.41 2398.11 824.46 2686.40 893.61 2514.16 1033.00 2359.05 1166.73 2575.52 1223.04
00010095 00000080 2211.34 463.16 619.55 934.72 2391.68 826.85 2685.82 899.07 2508.53 1036.08 2346.86 1159.47 2582.71 1218.17
00010096 00000081 2209.03 463.07 619.39 934.99 2389.74 828.47 2682.72 899.67 2507.18 1038.77 2344.56 1158.67 2581.54 1216.64
00010097 00000082 2209.20 464.35 617.64 932.61 2385.09 830.73 2675.81 898.04 2498.58 1041.68 2348.28 1167.48 2565.49 1222.19
00010098 00000083 2207.92 465.27 620.01 928.15 2383.28 834.26 2675.26 903.29 2495.63 1041.25 2342.83 1162.78 2566.94 1218.68
00010099 00000084 2209.90 472.64 619.77 921.64 2387.05 856.17 2673.20 920.40 2495.31 1041.83 2343.90 1164.99 2565.16 1217.80
00010100 00000085 2209.79 473.15 620.80 924.22 2389.18 858.47 2674.42 923.75 2497.80 1045.81 2347.28 1168.81 2563.68 1222.36
00010101 00000086 2209.93 479.03 615.45 920.17 2391.80 856.62 2677.50 926.73 2502.90 1050.94 2350.67 1171.33 2562.88 1228.40
00010102 00000087 2209.83 475.23 615.05 922.00 2393.10 858.01 2677.42 928.78 2504.52 1053.36 2352.31 1173.08 2563.01 1230.68
00010103 00000088 2208.77 480.97 615.98 913.66 2392.29 858.01 2677.33 929.99 2503.51 1058.00 2353.93 1172.93 2561.52 1231.43
00010104 00000089 2209.29 483.94 615.65 913.66 2391.72 858.94 2676.74 930.84 2501.83 1057.15 2353.38 1174.47 2560.92 1232.94
00010105 00000090 2209.51 483.05 614.50 913.36 2391.33 860.02 2676.52 932.01 2502.17 1058.50 2352.54 1176.27 2560.26 1234.70
00010106 00000091 2210.79 483.53 611.88 910.85 2393.89 861.11 2677.83 932.60 2505.89 1060.21 2355.44 1178.17 2561.62 1236.02
00010107 00000092 2213.13 484.06 609.63 912.98 2396.32 863.72 2679.53 934.52 2508.75 1064.14 2358.67 1178.60 2566.55 1236.07
00010108 00000093 2213.00 483.44 610.95 916.92 2398.43 865.82 2680.05 936.10 2510.83 1066.86 2360.11 1180.37 2567.96 1237.47
00010109 00000094 2213.75 484.36 610.88 918.30 2400.68 865.88 2683.02 937.36 2514.09 1072.32 2362.24 1182.62 2571.26 1240.41
00010110 00000095 2214.80 482.80 608.84 921.10 2401.85 866.62 2684.59 937.58 2517.46 1075.03 2363.52 1182.77 2574.59 1240.14
00010111 00000096 2216.32 487.18 608.20 919.26 2403.08 866.93 2686.43 937.63 2518.69 1074.76 2365.47 1182.33 2578.87 1239.57
00010112 00000097 2216.82 485.99 607.58 919.97 2403.21 867.03 2686.48 937.64 2518.96 1075.26 2365.99 1182.56 2579.46 1239.72
00010113 00000098 2217.36 485.17 606.94 920.09 2403.36 866.52 2686.47 937.22 2519.14 1075.75 2366.02 1181.80 2579.23 1238.90
00010114 00000099 2216.36 482.43 608.13 919.98 2398.29 862.21 2685.14 930.85 2515.56 1072.97 2365.05 1184.23 2573.59 1239.62
00010115 00000100 2215.59 484.59 614.75 917.27 2391.89 872.40 2678.21 937.32 2505.91 1067.93 2359.14 1183.53 2566.67 1236.49
00010116 00000101 2214.50 486.63 615.02 910.74 2390.08 877.57 2672.67 939.97 2501.08 1062.74 2356.71 1182.71 2561.45 1233.80
00010117 00000102 2215.74 487.59 614.18 914.30 2388.53 875.42 2672.72 938.67 2499.59 1062.57 2355.06 1182.66 2563.40 1234.51
00010118 00000103 2214.92 485.57 612.76 924.61 2389.63 863.99 2676.74 931.83 2502.07 1065.11 2351.05 1180.69 2564.85 1235.95
00010119 00000104 2212.09 485.25 613.31 928.53 2387.02 858.04 2676.77 928.01 2498.01 1061.75 2347.97 1178.80 2565.60 1236.06
00010120 00000105 2212.34 482.43 610.45 918.74 2387.41 853.19 2678.87 922.54 2501.48 1060.13 2351.80 1178.18 2567.95 1234.56
00010121 00000106 2210.44 481.85 611.72 916.09 2388.23 851.72 2679.84 919.99 2504.55 1061.49 2354.60 1178.12 2569.87 1233.55
00010122 00000107 2208.40 484.08 613.01 919.96 2389.04 851.87 2677.93 918.46 2505.03 1062.72 2357.19 1181.57 2568.03 1235.63
00010123 00000108 2209.36 483.70 611.68 921.34 2389.13 851.34 2676.64 917.02 2504.11 1062.59 2357.81 1182.54 2565.66 1235.76
00010124 00000109 2207.22 482.00 612.89 920.21 2386.76 852.20 2675.05 917.52 2501.75 1061.43 2355.65 1181.29 2564.35 1234.36
00010125 00000110 2206.72 485.77 611.49 911.94 2384.79 851.06 2673.54 916.64 2499.49 1058.77 2352.73 1177.79 2563.35 1231.27
00010126 00000111 2207.72 487.16 610.19 909.87 2384.18 851.49 2673.40 916.27 2499.41 1059.65 2352.75 1177.97 2564.90 1230.87
00010127 00000112 2207.83 485.17 609.81 916.44 2383.80 848.82 2673.93 912.74 2501.18 1060.44 2352.03 1179.76 2566.57 1231.89
00010128 00000113 2206.94 485.22 611.31 926.23 2382.22 843.19 2669.88 905.82 2497.63 1061.19 2346.00 1179.16 2563.08 1230.23
00010129 00000114 2206.07 482.84 612.85 943.69 2382.59 840.72 2667.76 902.55 2497.14 1059.34 2342.77 1176.87 2565.03 1227.36
00010130 00000115 2199.45 491.12 633.64 933.08 2377.98 840.94 2679.10 901.59 2502.27 1049.06 2344.89 1169.10 2559.22 1225.87
00010131 00000116 2199.70 490.91 634.04 932.55 2380.01 840.59 2680.75 901.14 2505.29 1048.19 2347.16 1167.27 2562.46 1223.93
00010132 00000117 2206.17 484.48 615.69 938.09 2387.15 835.15 2672.05 895.57 2505.31 1056.90 2350.01 1175.53 2571.62 1225.14
00010133 00000118 2206.24 483.28 616.37 933.80 2386.94 834.86 2673.32 894.59 2505.84 1056.54 2351.77 1176.96 2572.27 1225.95
00010134 00000119 2207.10 482.40 614.03 928.75 2386.37 834.85 2674.62 894.30 2506.92 1056.72 2352.25 1176.48 2574.83 1225.19
00010135 00000120 2207.18 480.33 613.72 926.95 2386.60 834.01 2675.60 893.46 2508.62 1056.70 2352.29 1175.20 2576.52 1223.76
00010136 00000121 2206.73 478.87 613.67 924.40 2385.98 831.76 2675.11 890.51 2508.32 1055.28 2351.68 1173.30 2576.80 1221.28
00010137 00000122 2206.71 477.88 613.18 925.95 2385.86 832.00 2674.75 890.54 2508.63 1054.96 2351.53 1173.48 2576.73 1221.31
00010138 00000123 2206.40 478.08 614.90 926.14 2385.13 830.62 2674.10 889.09 2506.76 1052.82 2351.00 1173.07 2576.58 1220.90
00010139 00000124 2207.32 477.87 613.66 927.38 2385.47 829.21 2674.52 886.21 2508.75 1050.08 2354.36 1176.05 2576.92 1222.67
00010140 00000125 2205.95 477.39 615.16 930.16 2385.69 829.01 2674.44 885.42 2509.43 1048.47 2356.39 1179.67 2574.86 1225.94
00010141 00000126 2206.44 475.68 614.62 935.05 2386.39 829.60 2674.26 885.09 2510.10 1048.43 2359.11 1183.38 2574.76 1228.87
00010142 00000127 2207.43 476.01 613.71 935.27 2386.38 829.69 2674.15 884.57 2509.85 1048.44 2360.07 1183.83 2575.23 1228.85
00010143 00000128 2207.88 476.04 613.74 936.32 2386.56 829.78 2673.91 883.99 2509.21 1049.44 2360.87 1184.22 2575.18 1228.68
00010144 00000129 2207.92 473.82 613.35 937.91 2386.68 829.90 2673.67 884.15 2508.91 1049.27 2361.39 1184.48 2574.82 1228.95
00010145 00000130 2207.94 474.03 612.87 936.01 2386.40 829.89 2673.81 884.05 2508.79 1049.42 2361.65 1185.01 2575.19 1229.34
00010146 00000131 2207.99 473.62 612.70 936.44 2386.15 830.13 2674.03 884.15 2508.80 1048.73 2361.50 1184.84 2576.29 1229.11
00010147 00000132 2207.63 473.86 613.56 935.33 2385.77 829.88 2674.62 884.08 2508.70 1047.86 2361.91 1184.18 2576.55 1228.55
00010148 00000133 2208.43 472.71 612.42 939.00 2386.97 829.60 2674.91 883.67 2510.15 1046.96 2363.41 1184.36 2577.49 1228.61
00010149 00000134 2213.60 474.19 604.41 940.39 2391.33 852.76 2674.81 905.62 2511.17 1046.14 2366.95 1183.01 2574.03 1226.88
00010150 00000135 2214.35 476.45 602.96 940.44 2393.03 853.18 2674.58 905.96 2512.52 1045.53 2367.84 1182.24 2574.45 1226.21
00010151 00000136 2210.93 477.63 608.51 940.16 2392.15 838.11 2673.96 892.48 2513.64 1046.27 2366.77 1183.70 2575.74 1228.80
00010152 00000137 2210.70 475.77 609.11 941.43 2389.22 833.42 2674.05 888.01 2511.43 1046.07 2364.26 1184.40 2576.17 1229.47
00010153 00000138 2203.52 481.44 629.65 927.20 2387.30 839.68 2684.38 893.60 2519.48 1039.74 2368.02 1177.88 2571.48 1225.94
00010154 00000139 2203.45 480.69 629.65 925.13 2386.00 838.80 2684.24 892.16 2519.11 1039.06 2367.60 1177.26 2572.01 1224.79
00010155 00000140 2201.78 478.21 630.71 925.59 2383.91 836.86 2683.73 890.48 2517.96 1037.20 2365.30 1174.51 2572.44 1222.39
00010156 00000141 2202.79 477.31 628.95 924.83 2383.34 836.03 2682.71 889.42 2516.75 1037.23 2363.87 1172.82 2572.39 1220.72
00010157 00000142 2210.09 470.75 607.79 934.74 2383.48 827.73 2671.27 877.36 2508.37 1042.57 2360.02 1180.27 2577.37 1221.17
00010158 00000143 2210.04 469.73 607.60 933.40 2382.29 827.56 2671.15 875.96 2508.72 1042.76 2360.26 1180.18 2578.39 1219.95
00010159 00000144 2209.75 468.91 608.71 933.71 2383.06 827.04 2671.49 874.70 2508.36 1039.60 2362.24 1178.47 2579.65 1217.73
00010160 00000145 2208.98 468.59 609.71 933.68 2385.73 827.11 2672.51 874.23 2512.14 1040.67 2364.46 1177.74 2583.37 1216.43
00010161 00000146 2210.43 468.99 606.52 924.73 2387.33 827.20 2672.43 872.23 2514.46 1043.40 2370.51 1177.10 2585.38 1213.49
00010162 00000147 2210.19 470.70 606.58 923.32 2387.39 827.19 2672.30 872.21 2514.49 1042.93 2370.78 1177.08 2585.27 1213.49
00010163 00000148 2210.92 470.89 605.68 923.21 2387.76 826.53 2671.90 870.80 2515.53 1042.33 2371.28 1176.86 2585.09 1212.62
00010164 00000149 2211.25 467.75 601.68 922.56 2385.38 824.32 2672.95 866.71 2516.54 1039.50 2369.70 1179.29 2587.49 1213.54
00010165 00000150 2211.01 467.40 603.02 927.84 2385.18 823.11 2674.02 865.89 2516.27 1034.56 2363.19 1172.03 2594.04 1207.19
00010166 00000151 2207.91 474.38 610.82 927.96 2389.35 821.53 2679.29 865.35 2523.99 1036.42 2367.74 1162.03 2599.47 1200.46
00010167 00000152 2212.43 463.00 605.41 936.72 2389.98 821.44 2675.77 859.84 2521.28 1034.68 2377.80 1175.95 2596.18 1206.92
00010168 00000153 2214.12 463.51 603.11 935.97 2391.74 820.79 2674.63 859.81 2521.63 1035.94 2380.67 1179.91 2589.55 1211.18
00010169 00000154 2215.29 463.24 601.17 926.75 2391.09 819.93 2675.67 860.78 2522.15 1034.56 2377.36 1176.82 2591.75 1209.57
00010170 00000155 2216.38 462.19 600.64 920.62 2392.18 819.11 2678.18 859.67 2525.95 1033.09 2378.38 1172.89 2597.89 1205.36
00010171 00000156 2217.57 460.33 599.03 919.12 2391.41 818.75 2678.90 859.60 2526.60 1029.35 2378.43 1171.25 2599.22 1204.00
00010172 00000157 2213.14 471.36 604.81 908.45 2392.86 819.89 2682.29 861.72 2529.83 1029.97 2382.68 1163.81 2599.06 1199.63
00010173 00000158 2213.04 471.57 605.21 905.68 2392.47 818.71 2681.83 860.41 2529.80 1028.50 2384.07 1164.26 2597.05 1199.65
