Video ID: 	Qey9gVht_hM
H: 	1080
W: 	1920
FPS: 	29.97002997002997

FRAME INDEX X0 Y0 W H [Landmarks (5 Points)]

00004755 00000000 882.93 187.65 383.36 533.47 973.99 402.80 1128.01 468.14 991.67 516.48 933.79 572.75 1056.51 626.61
00004756 00000001 880.52 183.79 389.00 537.86 973.32 401.34 1128.14 467.71 990.33 513.87 931.24 573.02 1052.88 627.45
00004757 00000002 879.84 187.10 388.97 536.95 973.12 403.87 1126.73 470.88 990.45 517.38 932.86 574.94 1053.44 630.01
00004758 DELETE   880.36 193.48 387.88 530.19 972.89 409.82 1123.79 480.19 987.30 525.95 931.24 576.89 1050.15 634.59
00004759 00000004 887.87 185.77 385.38 544.62 976.98 408.47 1118.71 491.83 994.52 537.90 934.52 578.25 1044.45 645.93
00004760 00000005 886.25 188.78 388.88 544.62 977.90 416.06 1119.17 501.82 994.42 545.28 934.74 582.07 1045.67 651.57
00004761 00000006 883.60 189.75 399.08 553.64 978.32 419.54 1123.12 505.09 992.94 548.73 934.30 584.95 1048.00 653.87
00004762 00000007 884.78 189.08 399.97 563.54 979.24 424.82 1123.45 511.32 993.36 556.20 936.87 592.59 1049.47 662.09
00004763 00000008 884.57 194.44 397.36 561.92 979.45 426.75 1123.65 513.99 993.52 558.90 936.07 593.65 1051.44 663.75
00004764 00000009 885.74 192.29 396.60 565.75 979.66 427.02 1124.43 512.81 994.56 558.76 938.40 595.94 1052.59 664.80
00004765 00000010 885.36 186.58 399.44 569.28 980.08 423.87 1126.27 507.79 995.27 554.36 940.91 592.28 1056.70 659.64
00004766 00000011 885.36 186.60 398.66 568.70 980.93 420.82 1128.68 502.61 997.19 550.49 941.57 588.92 1058.99 655.02
00004767 DELETE   889.59 184.56 390.31 567.03 982.14 418.85 1130.03 496.13 1003.78 544.54 946.73 587.45 1065.79 650.13
00004768 00000013 891.90 180.52 386.85 562.92 981.21 412.85 1125.79 489.58 1000.29 538.91 946.45 582.84 1060.89 644.89
00004769 DELETE   889.20 190.03 383.00 550.22 980.02 413.17 1128.61 478.58 997.40 531.62 944.69 583.03 1065.76 637.19
00004770 00000015 890.11 189.12 384.42 547.60 981.03 408.94 1132.63 474.83 998.31 527.51 943.89 579.46 1067.37 633.87
00004771 00000016 895.10 176.66 382.16 555.05 982.51 400.64 1135.86 469.88 1009.43 523.31 943.89 575.79 1064.23 632.70
00004772 DELETE   892.33 180.10 385.42 544.74 983.61 396.88 1136.54 461.47 999.20 514.21 943.55 569.68 1069.55 623.00
00004773 00000018 892.82 177.96 385.11 543.40 984.72 393.39 1139.09 455.37 1002.65 508.08 945.14 568.57 1071.76 620.18
00004774 00000019 893.08 177.32 386.04 543.65 984.95 390.67 1140.79 452.84 1003.42 505.12 944.87 566.41 1073.02 618.22
00004775 00000020 894.50 175.65 384.34 547.65 985.09 391.81 1140.05 452.02 1004.10 504.57 947.92 566.53 1076.00 616.76
00004776 00000021 895.46 176.36 382.40 550.86 985.33 391.82 1138.80 451.64 1002.72 504.33 947.17 567.32 1073.98 617.46
00004777 00000022 896.81 175.11 381.10 552.66 984.55 392.74 1136.99 450.72 1001.44 504.32 947.58 568.25 1073.77 616.96
00004778 00000023 896.40 173.49 380.80 554.01 982.55 392.68 1134.09 450.35 998.26 504.20 946.45 569.32 1071.41 617.85
00004779 00000024 895.27 174.69 377.88 550.48 980.40 392.10 1132.92 448.42 996.44 501.82 943.46 569.40 1068.63 617.12
00004780 00000025 893.13 174.88 377.61 546.25 977.42 391.11 1129.96 448.59 992.87 500.65 939.18 568.06 1063.14 616.56
00004781 00000026 891.44 173.44 377.32 546.09 974.71 390.65 1127.88 450.60 991.04 499.57 936.72 568.57 1059.77 618.72
00004782 00000027 886.15 175.78 379.64 541.75 971.65 392.40 1126.19 451.21 991.13 497.36 934.67 568.16 1058.24 617.20
00004783 00000028 884.53 175.88 379.56 539.59 970.68 392.30 1124.98 453.46 988.07 497.69 930.10 567.23 1051.36 617.68
00004784 00000029 883.36 174.95 379.62 542.79 969.08 391.67 1123.10 452.93 986.35 497.53 929.24 567.06 1050.82 617.52
00004785 00000030 881.01 174.62 381.08 545.27 967.50 392.91 1119.97 455.32 984.20 498.57 927.13 569.69 1045.08 621.09
00004786 00000031 878.59 180.17 377.31 547.59 966.04 394.55 1121.12 456.78 984.34 501.02 925.77 567.63 1050.82 619.62
00004787 00000032 878.78 180.15 374.96 551.27 963.33 395.97 1121.05 457.84 981.52 505.17 926.59 566.71 1056.80 618.10
00004788 00000033 876.62 182.00 373.68 553.99 960.84 401.87 1117.53 464.39 979.07 515.37 925.81 570.55 1057.97 622.19
00004789 00000034 874.44 183.57 372.77 553.47 959.05 402.96 1114.39 467.94 975.36 518.55 923.00 571.40 1054.00 625.04
00004790 00000035 871.40 186.35 372.80 550.50 955.67 404.47 1109.80 470.51 970.76 521.02 920.25 573.41 1049.19 627.70
00004791 00000036 870.34 187.35 372.45 550.65 952.97 406.08 1106.77 472.82 966.86 524.10 917.83 575.12 1045.66 629.79
00004792 00000037 869.83 187.35 371.78 550.08 950.73 407.77 1102.76 473.26 963.75 524.94 917.68 576.97 1043.57 630.31
00004793 00000038 870.71 187.25 366.77 549.06 947.83 408.96 1098.73 473.54 961.37 525.87 918.15 579.31 1042.77 631.80
00004794 00000039 868.14 184.59 369.10 548.44 943.95 408.31 1094.45 470.98 959.16 523.68 915.23 579.72 1038.86 630.63
00004795 00000040 866.76 183.64 369.15 548.01 942.38 406.94 1092.75 469.89 957.50 522.05 911.87 580.15 1034.56 631.27
00004796 00000041 863.81 184.64 371.88 542.75 942.39 406.27 1091.76 467.34 958.31 517.73 911.47 577.21 1031.59 626.72
00004797 00000042 860.76 179.04 372.82 546.01 940.59 404.18 1090.26 463.29 958.84 514.18 910.47 575.70 1027.52 623.57
00004798 00000043 858.74 180.64 371.42 541.33 938.55 401.13 1087.26 460.33 955.60 510.71 907.64 573.42 1022.95 621.63
00004799 00000044 857.15 181.66 369.62 536.27 937.88 399.64 1084.20 459.00 953.47 508.92 905.22 571.73 1018.31 620.15
00004800 00000045 852.02 179.33 371.64 536.79 934.13 397.36 1082.76 457.29 952.32 507.95 900.66 569.45 1016.27 618.55
00004801 00000046 851.75 177.75 370.64 539.52 932.52 398.32 1081.31 457.32 951.24 509.22 899.11 572.18 1014.90 620.41
00004802 00000047 850.54 178.88 370.72 540.93 929.91 399.09 1078.82 460.29 947.93 513.23 896.32 573.33 1013.99 623.08
00004803 00000048 848.49 176.79 372.39 546.77 927.86 399.07 1077.43 462.50 945.97 516.14 893.54 575.67 1011.06 627.17
00004804 00000049 848.49 179.31 369.24 545.27 925.73 400.96 1073.75 465.17 942.79 518.38 892.32 576.97 1008.83 628.97
00004805 00000050 847.26 181.43 367.69 542.10 924.57 400.39 1071.93 466.98 941.76 519.93 890.75 576.26 1006.22 629.98
00004806 00000051 844.84 178.78 369.48 546.08 923.60 399.96 1069.98 468.07 940.22 521.95 889.09 576.37 1004.48 631.32
00004807 00000052 846.31 180.74 367.69 546.25 921.82 402.43 1068.45 468.99 937.49 522.91 888.09 578.94 1003.28 632.55
00004808 00000053 844.98 179.89 367.13 547.76 918.95 403.11 1067.59 468.33 936.76 522.94 885.87 578.81 1003.59 631.51
00004809 00000054 843.70 179.25 367.23 547.84 917.36 402.57 1065.34 467.93 934.60 523.03 884.39 578.61 1001.36 631.39
00004810 00000055 843.32 179.65 365.97 546.28 916.35 402.09 1064.61 467.60 934.13 522.72 883.64 578.05 1001.25 630.92
00004811 00000056 842.98 182.08 367.57 544.48 916.90 401.92 1064.10 467.97 932.80 523.02 883.95 577.47 1000.71 630.67
00004812 00000057 842.59 181.30 366.59 545.69 916.66 402.25 1064.25 467.90 933.63 522.92 884.20 577.81 1000.62 630.80
00004813 00000058 841.51 180.60 367.63 548.60 916.52 402.46 1064.71 468.21 933.41 523.29 884.23 577.28 1001.83 630.56
00004814 00000059 841.69 181.49 369.18 550.43 917.72 403.36 1066.94 467.80 935.02 522.28 886.27 578.79 1003.01 631.29
00004815 00000060 841.93 182.75 369.37 551.93 918.52 403.86 1067.03 467.82 933.90 522.91 888.06 578.00 1005.56 630.22
00004816 00000061 842.38 182.61 369.24 554.74 918.17 403.90 1068.44 467.45 933.98 523.12 887.85 579.00 1007.68 630.99
00004817 00000062 841.18 184.75 369.65 551.44 917.32 403.58 1067.55 467.55 933.59 522.82 887.23 577.39 1007.71 629.64
00004818 00000063 841.23 185.32 368.99 550.06 917.31 403.57 1067.81 468.17 933.71 523.43 886.89 576.88 1007.48 629.61
00004819 00000064 842.65 184.13 367.51 549.52 918.63 403.79 1067.56 466.48 935.46 522.40 888.28 577.57 1006.68 628.78
00004820 00000065 844.99 180.05 365.19 551.29 919.48 403.67 1066.76 466.19 936.12 522.40 890.63 578.34 1005.98 629.35
00004821 00000066 847.78 177.60 361.77 551.16 918.72 403.05 1065.86 466.27 935.98 523.18 888.98 580.26 1004.45 631.59
00004822 00000067 849.26 177.09 361.74 552.05 919.43 404.18 1065.62 466.97 936.83 523.53 889.85 582.86 1003.30 633.84
00004823 00000068 852.53 177.62 361.06 555.19 921.29 405.89 1066.89 466.79 937.66 524.91 892.59 585.19 1006.15 634.76
00004824 00000069 853.59 179.91 361.57 556.91 923.06 408.22 1067.05 466.62 938.18 525.21 896.44 587.99 1006.77 635.57
00004825 00000070 854.74 180.25 361.58 557.39 923.94 408.36 1065.51 467.80 936.69 526.02 898.15 589.07 1006.09 637.27
00004826 00000071 856.32 183.03 359.64 556.07 924.19 409.90 1063.88 468.51 936.43 526.66 899.58 590.20 1006.28 637.64
00004827 00000072 855.84 182.21 360.79 558.32 924.10 410.19 1064.19 469.10 936.38 527.03 899.49 590.61 1006.53 638.35
00004828 00000073 855.41 183.81 360.77 556.30 923.56 412.64 1064.19 470.93 936.38 527.21 900.21 591.16 1006.78 638.24
00004829 00000074 856.27 183.67 358.86 555.79 924.64 411.84 1064.87 470.78 938.20 528.25 901.31 590.94 1007.46 638.54
00004830 00000075 856.46 182.25 359.87 554.10 925.75 411.59 1066.79 471.16 939.89 528.40 901.77 590.35 1008.67 638.29
00004831 00000076 854.86 180.14 362.64 556.33 925.52 411.78 1071.08 472.43 942.79 529.41 900.05 590.39 1012.35 639.32
00004832 00000077 850.65 179.61 366.52 554.28 924.02 410.12 1073.16 473.27 942.56 528.03 894.11 588.31 1010.42 639.23
00004833 00000078 848.85 176.53 366.02 554.60 920.90 408.63 1071.44 470.95 941.60 526.24 890.89 587.16 1009.56 637.37
00004834 00000079 846.82 178.09 365.67 550.72 919.95 406.96 1070.69 471.07 940.44 526.42 888.88 584.15 1008.12 635.70
00004835 00000080 846.36 179.62 364.41 547.60 919.43 406.92 1068.82 471.01 940.07 526.06 889.07 583.38 1006.59 634.87
00004836 00000081 845.87 179.34 364.88 549.19 919.14 407.20 1067.26 471.58 938.67 526.69 888.93 583.75 1006.16 635.55
00004837 00000082 846.29 181.98 364.86 547.34 918.49 407.69 1066.70 473.10 936.03 527.50 889.09 582.40 1006.41 634.94
00004838 00000083 846.51 182.27 366.00 549.21 919.28 409.83 1068.52 475.81 937.60 529.24 892.07 582.76 1009.85 635.81
00004839 00000084 848.42 182.91 365.25 553.43 921.17 412.33 1070.00 475.64 939.67 529.93 895.48 586.28 1012.07 637.50
00004840 00000085 850.02 182.67 364.41 553.04 923.15 413.01 1069.01 476.45 940.03 531.28 899.43 586.84 1011.66 637.91
00004841 00000086 852.11 183.06 364.52 556.66 925.49 413.86 1072.18 477.36 942.85 533.38 902.09 589.10 1015.86 640.37
00004842 00000087 852.87 183.99 365.40 560.40 926.59 414.59 1074.49 478.49 943.28 535.83 902.52 589.40 1020.94 640.99
00004843 00000088 856.00 184.65 362.75 562.50 927.84 416.96 1073.42 479.52 944.47 536.63 905.38 592.31 1023.07 642.59
00004844 00000089 858.06 186.54 361.52 562.09 928.94 418.11 1074.22 480.82 945.27 538.39 907.49 593.43 1025.16 643.78
00004845 00000090 859.40 186.77 360.04 562.19 929.05 418.54 1074.82 480.46 946.32 539.14 908.24 594.02 1026.97 643.66
00004846 00000091 859.46 185.46 360.22 562.07 928.84 417.77 1074.85 479.71 946.64 538.56 908.34 594.07 1026.82 643.67
00004847 00000092 859.81 186.75 360.99 562.32 929.87 418.86 1075.58 479.86 947.38 538.57 909.19 594.81 1027.41 643.76
00004848 00000093 860.42 186.67 359.40 562.76 929.93 419.54 1075.10 479.56 948.11 538.79 909.82 595.64 1027.80 643.75
00004849 00000094 860.35 189.59 359.83 558.57 930.37 419.81 1075.56 480.09 948.03 538.64 909.94 594.78 1027.77 643.14
00004850 00000095 861.31 190.13 359.73 558.44 931.04 419.15 1077.17 479.98 948.51 539.21 910.08 594.15 1028.77 643.04
00004851 00000096 861.22 188.73 359.85 559.36 931.22 419.33 1077.87 479.23 950.43 539.14 910.51 595.08 1029.00 643.28
00004852 00000097 861.73 189.02 359.89 559.67 930.88 419.29 1078.23 478.66 950.46 538.75 910.07 595.37 1029.39 643.23
00004853 00000098 861.46 187.30 359.89 557.39 932.01 419.80 1078.90 477.43 952.40 536.81 911.55 595.72 1029.01 642.06
00004854 00000099 859.47 189.42 361.34 554.62 931.95 419.93 1079.18 476.43 952.88 535.21 910.08 595.66 1027.61 641.46
00004855 00000100 859.12 188.91 360.48 553.59 932.16 419.97 1078.70 475.51 953.95 534.28 910.21 596.04 1026.49 641.06
00004856 00000101 860.06 187.69 358.66 555.40 932.70 420.36 1077.68 474.37 954.39 534.26 911.63 597.19 1026.11 640.94
00004857 00000102 861.26 185.72 357.27 555.41 932.88 420.34 1079.07 473.96 956.25 534.05 912.70 597.60 1027.76 640.89
00004858 00000103 863.54 184.26 355.77 555.25 933.54 420.24 1081.27 472.35 958.62 533.78 914.02 598.20 1030.44 640.28
00004859 00000104 864.48 184.05 356.51 557.70 934.79 421.85 1083.92 472.16 961.26 534.29 915.26 599.15 1033.03 639.94
00004860 00000105 863.65 183.41 357.33 559.71 935.47 422.59 1084.86 471.79 962.64 534.10 916.25 599.38 1034.27 639.49
00004861 00000106 865.57 180.41 354.97 563.67 934.93 423.70 1084.77 471.09 963.84 535.63 918.02 600.43 1037.03 638.94
00004862 00000107 864.77 185.45 350.84 557.40 933.01 427.00 1081.43 471.62 964.90 536.91 919.27 601.55 1037.45 637.64
00004863 00000108 860.99 185.68 351.05 561.23 930.96 428.95 1078.10 470.87 964.24 538.33 918.12 603.74 1036.59 637.77
00004864 DELETE   857.87 189.71 349.36 558.96 928.38 429.89 1073.34 471.66 961.26 537.88 915.66 603.85 1033.22 637.69
00004865 DELETE   855.04 190.41 347.05 558.89 923.12 429.26 1068.63 472.42 955.77 537.76 912.78 603.04 1031.34 637.81
00004866 00000111 850.92 186.52 349.09 564.23 919.61 428.70 1064.16 471.67 950.96 535.35 908.55 602.44 1026.49 637.13
00004867 00000112 847.07 193.27 350.22 558.66 913.24 428.61 1060.52 471.64 944.76 534.30 899.40 600.63 1020.57 635.54
00004868 00000113 845.11 193.42 349.54 557.98 910.06 427.46 1056.05 470.39 939.29 533.11 895.85 598.99 1016.42 633.71
00004869 00000114 843.78 191.34 349.02 560.20 906.88 428.13 1054.13 469.94 938.83 533.96 893.99 600.38 1015.89 634.26
00004870 00000115 842.92 188.05 350.55 567.77 907.96 427.93 1057.59 469.52 942.04 535.84 895.86 601.70 1021.25 635.33
00004871 00000116 845.57 186.60 349.63 568.84 911.57 431.68 1060.21 470.88 949.22 536.43 903.13 605.69 1027.22 637.20
00004872 00000117 847.58 180.63 349.36 577.35 916.41 433.29 1065.60 470.58 958.44 538.03 911.86 609.57 1034.56 639.54
00004873 DELETE   852.13 183.88 349.91 580.13 920.82 438.71 1074.77 470.95 967.13 542.54 916.26 612.05 1045.31 638.44
00004874 DELETE   855.72 187.92 349.76 578.68 924.85 442.87 1082.45 473.20 976.27 545.65 923.63 615.05 1054.79 640.35
CROP_BBOX: 468 0 1450 966
