Video ID: 	ArnzepVvIDo
H: 	1080
W: 	1920
FPS: 	25.0

FRAME INDEX X0 Y0 W H [Landmarks (5 Points)]

00056531 00000000 654.03 398.03 398.63 515.94 762.86 629.64 939.48 596.08 876.10 754.18 801.67 781.14 970.71 753.78
00056532 DELETE   652.43 404.01 398.48 511.94 759.66 636.11 933.16 601.59 869.67 757.05 802.42 789.50 965.76 761.18
00056533 00000002 653.56 415.40 397.01 507.69 758.64 644.81 930.10 611.42 865.97 764.40 801.91 800.52 961.38 773.46
00056534 00000003 652.88 417.12 397.58 514.02 755.54 653.15 928.09 619.34 862.34 772.44 799.37 804.22 962.81 776.76
00056535 00000004 653.02 426.20 401.11 511.35 756.87 659.60 931.90 625.46 866.77 781.62 800.53 808.01 966.57 780.52
00056536 00000005 654.77 432.98 398.93 506.07 758.65 665.13 931.71 632.34 867.46 785.62 802.45 809.43 965.49 782.94
00056537 00000006 656.19 437.29 398.79 503.81 760.36 669.38 934.45 635.10 870.91 788.92 804.51 811.65 968.45 784.04
00056538 00000007 660.10 436.53 396.44 499.67 769.26 667.87 938.02 635.11 872.49 781.88 817.92 809.81 970.71 783.28
00056539 00000008 658.60 435.89 403.75 495.84 768.72 661.80 940.39 626.25 874.24 781.13 822.15 807.53 975.18 778.61
00056540 00000009 662.08 430.37 403.54 492.46 772.75 652.65 950.47 618.45 881.06 776.73 823.34 800.10 982.71 772.39
00056541 00000010 668.45 424.26 403.68 494.19 779.93 645.87 959.43 612.50 889.09 770.89 828.04 795.62 988.31 768.90
00056542 00000011 671.23 407.71 407.12 505.07 787.68 631.43 963.47 600.38 898.57 756.63 833.43 783.91 995.35 758.46
00056543 00000012 685.11 383.54 398.93 519.08 793.23 617.68 967.60 587.88 899.90 748.07 842.15 776.52 997.13 750.22
00056544 00000013 690.43 379.71 393.50 512.58 801.69 606.26 975.22 577.06 911.12 734.22 850.08 761.43 1008.89 736.68
00056545 00000014 695.41 365.36 397.35 517.81 808.19 591.70 977.81 563.12 914.32 717.60 856.20 752.47 1007.55 728.40
00056546 00000015 704.94 352.36 395.69 521.78 818.38 576.89 986.70 546.29 923.42 705.56 860.26 744.18 1013.45 719.11
00056547 00000016 709.52 340.76 395.50 522.35 818.92 566.43 991.52 535.94 927.12 691.58 863.24 737.44 1018.19 712.34
00056548 00000017 712.66 327.54 395.40 533.68 822.10 552.77 993.67 523.73 931.01 680.15 866.90 731.53 1020.41 706.86
00056549 00000018 713.77 314.47 397.84 543.17 825.69 544.92 996.71 516.06 934.30 669.16 868.03 726.36 1019.63 701.41
00056550 00000019 717.55 309.67 396.14 545.57 825.17 538.02 996.05 508.55 934.31 659.85 873.23 725.01 1021.30 699.08
00056551 00000020 717.62 308.06 393.98 545.87 825.97 535.14 995.63 505.06 935.72 653.92 878.63 729.53 1017.36 702.69
00056552 00000021 715.23 307.45 393.79 548.00 825.10 537.35 994.64 508.02 935.06 655.99 880.86 735.62 1014.68 709.39
00056553 00000022 712.31 313.99 395.64 549.14 823.07 546.35 994.83 516.92 935.25 664.16 879.26 743.97 1014.61 717.66
00056554 00000023 706.88 324.85 397.87 543.01 820.08 550.98 990.35 524.82 930.03 671.91 877.21 748.20 1010.00 724.67
00056555 00000024 703.22 325.21 397.65 541.84 816.47 551.69 987.85 526.57 926.37 671.92 871.48 747.67 1006.40 725.27
00056556 00000025 701.43 314.01 396.63 551.53 814.01 543.56 985.58 519.78 924.96 661.29 867.26 742.45 1002.59 721.57
00056557 00000026 698.39 298.82 401.62 559.57 811.05 532.67 983.83 505.79 923.97 651.51 864.21 731.91 1001.88 708.22
00056558 00000027 701.55 287.95 399.46 560.32 812.37 521.00 982.00 493.79 921.94 633.72 862.00 719.04 998.48 695.21
00056559 00000028 695.69 277.88 396.66 549.85 812.10 513.40 984.48 488.60 921.60 629.54 863.32 703.57 1001.39 682.62
00056560 00000029 698.04 275.67 395.07 543.33 815.27 508.34 984.39 481.43 924.13 623.04 869.15 699.74 1001.79 676.95
00056561 00000030 700.35 273.78 394.48 541.20 817.55 506.87 987.55 480.35 926.60 621.78 870.79 697.80 1002.55 675.51
00056562 00000031 702.32 275.20 393.28 541.61 820.59 509.24 990.32 482.85 930.05 624.84 873.82 701.11 1003.04 679.10
00056563 00000032 703.75 283.89 393.62 534.44 822.81 512.03 995.44 486.08 933.45 633.42 874.17 703.25 1004.11 681.63
00056564 00000033 708.26 285.68 392.52 534.97 825.31 516.81 997.77 488.37 936.79 637.86 877.01 706.18 1008.53 682.35
00056565 00000034 711.69 282.35 394.15 538.28 828.10 515.00 1000.12 486.05 939.51 636.22 878.89 704.71 1011.64 680.70
00056566 00000035 715.61 276.86 391.78 539.32 832.41 509.37 1004.02 479.15 944.92 629.47 885.31 702.75 1014.84 677.42
00056567 00000036 719.47 269.52 390.79 545.69 835.58 505.89 1006.08 474.05 948.45 623.87 889.60 699.49 1020.87 672.47
00056568 00000037 719.73 261.17 398.45 553.32 837.67 495.93 1010.83 466.64 950.54 616.90 888.51 691.65 1024.25 666.95
00056569 00000038 724.66 252.91 398.78 559.02 840.74 493.08 1011.23 461.64 953.21 609.04 889.81 685.08 1029.89 659.11
00056570 00000039 730.72 252.91 396.52 556.68 844.35 489.88 1012.68 458.85 955.21 606.30 890.79 678.58 1034.52 653.47
00056571 00000040 733.93 248.55 397.49 561.66 848.22 486.68 1018.58 456.67 960.31 605.25 891.72 674.51 1040.49 650.30
00056572 00000041 737.69 248.77 396.15 557.76 850.89 485.12 1023.27 456.30 963.29 605.26 891.49 670.20 1044.26 647.21
00056573 00000042 741.05 250.95 394.13 547.98 853.07 486.01 1027.23 455.48 966.04 607.37 892.05 667.58 1047.41 643.47
00056574 00000043 743.25 254.26 392.87 542.61 855.47 486.95 1029.51 455.51 968.42 607.47 892.60 664.89 1050.24 640.18
00056575 00000044 743.57 252.72 393.13 542.30 855.27 488.11 1030.57 456.09 969.38 609.28 891.52 663.78 1052.60 638.66
00056576 00000045 742.58 254.24 393.40 542.50 855.08 488.91 1030.02 455.73 970.04 610.48 892.50 665.05 1052.87 639.04
00056577 00000046 741.68 255.95 394.06 542.37 854.25 491.00 1028.77 456.72 969.33 610.62 892.12 665.84 1052.90 638.93
00056578 00000047 739.46 256.21 395.57 544.84 852.15 491.49 1026.27 457.06 967.50 610.72 890.20 665.20 1052.43 638.15
00056579 00000048 738.43 257.01 395.35 543.19 850.96 491.89 1024.88 457.12 966.19 610.04 888.67 663.82 1051.72 636.52
00056580 00000049 737.15 254.97 395.31 541.75 849.64 490.99 1024.74 455.50 966.33 610.10 886.57 660.81 1051.82 633.05
00056581 00000050 736.29 254.52 395.05 540.93 849.81 491.75 1025.90 455.92 967.48 610.80 885.68 660.60 1052.38 632.65
00056582 00000051 735.18 262.34 396.31 540.85 854.28 494.33 1027.79 460.46 971.49 614.40 887.99 664.42 1052.56 638.12
00056583 00000052 738.01 271.58 390.23 539.70 861.85 506.05 1034.17 472.38 981.29 629.68 892.94 675.31 1053.68 649.26
00056584 DELETE   745.96 288.07 386.03 528.35 870.88 514.12 1041.95 488.65 982.41 636.55 904.39 678.94 1058.51 660.08
00056585 DELETE   747.05 310.11 386.90 516.21 872.87 545.92 1046.74 517.05 982.93 667.13 907.97 702.37 1067.78 677.28
00056586 DELETE   744.49 343.46 389.48 499.47 876.04 570.27 1062.67 535.14 1003.00 688.11 912.08 722.76 1075.58 696.20
00056587 00000056 745.90 357.00 384.34 499.72 873.88 579.83 1059.09 545.20 998.38 701.61 909.81 733.76 1071.68 707.92
00056588 DELETE   739.91 353.00 386.14 503.77 868.48 578.70 1052.02 540.84 993.10 696.41 906.30 734.74 1065.69 706.13
00056589 DELETE   720.26 333.46 391.57 519.35 858.94 563.20 1036.17 522.64 986.60 685.49 889.87 726.92 1048.32 694.56
00056590 00000059 707.79 314.43 401.67 535.87 845.67 541.32 1021.15 501.42 973.45 659.34 883.30 712.82 1043.58 679.45
00056591 00000060 701.28 309.30 400.09 540.73 839.45 525.15 1016.52 492.19 964.55 650.22 869.52 699.46 1035.14 672.05
00056592 00000061 695.31 313.61 402.17 534.20 833.92 527.44 1017.96 493.92 963.53 656.35 861.13 697.60 1036.07 670.42
00056593 00000062 690.21 309.55 403.57 536.07 828.94 529.03 1012.90 493.40 960.40 652.59 858.60 696.32 1035.82 667.21
00056594 00000063 685.92 289.78 399.14 535.11 822.41 522.18 999.41 481.22 954.45 641.24 854.67 683.78 1028.99 651.36
00056595 00000064 679.27 284.56 400.03 532.70 815.86 510.97 991.78 472.71 946.48 629.41 850.10 676.42 1021.42 646.42
00056596 00000065 678.28 285.96 398.63 531.20 812.98 512.13 990.18 474.53 941.98 631.99 845.72 676.39 1017.93 647.23
00056597 DELETE   680.56 295.39 394.26 528.86 816.09 528.81 999.13 488.92 948.53 649.54 844.11 685.42 1023.89 654.68
00056598 00000067 679.99 331.72 403.33 521.05 820.78 550.86 1007.59 514.92 953.72 678.62 840.93 707.34 1027.36 680.01
00056599 00000068 680.79 346.97 400.17 514.72 821.88 563.41 1006.15 529.61 951.96 690.07 842.38 720.65 1019.07 695.70
00056600 00000069 680.05 345.87 399.08 518.66 818.87 565.60 1002.16 532.01 947.40 693.02 842.00 722.60 1017.42 697.71
00056601 00000070 679.38 339.67 397.86 521.57 815.90 561.98 1000.40 528.39 945.00 687.88 839.60 718.62 1019.46 693.35
00056602 00000071 678.53 339.43 398.90 520.64 814.34 559.60 1000.13 526.16 943.99 686.11 839.57 717.66 1019.37 692.49
00056603 00000072 679.04 345.19 396.32 515.32 815.79 563.78 1001.33 532.87 943.03 694.22 841.49 723.11 1013.80 700.34
00056604 DELETE   682.21 360.15 396.84 513.48 818.27 580.22 1003.25 550.59 945.07 718.87 844.24 735.99 1014.33 714.44
00056605 00000074 692.15 369.51 392.70 515.26 826.39 597.46 1008.05 554.80 948.56 718.05 848.37 749.13 1019.60 714.77
00056606 00000075 686.18 363.34 396.45 519.32 823.64 586.79 1001.92 555.40 948.14 722.26 848.45 742.45 1018.61 718.84
00056607 00000076 684.57 353.46 400.41 523.25 823.84 573.96 1001.23 543.24 947.11 709.80 851.24 736.12 1016.67 713.08
00056608 00000077 684.57 345.56 403.51 521.48 823.89 565.23 1003.74 535.30 946.79 697.02 847.08 726.00 1016.67 703.86
00056609 00000078 685.30 343.28 403.66 523.06 823.95 563.95 1008.26 533.09 951.03 694.45 845.61 723.21 1021.96 700.36
00056610 00000079 685.56 343.87 403.68 519.12 823.88 561.58 1010.41 530.04 952.59 691.00 846.14 721.60 1023.80 698.09
00056611 00000080 685.89 342.92 405.29 516.80 822.10 558.88 1011.26 526.93 951.94 688.03 842.60 716.90 1026.31 693.06
00056612 00000081 686.69 341.81 404.83 516.89 821.34 559.16 1011.42 526.70 951.80 687.45 842.81 716.61 1027.25 692.27
00056613 00000082 689.03 340.80 404.02 516.90 822.34 558.77 1013.31 525.66 953.36 686.92 843.69 715.48 1029.56 690.64
00056614 00000083 691.17 338.03 404.87 520.51 824.04 554.56 1013.42 522.44 952.83 684.46 844.11 712.65 1030.31 688.53
00056615 00000084 693.23 332.66 403.25 524.78 826.34 549.97 1012.93 518.73 952.92 679.55 846.11 709.85 1030.31 686.23
00056616 00000085 694.28 332.13 402.35 524.09 829.99 548.77 1012.90 518.47 954.00 678.17 849.34 710.10 1027.83 687.10
00056617 00000086 696.76 329.24 401.50 527.94 833.03 548.18 1013.95 517.57 955.49 678.96 853.60 712.31 1028.32 688.72
00056618 00000087 697.49 328.53 401.55 528.18 833.98 548.33 1014.42 517.56 956.39 678.00 856.20 714.11 1028.23 690.33
00056619 00000088 698.47 328.47 401.22 526.42 833.61 548.43 1015.44 516.56 957.14 677.10 855.53 712.25 1029.95 687.66
00056620 00000089 699.03 328.21 400.49 524.35 833.50 547.88 1016.82 515.45 958.14 676.19 856.73 712.64 1030.35 687.73
00056621 00000090 699.15 327.04 401.39 525.04 832.75 548.20 1016.55 515.08 957.86 675.19 857.28 712.81 1030.77 687.33
00056622 00000091 699.53 325.73 401.38 525.63 833.57 546.49 1017.30 513.40 959.11 674.29 858.88 712.28 1031.33 686.62
00056623 00000092 700.64 323.96 400.61 526.06 834.71 543.09 1018.45 510.88 959.60 672.63 860.52 711.47 1031.64 686.33
00056624 00000093 699.58 320.71 400.28 525.04 834.61 537.82 1019.21 505.27 961.09 667.26 862.49 708.26 1033.05 682.55
00056625 00000094 700.37 313.63 399.79 527.93 833.06 531.06 1018.39 498.81 959.66 659.81 861.87 702.53 1033.72 676.72
00056626 00000095 705.41 295.59 395.34 539.86 835.20 521.46 1017.37 492.18 958.34 651.25 862.59 695.88 1031.50 671.95
00056627 00000096 714.99 293.57 391.99 534.46 840.85 512.80 1021.60 483.56 962.72 637.57 870.64 689.34 1035.47 664.90
00056628 00000097 724.73 277.54 391.45 540.11 849.35 504.58 1027.98 472.01 971.02 627.54 880.12 682.30 1041.94 654.67
00056629 00000098 738.71 272.08 387.38 535.98 866.57 499.49 1038.02 470.08 984.66 628.37 895.06 673.27 1053.78 650.37
00056630 00000099 752.28 258.66 389.79 536.23 875.04 490.12 1052.77 466.77 988.36 611.07 905.31 664.88 1068.11 647.00
00056631 DELETE   761.00 246.82 392.12 545.75 889.13 476.70 1061.98 459.54 998.30 600.72 914.04 656.39 1070.94 643.07
00056632 00000101 768.88 237.50 394.01 553.38 896.56 463.51 1070.72 447.53 1007.81 583.24 924.81 650.51 1076.08 637.51
00056633 00000102 775.22 229.62 394.90 558.17 904.93 451.53 1075.88 436.34 1014.95 571.11 934.56 644.58 1079.71 631.14
00056634 00000103 779.75 226.10 391.76 555.55 907.34 444.28 1076.58 430.39 1014.70 561.53 936.55 639.37 1075.53 626.93
00056635 00000104 766.19 219.58 395.05 547.29 889.87 439.83 1066.40 432.60 993.01 555.06 914.92 624.81 1065.42 619.39
00056636 00000105 760.72 211.39 393.07 550.86 874.81 432.83 1050.61 429.83 972.89 546.45 896.44 614.46 1051.97 612.55
00056637 00000106 754.43 204.47 390.69 558.42 870.88 427.45 1042.81 422.56 971.75 539.94 896.12 615.59 1048.36 612.35
00056638 00000107 746.72 203.40 391.72 563.56 859.26 425.75 1032.16 407.32 971.78 531.35 893.25 623.49 1039.58 607.43
00056639 00000108 733.95 192.57 392.54 573.92 846.88 430.66 1025.28 410.48 957.61 537.19 880.49 625.85 1037.60 609.13
00056640 00000109 718.14 195.80 388.51 558.60 830.03 432.86 1003.12 415.16 933.87 539.61 862.61 619.32 1012.32 604.58
00056641 00000110 702.25 202.33 395.75 542.42 814.57 433.98 988.12 419.71 913.53 542.97 855.39 619.45 995.60 607.48
00056642 00000111 694.47 208.10 397.02 543.94 810.13 438.40 984.98 425.30 911.16 552.37 853.22 625.53 993.68 614.57
00056643 00000112 687.62 216.49 394.73 549.30 805.60 450.15 981.24 432.68 913.40 566.07 849.14 633.80 993.25 619.76
00056644 00000113 687.22 226.67 388.82 557.82 800.33 451.67 971.05 440.24 907.18 566.23 833.72 646.13 973.95 636.30
00056645 00000114 674.86 220.96 391.82 552.93 784.47 448.44 958.75 425.49 897.36 557.16 823.78 641.53 973.33 622.13
00056646 00000115 667.93 209.77 392.37 552.87 778.79 440.98 954.49 413.59 894.57 546.20 819.33 631.57 970.24 607.84
00056647 00000116 662.93 206.63 392.23 551.52 777.81 438.42 954.36 411.40 896.43 545.57 815.71 626.06 970.02 602.74
00056648 00000117 659.76 208.64 391.95 554.88 776.02 447.06 954.56 420.50 894.80 560.07 812.10 630.49 971.36 607.63
00056649 00000118 655.80 218.31 393.93 550.86 773.67 454.26 949.87 426.22 890.76 568.64 811.78 635.92 969.57 611.69
00056650 00000119 653.90 220.09 391.24 543.56 770.68 454.46 949.08 425.08 887.79 566.71 808.83 635.53 967.40 610.28
00056651 00000120 654.40 211.21 386.30 541.79 771.40 445.29 950.85 417.77 889.40 558.45 809.90 631.61 963.19 608.20
00056652 00000121 654.09 204.93 388.35 544.29 773.12 437.45 953.26 411.58 892.19 552.46 809.50 623.89 963.73 601.85
00056653 00000122 659.82 200.91 387.19 548.21 784.75 436.47 961.13 406.14 904.56 552.91 821.22 622.40 972.64 597.87
00056654 00000123 669.99 196.98 387.57 543.63 802.94 428.83 980.31 405.39 924.69 544.14 832.60 609.49 990.17 590.24
00056655 DELETE   683.09 195.90 393.03 534.46 822.66 423.72 1004.07 397.09 948.47 543.51 851.59 599.21 1015.10 579.40
00056656 DELETE   690.76 197.16 397.90 543.25 842.43 430.80 1017.65 398.74 973.22 543.71 870.78 607.00 1030.17 581.81
00056657 00000126 704.45 202.85 399.26 553.94 865.29 430.07 1036.18 402.22 999.23 539.60 890.54 616.96 1041.31 594.33
00056658 00000127 717.87 206.88 396.74 557.07 878.37 433.18 1047.62 405.38 1013.51 543.83 899.30 619.25 1053.99 597.22
00056659 00000128 733.53 214.23 388.33 551.36 889.91 438.09 1057.45 409.70 1023.91 546.76 906.71 624.65 1060.27 602.77
00056660 00000129 742.31 223.29 382.11 543.00 892.50 449.90 1059.22 420.28 1022.55 555.62 909.81 628.58 1063.78 605.67
CROP_BBOX: 420 0 1490 1080
