Video ID: 	lYP5eiLnp0Q
H: 	1080
W: 	1920
FPS: 	30.0

FRAME INDEX X0 Y0 W H [Landmarks (5 Points)]

00003719 00000000 617.37 121.90 473.43 701.19 780.39 381.27 988.81 387.26 902.62 495.32 793.56 625.74 963.89 631.21
00003720 00000001 614.33 121.43 471.59 693.14 770.16 380.68 981.51 385.90 896.11 495.15 788.97 631.09 961.10 634.11
00003721 00000002 608.67 124.87 469.98 693.04 763.12 385.40 974.71 389.91 890.40 499.43 782.50 635.82 955.38 638.42
00003722 00000003 603.42 127.22 470.01 693.48 757.40 390.04 968.28 393.70 885.44 503.37 778.20 638.89 950.76 640.82
00003723 00000004 596.18 128.55 473.08 696.09 749.20 393.19 963.97 393.68 880.97 505.66 773.56 643.85 949.07 643.32
00003724 00000005 593.56 130.99 472.81 696.62 745.21 396.11 960.23 395.37 878.65 510.92 772.42 647.87 946.85 646.46
00003725 00000006 589.90 130.93 475.99 699.53 743.36 403.92 959.96 403.56 876.68 516.15 767.36 649.90 947.13 648.81
00003726 DELETE   590.60 131.62 472.27 697.95 740.87 412.84 957.03 412.06 872.10 523.36 763.33 652.11 943.58 651.23
00003727 00000008 590.82 131.74 471.67 699.36 739.54 416.83 957.14 415.75 870.98 525.98 761.34 653.29 944.15 652.51
00003728 DELETE   593.30 134.55 471.35 696.47 740.93 418.14 959.25 417.52 871.40 529.24 761.93 655.00 944.84 654.44
00003729 00000010 596.62 136.24 472.04 694.19 744.79 420.20 964.37 420.10 874.31 531.42 765.75 657.42 948.40 656.72
00003730 DELETE   604.47 139.92 469.42 690.98 752.30 423.20 969.58 425.03 877.89 534.03 771.13 659.67 953.38 660.29
00003731 00000012 610.19 140.03 470.41 694.13 761.92 424.37 974.20 426.90 883.52 537.47 779.88 661.72 956.62 662.55
00003732 00000013 615.86 138.82 474.33 698.79 771.53 426.11 988.42 436.20 890.21 542.38 776.48 655.62 962.39 664.19
00003733 00000014 619.58 144.80 471.71 695.97 776.51 426.36 995.10 437.09 897.72 549.14 780.19 659.55 965.84 668.83
00003734 00000015 622.91 148.20 469.73 693.71 779.64 427.01 999.40 435.89 902.84 551.25 785.49 663.68 969.57 671.76
00003735 DELETE   624.94 151.82 467.98 691.53 780.72 426.42 1001.41 436.29 904.07 553.25 785.91 664.39 971.07 673.25
00003736 00000017 625.74 151.44 466.60 694.31 783.54 432.73 997.01 446.00 900.77 551.80 783.83 662.46 962.05 674.25
00003737 00000018 625.40 150.58 465.24 709.13 783.72 431.31 987.78 445.60 895.69 548.39 785.12 667.49 950.45 680.64
00003738 00000019 624.30 147.64 466.52 717.89 782.22 424.32 986.53 440.18 893.71 548.82 783.59 670.43 945.14 684.96
00003739 DELETE   623.41 144.11 469.62 714.92 780.20 417.89 988.63 434.49 891.79 547.38 782.50 666.76 944.32 681.88
00003740 DELETE   625.22 143.29 469.46 706.57 778.90 412.57 989.97 429.30 891.62 544.30 782.01 662.65 943.62 677.90
00003741 00000022 627.71 143.38 469.48 697.13 777.99 408.42 992.26 424.80 891.73 543.39 781.66 657.95 946.58 672.83
00003742 00000023 629.84 141.52 470.97 697.13 779.03 403.98 995.87 422.63 893.29 540.41 779.96 654.10 950.12 670.54
00003743 00000024 630.84 141.58 472.99 697.88 782.03 400.09 1000.21 421.47 896.33 537.07 779.24 650.22 954.76 668.69
00003744 00000025 632.86 140.41 474.88 695.81 785.64 397.75 1002.89 421.41 897.45 534.38 779.41 645.33 956.46 665.50
00003745 00000026 637.51 139.98 472.72 693.96 789.36 397.44 1007.19 421.22 901.90 533.05 783.26 643.37 962.90 663.43
00003746 00000027 640.76 141.26 472.11 696.00 794.96 398.60 1009.89 422.19 907.85 530.92 789.86 644.54 966.24 664.46
00003747 DELETE   649.43 143.41 467.90 699.84 803.54 407.41 1007.85 428.80 910.43 528.93 799.30 650.11 965.26 668.48
00003748 00000029 655.29 146.63 465.18 706.80 810.88 412.37 1011.80 432.84 916.63 530.31 807.50 660.13 965.03 678.25
00003749 DELETE   656.66 147.12 469.11 705.11 815.51 409.89 1019.12 436.31 921.39 535.49 806.40 658.56 968.00 681.47
00003750 00000031 656.64 147.23 470.59 699.81 815.31 410.12 1024.56 437.14 925.22 539.74 806.82 658.46 973.72 681.80
00003751 00000032 657.97 147.90 471.21 696.35 813.31 412.68 1027.52 436.77 927.24 543.48 807.84 660.82 980.12 681.56
00003752 00000033 659.25 147.80 473.08 695.65 812.47 413.17 1031.08 437.06 929.86 547.79 805.98 661.83 984.28 682.19
00003753 00000034 660.67 149.79 473.28 692.99 813.32 414.30 1031.17 438.43 929.44 549.00 806.91 661.73 984.36 682.24
00003754 00000035 662.65 150.50 473.44 693.44 814.82 415.44 1031.99 439.79 930.60 552.03 808.52 663.24 985.67 683.88
00003755 00000036 664.94 153.71 473.13 693.41 816.43 416.80 1032.57 441.87 930.69 554.24 810.62 665.62 986.31 686.89
00003756 00000037 666.27 154.50 474.30 695.18 818.95 416.61 1034.67 442.88 931.63 554.53 813.14 668.08 985.31 690.36
00003757 00000038 668.57 155.29 473.99 696.24 822.02 417.22 1036.32 444.61 932.94 555.92 816.63 670.30 985.77 693.44
00003758 00000039 669.82 156.11 474.68 695.06 824.76 417.69 1037.84 444.83 935.54 557.42 820.32 670.28 988.01 693.10
00003759 00000040 671.45 153.52 475.08 694.29 826.80 417.78 1041.26 443.72 939.30 557.18 824.59 669.17 994.27 690.79
00003760 00000041 674.45 154.07 476.67 693.00 830.22 419.16 1045.05 443.30 943.48 560.00 829.97 670.50 1000.58 690.48
00003761 00000042 676.12 154.99 478.70 690.53 833.57 420.36 1048.17 443.27 946.27 561.91 833.78 671.42 1004.20 690.16
00003762 00000043 679.37 157.34 477.95 689.84 837.47 421.82 1049.86 443.26 949.07 564.40 839.18 673.37 1007.42 690.82
00003763 00000044 681.07 157.95 478.82 690.48 839.72 422.26 1050.69 442.28 950.51 564.50 842.96 674.51 1009.13 690.77
00003764 00000045 681.51 157.09 480.54 696.67 843.68 421.36 1051.74 442.46 952.17 564.36 845.23 674.70 1009.36 691.81
00003765 00000046 683.89 159.32 476.56 696.68 847.79 419.89 1059.89 444.98 957.32 564.33 839.67 667.59 1004.77 690.24
00003766 00000047 683.98 158.96 476.97 702.13 848.49 420.37 1059.57 445.23 958.07 564.11 838.59 667.80 1006.23 690.18
00003767 00000048 684.84 157.97 475.30 704.24 849.59 423.87 1059.92 447.96 959.18 563.07 837.51 666.59 1009.14 688.10
00003768 00000049 684.91 159.22 475.06 704.08 849.74 424.48 1059.84 448.18 959.74 562.84 837.02 666.89 1010.18 688.04
00003769 00000050 686.13 160.38 473.84 703.08 852.21 427.83 1062.57 452.98 961.83 561.84 836.72 665.99 1011.10 688.30
00003770 00000051 686.37 159.84 475.29 704.78 852.28 434.84 1062.22 459.01 960.63 561.08 836.28 667.24 1012.08 688.49
00003771 00000052 687.77 160.28 473.12 705.43 851.82 432.31 1062.84 456.39 962.34 561.66 836.76 668.68 1013.31 689.82
00003772 00000053 687.88 162.07 471.71 707.94 851.29 430.14 1061.22 452.28 964.38 563.07 838.34 672.32 1015.43 691.95
00003773 00000054 687.64 164.14 471.86 709.26 851.76 427.52 1060.57 449.36 964.68 563.44 839.12 674.27 1014.48 693.61
00003774 00000055 687.58 162.84 471.75 709.72 850.58 426.51 1059.68 447.68 963.78 563.07 838.96 674.52 1013.96 693.37
00003775 00000056 687.80 161.46 471.53 705.90 848.65 426.19 1059.62 445.96 962.31 562.90 840.33 674.48 1013.10 692.27
00003776 00000057 686.54 160.45 472.72 703.79 847.18 425.46 1060.42 444.49 962.14 562.59 840.94 673.13 1016.18 690.23
00003777 00000058 688.29 159.47 470.54 697.14 845.62 425.17 1061.53 443.72 961.92 562.39 840.60 671.37 1018.27 688.05
00003778 00000059 688.59 157.47 470.57 695.75 844.96 424.57 1062.43 442.82 962.24 562.21 840.61 670.10 1020.39 686.45
00003779 00000060 687.79 158.68 471.52 693.70 845.28 424.15 1063.22 442.43 962.39 561.82 839.86 668.57 1021.14 684.97
00003780 00000061 687.61 158.85 471.77 694.12 845.41 424.25 1063.52 442.31 962.51 561.78 839.46 667.64 1022.52 683.81
00003781 00000062 687.04 159.58 472.82 694.41 845.96 423.55 1063.63 442.22 962.94 561.47 838.93 666.74 1022.63 683.40
00003782 00000063 686.25 158.74 473.49 695.90 845.81 423.65 1063.88 442.18 962.85 561.31 837.84 666.21 1023.12 682.68
00003783 00000064 685.83 159.39 474.02 696.97 846.24 424.45 1064.22 443.33 962.77 561.90 837.42 666.04 1024.10 682.73
00003784 00000065 685.08 161.37 474.50 696.75 846.41 425.58 1064.38 444.79 963.00 562.02 835.55 666.02 1024.06 682.99
00003785 00000066 683.54 164.03 475.68 695.54 846.85 426.08 1064.10 445.89 962.78 562.80 834.69 665.41 1023.27 682.90
00003786 00000067 682.22 162.50 476.70 698.29 846.83 426.45 1063.78 446.90 962.89 564.22 832.95 664.84 1023.73 682.78
00003787 00000068 680.22 160.95 481.41 698.44 841.47 428.28 1057.92 445.68 958.02 568.10 837.72 670.14 1025.76 684.56
00003788 00000069 679.14 163.18 481.03 695.84 839.47 429.80 1057.31 447.04 956.25 568.55 835.22 669.33 1025.75 683.70
00003789 00000070 677.40 165.28 481.38 693.91 836.91 430.48 1055.22 447.31 954.85 569.03 833.22 668.91 1024.90 683.09
00003790 00000071 676.68 165.43 481.26 694.16 835.23 431.17 1053.79 447.83 953.54 569.25 832.30 669.71 1023.47 683.71
00003791 00000072 675.60 167.57 482.21 693.39 834.33 431.69 1052.80 449.10 952.06 570.37 830.89 670.30 1022.00 684.87
00003792 00000073 674.76 168.74 482.84 694.01 833.75 431.75 1052.81 449.21 952.01 570.72 829.82 670.43 1022.00 685.15
00003793 00000074 674.53 169.56 482.58 693.34 833.07 432.65 1052.51 449.69 951.34 571.14 829.78 671.34 1021.25 685.68
00003794 00000075 674.26 167.96 482.98 695.27 832.85 432.64 1052.63 448.58 952.23 570.96 831.53 672.59 1021.72 686.04
00003795 00000076 674.66 168.49 482.26 694.49 832.55 433.49 1052.55 449.31 951.81 571.63 831.62 673.80 1020.55 687.13
00003796 00000077 675.18 168.39 482.53 694.43 832.60 434.47 1053.02 449.91 951.85 572.63 831.88 674.18 1020.98 687.23
00003797 00000078 511.52 195.97 441.52 614.74 736.73 415.88 904.18 473.73 852.75 544.38 704.49 628.09 843.96 676.49
00003798 00000079 512.11 195.92 443.15 614.20 737.69 416.06 905.20 474.02 853.49 544.85 705.88 628.42 844.73 676.82
00003799 00000080 513.62 193.51 444.68 618.85 739.00 416.13 907.58 472.49 856.08 545.55 708.74 629.82 847.51 677.00
00003800 00000081 514.85 191.80 445.54 620.22 740.82 415.78 909.76 472.23 859.68 545.23 711.91 629.82 850.54 676.98
00003801 00000082 516.84 191.74 446.14 620.27 742.39 416.27 912.61 472.88 862.85 544.56 715.05 630.33 854.40 677.53
00003802 00000083 520.63 190.07 444.73 625.63 744.66 417.74 915.69 475.49 865.34 545.22 717.44 632.10 856.19 680.37
00003803 00000084 523.99 187.60 444.72 636.88 747.95 416.98 916.85 479.98 867.75 545.71 716.92 633.05 854.61 685.80
00003804 00000085 526.13 192.38 438.49 640.99 752.22 428.83 915.96 487.65 874.56 539.82 721.31 636.65 861.64 684.98
00003805 00000086 528.90 195.83 439.00 641.09 754.34 431.08 917.59 488.47 874.82 540.00 721.00 637.04 865.25 684.18
00003806 00000087 532.97 195.59 438.35 643.67 757.91 433.82 919.82 490.87 877.91 542.24 721.70 637.06 868.54 684.28
00003807 00000088 538.06 197.73 434.44 636.51 764.11 433.29 923.49 489.49 882.20 544.67 725.31 633.52 872.39 680.55
00003808 DELETE   542.50 195.72 434.38 629.10 769.01 429.62 928.30 484.57 884.47 544.76 730.16 628.37 877.09 674.39
00003809 00000090 547.16 193.05 432.86 625.19 770.99 422.82 932.19 480.17 887.32 538.90 735.07 624.53 880.54 672.63
00003810 00000091 548.56 191.89 433.19 624.82 772.65 415.87 933.14 473.84 889.60 532.16 737.70 620.82 881.54 669.64
00003811 00000092 549.03 185.14 433.92 629.53 773.65 410.37 935.80 468.57 892.52 525.91 739.56 617.85 883.91 666.99
00003812 00000093 550.99 184.02 434.32 630.51 773.72 408.39 936.31 464.71 892.54 525.27 740.26 617.10 884.98 664.86
00003813 00000094 553.21 182.01 433.37 627.09 775.10 408.38 938.69 461.09 896.15 527.77 744.55 620.66 886.57 665.80
00003814 00000095 553.43 174.95 436.38 634.97 777.53 412.12 945.16 462.21 900.38 532.42 749.24 625.96 893.37 668.31
00003815 00000096 557.13 175.36 434.48 635.91 779.63 414.09 947.76 462.09 902.39 535.60 751.00 628.80 896.71 669.47
00003816 00000097 558.98 183.78 434.99 632.55 778.93 415.41 945.08 466.59 898.69 537.39 749.03 629.15 894.07 673.03
00003817 00000098 559.53 185.35 437.60 638.91 782.34 417.27 944.37 468.92 898.50 536.53 747.78 629.62 892.76 674.13
00003818 00000099 559.25 179.51 443.36 648.58 787.24 410.75 950.93 465.12 905.79 540.61 754.17 628.60 893.09 675.04
00003819 00000100 564.59 181.63 439.18 644.96 792.77 409.93 953.00 464.31 909.37 538.97 760.09 627.35 894.33 673.86
00003820 00000101 564.88 179.23 442.16 647.53 795.84 406.19 956.86 459.89 915.54 537.04 763.42 626.83 898.67 672.71
00003821 00000102 565.94 181.18 442.88 646.15 797.98 403.90 958.91 456.79 920.77 533.61 768.58 628.11 903.02 673.42
00003822 00000103 568.48 175.10 442.07 649.26 800.51 403.74 959.79 454.36 923.00 531.99 772.98 627.27 906.16 670.56
00003823 00000104 572.52 170.56 439.74 642.74 799.61 405.08 964.19 452.55 925.26 530.50 780.15 626.84 914.62 666.85
00003824 00000105 573.91 170.11 440.11 637.25 800.52 406.63 967.07 453.15 926.19 531.47 784.29 628.05 917.46 667.22
00003825 00000106 574.36 172.20 441.65 637.62 802.10 408.43 968.05 455.19 926.97 533.17 786.18 630.60 917.87 670.19
00003826 00000107 575.77 172.78 443.30 644.27 805.06 411.08 968.25 458.70 926.88 538.48 785.71 633.79 915.70 674.24
00003827 00000108 578.27 180.55 445.87 643.06 809.98 407.75 976.51 465.47 928.64 543.77 783.72 633.81 918.05 681.98
00003828 00000109 579.14 180.87 446.91 643.92 811.21 409.55 978.60 465.56 931.24 544.81 786.87 636.16 921.46 682.85
00003829 00000110 582.46 181.45 444.04 638.31 809.09 411.96 979.70 462.08 934.62 541.29 793.90 635.75 930.86 677.28
00003830 00000111 582.74 176.65 446.19 636.69 808.14 409.22 981.95 456.57 936.59 537.12 797.17 633.52 935.89 672.27
00003831 00000112 583.91 171.08 441.00 644.48 808.62 410.95 972.36 450.18 934.55 530.21 801.63 635.71 932.69 668.73
00003832 00000113 584.22 169.50 440.55 650.28 808.89 407.59 971.56 447.92 934.63 524.91 801.56 635.53 932.58 669.27
00003833 00000114 587.45 174.33 441.35 646.32 814.44 405.51 977.80 457.86 937.50 519.49 802.75 629.26 930.68 671.27
00003834 00000115 589.29 176.49 439.99 645.05 816.40 406.90 979.70 459.18 939.53 521.32 803.59 629.97 932.50 672.07
00003835 00000116 591.45 181.41 441.08 642.73 817.44 410.09 982.27 459.92 940.96 526.23 804.05 634.24 934.97 674.34
00003836 00000117 590.33 177.45 446.28 647.40 818.68 408.71 987.56 459.33 943.58 537.68 802.86 635.29 939.45 676.88
00003837 00000118 599.60 181.22 436.70 644.40 822.93 420.02 987.39 461.59 947.30 534.40 814.03 641.86 944.94 674.95
00003838 00000119 602.86 178.99 435.73 647.46 824.23 420.72 992.50 458.70 953.03 535.95 818.76 644.93 951.71 674.85
00003839 00000120 604.10 182.16 435.90 644.88 827.25 419.09 997.19 456.64 957.30 536.17 822.31 645.18 956.53 674.80
00003840 00000121 605.53 178.17 434.33 649.95 828.56 415.64 998.61 453.81 960.00 531.24 825.02 645.43 957.52 675.72
00003841 00000122 606.42 175.05 434.04 654.90 830.94 411.45 998.69 452.02 960.59 525.66 826.83 644.09 957.98 676.32
00003842 00000123 608.20 171.03 435.44 660.87 834.87 406.61 1001.36 450.60 963.77 520.98 827.92 642.68 958.76 678.20
00003843 00000124 610.78 169.68 435.80 662.48 837.60 404.39 1003.80 449.39 965.26 519.37 827.26 640.14 961.13 676.74
00003844 00000125 613.47 168.45 437.83 664.31 839.97 404.45 1007.26 449.11 967.95 519.47 827.18 638.80 964.86 675.53
00003845 00000126 618.05 169.23 438.02 662.34 843.83 408.92 1012.05 453.17 971.50 524.74 827.10 640.07 967.21 676.97
00003846 00000127 621.83 174.84 439.57 656.81 847.88 414.18 1016.74 457.49 974.60 531.18 829.24 643.43 970.57 679.80
00003847 00000128 628.17 185.47 438.45 648.35 853.76 420.99 1022.64 462.89 980.32 540.74 831.48 646.83 976.87 682.73
00003848 00000129 633.95 190.97 438.10 644.43 860.47 428.76 1026.86 471.65 986.71 547.84 836.40 650.55 979.87 687.53
00003849 00000130 635.82 191.15 441.42 647.99 865.51 431.93 1031.07 474.95 992.99 552.36 840.22 652.32 983.87 689.24
00003850 00000131 637.88 188.10 448.35 654.03 866.82 427.34 1037.08 471.72 995.60 553.42 848.79 649.81 986.34 688.22
00003851 00000132 643.81 188.35 443.76 651.56 875.29 431.24 1039.53 482.14 996.75 556.34 849.65 647.50 983.25 688.84
00003852 00000133 645.28 188.03 445.07 654.11 879.28 430.86 1039.95 480.53 998.91 555.54 855.51 649.61 984.31 689.73
00003853 00000134 648.53 187.94 445.42 647.21 878.49 426.93 1048.21 481.14 1000.85 555.80 858.08 650.55 991.44 695.72
00003854 00000135 651.56 185.96 446.74 640.58 878.06 432.23 1053.29 482.46 1003.48 552.49 862.36 649.72 999.86 691.23
00003855 00000136 652.03 185.07 446.84 634.50 878.85 426.24 1056.11 475.98 1005.65 550.79 864.74 646.30 1003.29 687.24
00003856 00000137 657.09 186.32 441.86 639.01 882.18 431.10 1055.92 474.19 1010.87 549.66 874.54 649.13 1007.15 683.46
00003857 00000138 658.80 187.10 440.13 639.02 883.80 430.18 1055.98 472.60 1012.65 548.94 876.62 649.28 1008.60 683.00
00003858 00000139 658.21 186.76 442.32 649.10 886.31 429.10 1055.94 476.52 1012.21 551.35 874.70 653.03 1003.09 690.88
00003859 00000140 659.11 186.56 441.17 653.76 889.30 428.07 1055.07 477.42 1012.04 551.48 874.59 654.50 999.68 694.03
00003860 00000141 660.11 187.53 441.16 653.61 890.24 429.77 1056.24 479.79 1015.25 551.96 875.58 655.48 1002.32 695.56
00003861 00000142 660.60 187.99 442.86 652.55 889.97 430.46 1058.17 479.91 1017.51 553.04 876.63 656.49 1006.32 696.08
00003862 00000143 661.57 187.28 442.04 652.90 890.91 433.02 1059.01 482.78 1019.68 555.85 877.41 658.27 1007.09 698.26
00003863 00000144 661.18 188.62 442.25 652.23 891.86 433.45 1058.88 482.91 1020.05 556.58 877.83 658.19 1007.27 697.83
00003864 00000145 660.28 189.23 443.19 651.35 893.08 434.28 1059.58 483.04 1022.37 555.67 881.84 658.06 1011.02 696.89
00003865 00000146 661.60 190.65 441.71 649.62 893.98 434.05 1060.77 481.59 1024.10 556.44 886.50 660.46 1014.05 698.13
00003866 00000147 662.08 190.85 439.67 649.07 893.85 433.73 1059.43 480.97 1023.72 555.44 888.60 661.09 1014.07 698.44
00003867 00000148 657.31 189.63 443.85 657.49 893.05 432.00 1055.93 481.20 1020.84 553.45 883.14 660.03 1008.52 699.11
00003868 00000149 659.22 190.82 447.04 654.01 889.09 422.30 1059.19 476.66 1017.30 556.49 875.11 657.21 1006.24 702.24
00003869 00000150 659.72 191.45 444.48 650.66 887.92 422.64 1057.23 477.43 1015.31 555.34 874.68 655.95 1004.74 701.36
00003870 00000151 654.09 190.41 449.80 644.33 885.77 423.80 1056.30 476.25 1012.91 554.28 873.27 652.48 1005.32 695.89
00003871 00000152 652.27 189.28 449.76 637.98 883.80 425.49 1056.31 477.32 1011.86 553.79 871.91 650.69 1005.89 693.49
00003872 00000153 650.27 190.49 450.35 635.15 881.42 427.57 1054.12 476.26 1009.13 554.85 868.22 650.28 1003.46 690.61
00003873 00000154 647.82 191.77 450.76 636.82 880.24 427.70 1051.66 479.24 1006.22 556.17 864.18 650.72 999.20 693.37
00003874 00000155 648.02 192.44 448.67 637.74 879.40 427.19 1049.29 480.09 1003.68 557.32 860.51 650.30 995.20 694.26
00003875 00000156 646.70 195.11 447.02 634.74 877.58 429.03 1047.64 481.09 1001.60 559.04 857.38 650.90 993.06 694.38
00003876 00000157 645.51 194.97 445.73 637.11 877.60 428.09 1044.96 480.66 1001.39 559.32 856.78 650.69 991.33 694.73
00003877 00000158 644.01 192.97 445.68 645.24 875.83 430.75 1042.59 480.65 1002.64 556.65 857.61 652.56 988.37 696.06
00003878 00000159 643.18 194.53 442.99 644.15 874.69 430.53 1040.26 482.37 1000.46 556.82 854.87 651.59 985.51 696.68
00003879 00000160 643.21 204.26 434.29 632.75 874.67 437.52 1035.76 485.44 1001.96 555.50 850.69 657.38 985.86 698.27
00003880 00000161 641.07 203.54 433.69 629.99 870.76 436.63 1033.55 485.22 998.87 554.57 847.93 656.28 983.57 697.55
00003881 00000162 635.71 203.29 435.34 630.11 867.69 435.86 1031.05 484.91 994.83 553.66 845.74 656.29 980.08 697.48
00003882 00000163 630.99 202.53 435.23 635.35 864.62 435.81 1027.66 487.82 989.35 553.40 840.91 656.87 974.58 700.32
00003883 00000164 624.22 197.56 436.76 640.77 856.91 435.82 1022.23 487.24 986.29 546.65 839.56 658.56 971.73 700.94
00003884 00000165 616.16 196.15 437.39 643.36 851.47 436.47 1016.90 485.84 982.70 549.78 837.13 660.90 966.75 701.41
00003885 00000166 608.12 195.43 436.40 643.92 844.96 439.28 1007.38 486.78 975.01 554.64 831.95 662.82 957.46 701.41
00003886 00000167 600.97 196.05 442.91 643.92 835.71 423.49 995.86 477.96 963.64 560.02 822.30 654.25 945.32 700.02
00003887 00000168 589.88 195.94 445.24 642.88 823.34 426.30 987.27 481.80 949.01 561.61 805.38 655.87 933.30 702.33
00003888 00000169 580.04 190.38 448.13 647.19 812.93 426.24 980.49 479.82 939.15 560.58 794.36 655.53 926.15 700.24
