Video ID: 	_rwnZzwf1E4
H: 	2160
W: 	3840
FPS: 	29.97002997002997

FRAME INDEX X0 Y0 W H [Landmarks (5 Points)]

00005570 00000000 1765.57 465.97 562.93 785.76 2064.06 784.13 2262.07 840.45 2210.96 999.59 2006.03 1068.56 2160.56 1110.61
00005571 00000001 1763.57 466.47 560.74 791.33 2062.38 788.64 2256.83 840.93 2209.53 1003.18 2002.99 1070.89 2156.91 1110.80
00005572 00000002 1762.00 473.87 557.18 788.52 2059.74 792.92 2252.11 841.49 2207.56 1006.61 1998.83 1071.59 2154.08 1109.56
00005573 00000003 1765.47 485.87 555.48 784.62 2058.23 796.06 2258.14 844.28 2204.01 1006.83 1994.37 1071.94 2146.94 1115.25
00005574 00000004 1761.81 486.21 551.81 782.93 2050.32 791.94 2254.87 838.62 2201.02 1000.14 1990.59 1068.14 2150.56 1110.66
00005575 00000005 1755.34 469.80 553.36 784.62 2047.67 785.22 2246.10 836.11 2200.63 996.95 1987.43 1061.17 2154.83 1101.31
00005576 00000006 1752.11 467.67 554.58 776.88 2045.43 781.81 2245.14 831.97 2199.63 992.90 1989.12 1058.28 2154.77 1096.84
00005577 00000007 1749.44 459.91 553.53 775.37 2044.13 778.66 2241.59 828.30 2195.39 987.18 1989.84 1052.33 2150.68 1090.11
00005578 00000008 1749.78 450.66 549.73 786.40 2043.06 777.66 2238.17 824.35 2195.60 982.74 1994.49 1054.46 2149.08 1090.01
00005579 00000009 1749.02 451.12 547.56 786.53 2041.33 774.55 2236.41 820.45 2197.34 977.35 1998.29 1058.10 2150.86 1093.04
00005580 00000010 1755.97 450.63 539.53 794.55 2041.18 773.86 2239.86 813.06 2199.87 971.95 2006.17 1059.29 2158.99 1093.03
00005581 00000011 1756.90 442.66 533.85 796.51 2037.29 768.36 2238.54 805.79 2202.17 961.40 2007.62 1055.33 2164.32 1087.36
00005582 00000012 1754.25 437.21 534.06 793.80 2037.14 764.43 2236.80 802.78 2200.70 956.33 2014.88 1057.92 2162.77 1088.35
00005583 00000013 1752.99 438.49 533.05 791.52 2039.27 767.23 2233.49 805.02 2197.71 956.27 2023.73 1061.32 2160.63 1089.67
00005584 00000014 1754.13 438.08 534.30 798.29 2046.77 770.30 2234.37 811.84 2203.03 958.51 2035.73 1064.42 2164.73 1094.25
00005585 00000015 1759.76 438.95 532.39 797.95 2052.88 770.95 2240.95 808.99 2215.18 956.54 2047.63 1062.97 2177.66 1090.52
00005586 DELETE   1765.51 433.89 529.62 794.89 2060.78 770.38 2245.02 808.00 2228.89 952.03 2056.23 1056.09 2187.51 1083.67
00005587 00000017 1769.18 429.92 528.06 796.75 2066.41 768.26 2245.51 811.39 2233.50 949.24 2056.91 1050.70 2187.04 1082.39
00005588 00000018 1768.67 431.94 527.96 796.51 2067.24 768.92 2245.13 812.44 2233.04 953.00 2053.81 1054.33 2183.42 1086.11
00005589 00000019 1765.42 438.03 527.82 795.89 2067.03 773.66 2241.32 817.96 2229.69 959.22 2052.58 1061.91 2177.15 1093.55
00005590 00000020 1760.37 443.10 530.45 803.38 2062.36 779.14 2236.46 823.63 2220.35 966.61 2046.31 1072.44 2167.98 1103.75
00005591 00000021 1757.72 444.55 535.07 805.76 2059.99 781.00 2237.82 829.27 2217.05 971.45 2042.49 1073.29 2165.96 1107.51
00005592 00000022 1759.30 442.55 532.54 802.78 2058.36 778.84 2236.66 825.47 2214.94 966.49 2040.88 1069.30 2165.56 1102.58
00005593 00000023 1762.21 439.33 526.65 791.98 2054.39 774.58 2237.89 814.14 2216.33 961.74 2039.98 1059.03 2173.26 1088.81
00005594 00000024 1762.77 429.38 527.48 798.87 2052.42 768.15 2240.69 804.73 2220.05 953.52 2031.93 1050.26 2173.79 1079.59
00005595 00000025 1758.93 428.45 527.31 804.68 2048.51 767.48 2237.93 799.70 2217.59 951.61 2019.77 1046.03 2170.93 1074.47
00005596 00000026 1757.76 430.06 524.28 811.18 2045.24 770.82 2233.56 802.23 2213.52 958.08 2010.91 1048.42 2165.25 1077.76
00005597 00000027 1756.05 439.26 523.71 806.95 2042.46 777.85 2228.20 809.69 2206.04 965.27 2006.33 1054.70 2157.43 1084.14
00005598 00000028 1755.31 444.66 524.87 804.99 2039.37 786.30 2226.24 815.75 2201.99 966.31 2006.62 1058.52 2156.87 1085.88
00005599 00000029 1757.44 439.55 521.66 806.21 2039.50 787.10 2228.27 811.37 2206.41 964.07 2011.38 1059.46 2163.49 1082.95
00005600 00000030 1756.26 436.20 523.18 804.21 2040.39 786.58 2230.50 805.34 2209.08 959.91 2017.39 1056.39 2169.00 1075.74
00005601 00000031 1754.45 434.28 523.90 801.20 2038.96 784.90 2230.57 799.74 2209.03 955.60 2019.46 1054.90 2171.04 1070.85
00005602 00000032 1751.54 437.32 523.00 789.85 2036.22 787.72 2228.51 799.50 2204.84 954.19 2030.00 1060.67 2173.37 1071.96
00005603 00000033 1751.23 437.73 522.71 788.84 2034.57 788.67 2225.92 802.44 2201.79 954.64 2033.90 1064.26 2171.74 1076.15
00005604 00000034 1752.63 439.12 521.45 788.67 2034.36 788.61 2227.87 797.69 2205.14 953.28 2037.41 1064.92 2175.89 1073.33
00005605 00000035 1753.62 434.10 517.75 787.34 2033.23 785.30 2226.94 789.78 2208.02 945.66 2038.50 1059.44 2178.30 1064.58
00005606 00000036 1758.45 433.42 512.33 783.12 2033.54 777.21 2226.26 783.34 2207.24 938.05 2039.48 1052.48 2177.98 1058.06
00005607 00000037 1759.43 425.46 509.37 782.83 2029.61 770.83 2225.89 775.65 2205.46 930.02 2035.37 1044.40 2177.63 1049.35
00005608 00000038 1756.43 421.86 510.15 783.59 2023.71 764.43 2223.82 772.24 2200.24 924.87 2028.23 1040.61 2174.75 1047.75
00005609 00000039 1754.33 421.25 510.70 785.38 2021.32 764.03 2221.80 771.71 2198.68 925.39 2024.96 1040.30 2171.04 1047.53
00005610 00000040 1759.45 423.88 507.40 784.19 2024.85 767.58 2224.02 771.47 2204.03 926.37 2029.30 1041.15 2176.26 1045.79
00005611 00000041 1765.88 419.77 505.15 788.55 2030.57 768.97 2226.95 767.46 2214.26 924.49 2038.13 1037.78 2187.27 1039.48
00005612 00000042 1767.26 413.59 514.03 786.26 2037.45 760.84 2229.56 755.74 2219.87 916.53 2044.79 1025.22 2198.10 1023.42
00005613 00000043 1771.94 412.04 514.92 781.22 2042.41 758.62 2234.39 752.39 2226.81 912.30 2056.10 1021.60 2205.64 1018.87
00005614 00000044 1776.23 413.61 512.03 778.33 2045.62 761.68 2236.97 754.59 2231.53 916.63 2058.78 1024.56 2208.91 1021.37
00005615 00000045 1780.43 420.32 508.33 788.46 2043.59 778.16 2238.90 762.21 2236.26 924.98 2063.52 1040.98 2215.51 1033.57
00005616 00000046 1781.84 431.23 511.73 784.07 2045.76 790.04 2243.04 770.93 2237.69 938.49 2059.97 1048.03 2217.74 1037.83
00005617 00000047 1783.58 434.14 514.87 781.50 2047.40 795.15 2247.83 777.57 2238.60 943.85 2066.60 1055.69 2224.52 1046.09
00005618 00000048 1785.98 428.17 517.96 787.07 2056.24 791.90 2253.71 772.39 2242.72 949.14 2073.07 1058.59 2228.90 1045.95
00005619 00000049 1790.88 427.31 518.58 787.39 2059.68 795.41 2258.07 774.87 2242.95 949.68 2078.88 1061.39 2232.24 1047.93
00005620 00000050 1796.82 429.19 516.51 787.58 2062.26 798.06 2261.92 776.91 2246.85 953.49 2080.99 1063.92 2237.55 1050.01
00005621 00000051 1798.80 434.32 519.21 786.72 2065.35 800.34 2266.52 780.93 2248.47 958.35 2079.60 1068.15 2237.21 1055.43
00005622 00000052 1797.67 434.41 521.85 796.90 2067.22 801.86 2267.94 785.92 2249.87 960.45 2077.44 1070.94 2236.33 1061.03
00005623 00000053 1798.64 435.65 523.75 803.44 2069.54 803.70 2270.69 788.20 2251.33 965.67 2074.56 1071.92 2235.35 1062.50
00005624 00000054 1798.74 434.37 524.79 806.14 2069.14 805.79 2271.03 789.27 2251.00 966.23 2072.59 1072.06 2234.51 1062.20
00005625 00000055 1800.47 444.85 527.14 789.67 2062.01 807.32 2273.13 791.20 2250.44 961.91 2073.24 1071.38 2235.17 1062.24
00005626 00000056 1801.83 446.35 526.13 785.73 2061.24 806.55 2273.14 788.63 2250.87 960.63 2074.51 1069.56 2237.44 1058.93
00005627 00000057 1805.10 438.42 518.17 795.84 2065.33 803.53 2269.89 782.14 2248.84 963.97 2074.01 1069.42 2238.60 1055.25
00005628 00000058 1806.29 437.79 517.24 789.22 2064.95 804.78 2268.78 779.79 2248.06 962.60 2078.67 1068.94 2240.88 1051.94
00005629 00000059 1809.31 439.44 516.06 786.77 2065.67 808.07 2269.09 782.18 2248.20 961.82 2080.12 1068.67 2242.64 1051.03
00005630 00000060 1808.82 443.14 520.91 785.73 2067.59 823.96 2276.75 789.18 2253.86 961.40 2082.38 1069.55 2250.30 1046.65
00005631 00000061 1813.80 445.40 519.74 783.31 2074.97 826.73 2282.62 792.17 2259.24 961.68 2089.14 1069.20 2255.00 1046.57
00005632 00000062 1815.12 447.38 522.08 781.54 2073.64 826.61 2283.14 788.70 2260.09 963.90 2092.46 1071.13 2259.70 1045.60
00005633 00000063 1817.46 450.37 519.86 780.39 2070.64 826.23 2281.97 786.92 2258.92 966.76 2092.26 1074.25 2262.14 1046.93
00005634 00000064 1821.17 450.63 518.14 782.68 2072.14 827.13 2281.80 785.26 2261.42 970.59 2094.36 1076.10 2263.17 1046.83
00005635 00000065 1820.28 452.51 519.45 783.88 2069.51 830.64 2280.29 782.78 2261.50 975.34 2094.67 1078.99 2263.46 1045.31
00005636 00000066 1820.27 456.48 519.82 779.30 2067.61 833.56 2279.82 784.72 2258.68 979.66 2093.90 1082.51 2263.17 1047.81
00005637 00000067 1820.59 461.87 521.11 776.39 2068.31 836.59 2280.53 788.15 2259.02 981.37 2094.32 1085.52 2263.04 1051.00
00005638 00000068 1820.92 462.12 519.90 774.44 2066.45 838.00 2280.41 789.14 2257.40 984.66 2092.32 1086.89 2263.53 1052.03
00005639 00000069 1819.13 463.28 519.83 772.47 2064.29 839.24 2279.54 791.08 2254.73 986.70 2089.13 1087.97 2261.06 1053.55
00005640 00000070 1816.22 462.36 521.81 774.41 2064.68 838.53 2278.52 790.42 2254.04 987.37 2087.28 1088.60 2257.45 1054.23
00005641 00000071 1815.34 462.85 521.75 773.13 2064.48 838.54 2277.47 789.23 2253.75 988.89 2087.70 1089.14 2256.76 1053.75
00005642 00000072 1816.10 459.73 520.11 776.73 2064.25 839.32 2276.59 789.03 2253.36 990.20 2089.19 1089.94 2256.37 1053.74
00005643 00000073 1815.60 459.54 519.52 778.44 2062.60 840.91 2275.25 789.68 2252.71 991.35 2088.30 1090.92 2256.07 1054.06
00005644 00000074 1816.98 464.65 518.76 774.23 2061.57 843.63 2274.56 791.23 2253.37 991.48 2087.94 1092.04 2256.74 1054.47
00005645 00000075 1817.17 466.84 521.20 770.19 2062.66 843.57 2275.15 790.17 2253.91 991.05 2089.82 1092.72 2257.51 1054.34
00005646 00000076 1814.94 468.59 524.68 770.66 2060.17 845.84 2275.97 791.53 2251.70 996.45 2089.59 1096.22 2258.22 1056.68
00005647 00000077 1814.53 475.58 525.03 764.69 2062.01 846.47 2276.84 790.99 2253.89 995.66 2090.52 1098.60 2259.12 1058.46
00005648 00000078 1816.74 477.24 525.44 763.92 2063.58 847.69 2277.85 791.49 2255.79 993.97 2096.33 1099.29 2263.39 1058.45
00005649 00000079 1820.53 481.31 524.61 758.51 2065.79 848.66 2280.50 791.40 2257.42 994.42 2100.44 1098.67 2268.42 1056.78
00005650 00000080 1822.79 461.91 520.27 783.36 2061.18 849.26 2278.34 788.28 2257.78 994.17 2102.67 1106.57 2272.32 1063.40
00005651 00000081 1824.78 463.65 522.53 779.17 2063.51 849.80 2282.74 789.09 2258.85 992.81 2108.20 1106.45 2277.38 1063.39
00005652 00000082 1831.51 466.56 519.42 773.32 2067.64 850.84 2285.73 788.70 2262.54 992.04 2117.21 1109.00 2282.62 1064.86
00005653 00000083 1837.85 466.97 517.21 771.55 2073.42 852.42 2290.12 789.30 2268.45 990.71 2126.78 1109.39 2289.06 1064.70
00005654 00000084 1843.79 470.42 518.23 768.47 2080.12 856.64 2296.81 788.46 2278.27 990.79 2134.15 1106.70 2297.72 1058.47
00005655 00000085 1849.81 472.06 519.17 765.20 2088.09 858.51 2303.11 788.35 2286.31 990.79 2142.11 1103.90 2303.72 1054.21
00005656 DELETE   1860.10 465.62 520.97 774.99 2096.18 859.65 2318.37 787.73 2297.42 993.91 2148.71 1106.04 2316.51 1052.98
00005657 DELETE   1870.79 470.00 520.57 771.48 2107.60 861.03 2328.57 790.67 2308.21 994.90 2155.73 1107.15 2324.67 1055.46
00005658 00000088 1881.15 472.31 524.86 764.57 2119.95 859.16 2338.81 789.78 2316.70 989.83 2171.62 1104.54 2337.84 1053.66
00005659 00000089 1895.01 470.64 519.80 759.92 2129.12 855.87 2343.79 790.46 2320.98 985.71 2187.05 1107.65 2350.07 1060.31
00005660 DELETE   1904.94 470.62 519.32 758.97 2135.16 857.80 2352.61 790.38 2328.79 988.24 2198.18 1107.70 2361.69 1059.13
00005661 DELETE   1913.98 474.32 517.34 753.83 2142.03 862.11 2359.34 794.79 2333.39 996.41 2207.69 1109.32 2368.47 1060.69
00005662 DELETE   1921.91 477.27 517.05 748.97 2149.80 867.69 2366.34 796.82 2341.12 1003.53 2213.71 1112.44 2375.66 1061.23
00005663 00000093 1931.98 486.02 514.49 746.46 2157.81 873.63 2374.44 802.21 2352.91 1009.63 2217.59 1117.79 2383.81 1066.17
00005664 DELETE   1940.10 496.80 517.60 742.68 2168.70 876.50 2385.08 806.25 2366.06 1017.62 2225.56 1121.24 2395.23 1069.34
00005665 00000095 1950.48 507.94 519.73 739.63 2180.90 884.14 2398.08 810.98 2379.37 1020.73 2236.05 1125.74 2409.26 1071.98
00005666 00000096 1961.90 520.93 518.67 733.67 2191.24 891.31 2405.44 818.95 2388.01 1026.26 2246.05 1130.99 2418.27 1077.56
00005667 00000097 1969.62 518.84 517.15 748.14 2193.26 897.06 2412.89 824.83 2390.78 1033.83 2246.56 1139.92 2426.38 1086.72
00005668 00000098 1979.32 522.31 511.80 748.33 2196.19 903.82 2417.23 832.02 2389.68 1038.55 2247.80 1143.62 2430.67 1090.26
00005669 00000099 1981.57 529.28 512.75 744.78 2199.42 909.28 2421.24 838.31 2391.35 1042.38 2249.25 1145.19 2433.29 1092.35
00005670 00000100 1980.72 540.33 514.34 737.85 2203.00 909.58 2415.81 845.41 2390.78 1042.29 2253.64 1144.42 2431.75 1097.01
00005671 00000101 1979.45 543.01 515.20 734.88 2201.58 910.34 2415.27 846.98 2388.97 1043.64 2250.09 1144.04 2429.96 1097.20
00005672 00000102 1977.55 542.67 514.21 734.93 2199.96 910.34 2412.73 846.61 2387.24 1041.89 2245.72 1143.12 2426.10 1096.28
00005673 00000103 1976.86 545.76 514.31 730.66 2196.43 911.31 2409.47 844.58 2385.41 1043.02 2240.34 1140.41 2422.96 1091.26
00005674 00000104 1979.63 546.56 512.09 727.21 2190.58 911.54 2415.08 838.58 2384.52 1048.05 2232.10 1139.42 2426.65 1084.47
00005675 00000105 1978.84 548.26 514.89 724.80 2188.90 911.67 2414.32 836.16 2383.96 1049.33 2229.33 1136.91 2426.42 1080.05
00005676 00000106 1974.56 552.67 517.45 722.57 2191.01 911.83 2404.82 839.26 2379.81 1045.30 2229.89 1131.91 2419.64 1077.82
00005677 00000107 1974.58 550.20 514.07 726.44 2187.82 913.14 2403.01 842.39 2375.62 1045.16 2226.35 1132.12 2416.59 1079.32
00005678 00000108 1974.37 553.96 509.23 717.89 2182.79 915.26 2404.09 844.31 2369.47 1050.04 2223.85 1133.72 2412.68 1079.88
00005679 00000109 1970.72 554.50 510.15 722.46 2177.93 917.55 2401.22 847.95 2361.79 1054.81 2220.04 1137.64 2409.72 1084.63
00005680 00000110 1965.38 558.24 513.41 728.63 2172.93 923.01 2397.41 853.72 2357.47 1060.18 2218.46 1144.93 2408.82 1092.16
00005681 00000111 1964.69 564.61 511.83 732.99 2170.18 933.06 2393.93 861.74 2355.66 1070.08 2216.10 1154.09 2406.01 1100.54
00005682 00000112 1968.66 573.43 509.62 733.45 2167.12 940.90 2385.68 867.58 2358.54 1079.98 2216.33 1164.53 2413.08 1108.12
00005683 00000113 1969.90 578.85 506.81 739.11 2162.47 950.48 2387.46 878.61 2353.77 1095.79 2211.38 1178.51 2412.58 1122.60
00005684 00000114 1966.32 599.61 508.14 718.98 2159.28 963.05 2382.11 890.39 2347.00 1105.14 2209.24 1183.73 2401.21 1127.98
00005685 00000115 1962.72 604.22 507.96 721.92 2156.58 975.00 2378.06 899.15 2340.94 1113.18 2205.26 1189.22 2396.91 1131.57
00005686 00000116 1957.96 608.61 510.75 721.71 2151.90 981.46 2375.14 903.90 2335.97 1119.48 2200.32 1194.97 2393.77 1135.79
00005687 00000117 1954.72 613.91 512.14 717.82 2146.84 984.85 2371.67 908.84 2328.30 1122.75 2195.60 1197.82 2391.12 1139.35
00005688 00000118 1950.86 620.13 516.40 714.36 2141.42 989.29 2370.89 911.52 2323.42 1126.45 2191.84 1202.91 2390.85 1142.84
00005689 00000119 1948.35 622.28 518.01 712.39 2138.11 994.20 2368.83 913.43 2321.62 1128.09 2187.83 1205.84 2390.52 1143.64
00005690 00000120 1944.00 621.47 520.16 715.17 2136.11 1005.67 2366.38 922.19 2322.61 1125.55 2190.37 1211.85 2391.34 1148.54
00005691 00000121 1944.99 620.61 518.70 718.99 2137.35 1013.53 2368.07 929.67 2324.26 1125.79 2193.50 1214.29 2393.39 1151.06
00005692 00000122 1944.25 623.35 520.63 716.96 2136.67 1013.44 2367.14 929.61 2322.29 1128.31 2194.97 1219.64 2393.19 1156.19
00005693 00000123 1943.38 625.09 522.65 716.60 2135.26 1010.72 2367.39 925.75 2324.05 1132.88 2196.69 1224.44 2394.58 1160.05
00005694 00000124 1941.82 626.95 522.33 717.28 2134.63 1008.69 2365.91 924.34 2323.41 1135.20 2191.87 1223.67 2391.24 1159.61
00005695 00000125 1938.65 633.87 523.31 710.96 2130.56 1007.51 2362.90 923.91 2320.26 1139.13 2183.69 1225.41 2384.77 1161.55
00005696 00000126 1930.74 636.22 524.18 710.18 2124.88 1006.34 2359.19 924.89 2312.52 1139.15 2176.07 1228.54 2378.04 1166.12
00005697 00000127 1925.31 641.84 520.13 711.03 2118.99 1005.68 2354.90 926.66 2306.45 1141.99 2165.45 1229.11 2370.33 1167.82
00005698 00000128 1920.92 640.42 516.63 716.77 2113.06 1006.64 2349.64 928.89 2299.85 1145.44 2154.56 1227.47 2364.17 1166.60
00005699 00000129 1919.24 644.86 511.88 712.26 2109.19 1012.75 2335.53 934.19 2290.33 1153.20 2154.07 1225.97 2351.26 1164.17
00005700 00000130 1911.54 642.73 513.97 717.69 2103.89 1013.58 2329.06 933.71 2285.56 1151.58 2148.74 1226.19 2344.88 1163.52
00005701 DELETE   1904.75 648.53 515.38 710.56 2098.04 1015.64 2321.24 936.00 2277.55 1152.39 2146.04 1227.27 2339.84 1164.32
00005702 00000132 1898.41 647.36 517.35 714.40 2092.29 1015.85 2313.41 938.41 2268.76 1152.24 2138.75 1227.94 2331.66 1166.68
00005703 00000133 1889.14 650.80 519.44 710.16 2084.29 1013.77 2313.59 940.86 2259.62 1154.52 2131.16 1228.87 2323.49 1172.28
00005704 00000134 1882.86 645.05 519.13 715.76 2077.47 1010.94 2305.86 935.12 2255.23 1152.94 2123.44 1225.21 2317.89 1166.36
00005705 00000135 1873.47 648.36 517.75 710.49 2068.79 1010.82 2294.45 934.13 2245.56 1151.41 2118.81 1222.20 2308.92 1161.33
00005706 00000136 1867.12 643.35 515.78 714.90 2059.64 1005.77 2287.13 927.13 2238.55 1146.79 2108.53 1216.56 2302.43 1154.30
00005707 00000137 1860.58 640.52 516.72 710.44 2052.94 1000.04 2281.62 923.14 2231.76 1141.11 2097.77 1209.11 2295.24 1148.54
00005708 00000138 1852.69 633.62 514.76 715.20 2048.97 996.04 2273.14 920.31 2225.46 1136.13 2088.25 1201.72 2283.83 1142.31
00005709 00000139 1847.15 630.40 512.86 713.47 2043.50 993.33 2266.98 914.84 2223.23 1132.66 2081.71 1197.98 2278.14 1136.92
00005710 00000140 1845.52 614.58 511.09 718.60 2043.94 987.13 2270.69 910.69 2224.34 1123.06 2082.87 1190.08 2285.04 1130.65
00005711 00000141 1841.63 606.92 510.97 718.66 2041.87 988.57 2271.92 913.38 2223.60 1118.67 2079.21 1184.30 2284.86 1126.57
00005712 00000142 1842.23 601.76 508.66 716.46 2043.39 983.92 2272.78 909.63 2224.15 1113.26 2080.41 1181.20 2284.19 1124.50
00005713 00000143 1843.45 597.38 511.40 714.31 2046.71 982.52 2274.83 906.95 2227.60 1107.38 2088.10 1179.88 2287.71 1122.17
00005714 00000144 1843.07 597.55 515.55 712.96 2048.08 983.39 2277.14 907.39 2231.14 1105.69 2091.80 1180.96 2290.32 1123.17
00005715 00000145 1843.09 599.59 515.26 714.11 2045.27 984.02 2275.64 906.42 2228.26 1110.00 2088.26 1183.29 2289.35 1124.15
00005716 00000146 1839.16 598.81 515.84 721.42 2039.19 982.79 2272.47 902.48 2224.93 1116.93 2081.48 1186.48 2287.68 1124.85
00005717 00000147 1833.30 600.13 517.39 725.78 2033.31 983.01 2267.79 898.05 2221.69 1123.27 2076.81 1191.06 2286.01 1125.42
00005718 00000148 1824.67 610.79 514.18 709.90 2026.97 986.71 2254.92 905.52 2209.26 1127.10 2074.03 1191.73 2265.86 1129.54
00005719 00000149 1814.75 612.27 518.03 714.44 2018.94 989.54 2249.33 908.32 2200.09 1134.33 2061.04 1196.29 2256.99 1133.87
00005720 00000150 1804.49 609.96 520.99 724.18 2009.17 996.84 2241.71 912.51 2191.80 1140.33 2048.01 1203.69 2247.54 1139.46
00005721 00000151 1798.73 605.57 518.60 734.30 1999.00 1002.59 2235.10 916.60 2183.89 1149.15 2035.23 1211.89 2240.47 1146.80
CROP_BBOX: 1408 78 2782 1590
