Video ID: 	gpIdXbgertE
H: 	1080
W: 	1920
FPS: 	29.97002997002997

FRAME INDEX X0 Y0 W H [Landmarks (5 Points)]

00003011 00000000 734.13 266.30 404.02 580.46 964.78 497.69 1109.83 498.57 1107.12 621.63 965.26 711.08 1071.23 716.73
00003012 00000001 738.47 274.37 403.14 578.91 966.89 498.19 1109.09 497.35 1113.82 620.50 967.93 715.39 1072.94 719.80
00003013 00000002 743.10 274.83 405.78 582.27 970.82 496.64 1111.08 494.00 1119.30 618.70 970.60 716.22 1076.64 719.21
00003014 00000003 746.08 272.65 406.06 585.76 974.24 496.59 1112.32 491.96 1123.01 618.79 972.90 716.90 1078.34 718.39
00003015 00000004 750.15 274.31 404.85 585.59 978.25 496.73 1115.28 492.73 1126.57 620.21 975.66 717.76 1079.59 719.87
00003016 00000005 753.39 273.81 404.90 590.25 981.76 494.52 1115.48 489.72 1132.42 620.70 971.90 717.85 1075.82 720.09
00003017 00000006 759.26 271.23 402.37 594.03 985.27 494.92 1118.39 488.83 1135.46 621.75 975.39 719.82 1078.55 721.03
00003018 00000007 758.11 285.57 404.81 580.01 995.74 494.38 1116.22 492.24 1135.82 617.65 982.70 717.44 1072.20 719.49
00003019 00000008 763.54 276.88 400.86 585.13 997.15 495.77 1123.19 490.07 1142.09 622.45 994.43 719.73 1087.52 720.65
00003020 00000009 765.65 281.45 397.91 579.85 995.73 497.64 1126.17 492.07 1143.39 623.89 995.00 721.01 1091.95 721.98
00003021 00000010 763.05 283.19 403.04 578.55 994.19 498.09 1128.77 491.62 1144.43 626.39 992.26 722.65 1092.22 722.98
00003022 00000011 759.41 283.22 404.23 576.52 990.12 500.96 1128.16 498.71 1137.97 625.55 989.80 722.18 1091.25 725.41
00003023 00000012 749.52 274.57 411.06 586.26 979.79 504.97 1122.35 504.29 1129.25 624.08 974.11 720.80 1080.00 725.74
00003024 00000013 739.49 264.92 411.13 591.93 970.50 511.42 1118.00 505.86 1117.71 628.75 962.02 720.05 1071.63 721.47
00003025 00000014 732.09 262.80 414.23 591.55 955.12 511.66 1113.76 511.26 1095.94 628.58 945.39 714.85 1065.42 719.71
00003026 00000015 716.05 258.84 420.79 610.53 933.81 503.12 1097.28 500.13 1074.26 626.47 931.11 722.83 1052.90 724.57
00003027 00000016 706.12 257.34 420.68 615.89 912.18 502.94 1086.79 501.10 1056.82 628.28 909.06 724.50 1042.78 727.27
00003028 DELETE   690.82 269.26 421.46 608.90 889.48 502.08 1066.33 500.89 1035.91 628.31 886.85 730.69 1027.95 731.12
00003029 00000018 682.76 267.67 420.99 615.40 877.10 502.59 1060.03 507.32 1020.36 633.62 874.33 726.41 1021.47 734.67
00003030 00000019 674.06 271.33 426.94 615.32 868.67 501.95 1054.33 507.12 1012.34 635.77 864.17 727.74 1017.21 736.05
00003031 00000020 669.78 271.00 427.39 610.38 865.23 505.35 1052.55 513.69 1005.01 638.44 862.29 727.48 1013.19 737.85
00003032 00000021 669.62 273.82 426.80 604.07 865.89 505.97 1051.98 514.30 1006.39 639.41 864.68 727.69 1012.46 738.07
00003033 00000022 671.69 274.16 425.24 599.75 867.03 506.19 1054.50 513.88 1007.06 639.72 866.60 726.44 1014.50 736.35
00003034 00000023 673.74 272.20 424.04 599.68 868.17 506.16 1056.02 513.79 1008.49 639.36 868.25 725.64 1015.92 735.49
00003035 00000024 672.21 271.71 425.61 600.26 867.52 507.52 1055.80 512.29 1009.37 639.87 866.87 726.33 1015.25 733.97
00003036 00000025 671.76 272.52 426.66 602.58 867.13 505.52 1054.01 511.58 1007.86 638.97 865.19 725.33 1013.83 734.16
00003037 00000026 668.92 274.50 427.35 602.40 865.37 502.71 1051.77 508.33 1007.28 637.41 865.93 726.26 1013.32 734.64
00003038 00000027 665.57 272.20 428.24 604.48 864.10 501.64 1049.47 505.81 1007.63 634.40 865.99 725.72 1012.94 732.77
00003039 00000028 664.98 269.96 426.77 605.80 863.43 500.33 1046.73 502.92 1007.70 633.43 866.59 724.73 1012.36 730.61
00003040 00000029 665.57 261.49 421.37 609.59 854.47 510.60 1038.91 494.72 1005.13 631.64 867.95 732.21 1011.13 722.20
00003041 00000030 665.49 260.22 419.24 612.33 849.68 510.26 1035.00 489.44 1004.67 630.59 866.28 733.55 1012.08 719.71
00003042 00000031 664.82 262.09 415.98 609.40 846.64 512.55 1031.43 489.47 1002.29 631.19 867.09 735.04 1010.97 719.35
00003043 00000032 661.33 265.03 417.64 603.60 842.15 513.14 1028.06 487.74 997.38 631.21 868.78 734.67 1010.90 716.96
00003044 00000033 659.44 263.17 416.05 609.13 838.78 514.95 1024.17 485.09 996.09 630.95 867.36 734.08 1012.59 712.72
00003045 00000034 658.19 257.21 417.05 611.70 837.88 514.93 1025.08 484.65 993.80 630.30 868.66 732.17 1014.54 710.06
00003046 00000035 660.49 257.81 415.03 609.26 837.38 515.17 1026.21 485.80 992.11 631.12 868.37 731.54 1015.01 710.23
00003047 00000036 659.76 263.62 415.76 607.21 838.04 514.49 1025.65 484.09 996.02 631.25 868.15 732.58 1015.79 710.50
00003048 00000037 663.68 261.41 415.98 608.56 840.47 508.04 1029.11 482.26 997.93 629.38 868.29 734.71 1013.72 716.50
00003049 00000038 665.65 259.37 416.34 606.82 844.57 507.04 1031.80 480.74 1001.34 628.24 869.56 732.23 1015.26 713.64
00003050 00000039 668.79 255.23 415.44 611.60 846.75 505.88 1032.17 478.25 1005.17 626.25 869.30 731.78 1016.51 712.13
00003051 00000040 669.20 258.46 414.21 607.27 848.37 506.51 1031.63 477.57 1007.52 626.12 870.11 729.01 1018.54 708.29
00003052 00000041 671.57 257.63 411.73 605.93 848.24 508.72 1033.03 478.80 1007.31 626.36 871.29 728.89 1021.70 707.17
00003053 00000042 672.58 256.22 410.59 608.23 848.58 508.02 1032.80 478.44 1007.22 625.91 872.13 729.81 1022.23 708.22
00003054 00000043 671.26 252.92 412.69 614.21 848.15 507.74 1031.30 477.32 1007.81 623.99 871.71 730.71 1021.35 708.48
00003055 00000044 673.10 260.74 417.46 610.27 856.35 496.45 1040.44 477.24 1012.38 615.21 877.87 729.04 1022.74 713.98
00003056 00000045 673.46 258.23 419.36 611.52 857.46 493.76 1042.18 474.66 1015.41 609.63 882.29 728.83 1025.46 713.65
00003057 00000046 675.43 244.66 410.30 619.22 853.26 502.47 1033.16 470.73 1013.96 616.66 879.87 730.34 1025.14 706.47
00003058 00000047 672.22 255.07 417.76 607.04 859.33 488.87 1039.26 470.37 1016.68 602.30 887.97 719.99 1028.27 705.27
00003059 00000048 672.31 249.32 416.68 606.34 861.29 483.29 1041.50 467.53 1018.93 595.82 892.76 714.52 1030.91 701.75
00003060 00000049 673.24 248.04 416.15 601.51 863.57 479.88 1041.29 462.74 1021.43 590.87 895.78 709.20 1031.67 695.63
00003061 00000050 675.03 243.78 413.67 602.76 865.12 477.61 1041.66 460.65 1023.02 588.65 896.78 706.73 1031.71 693.44
00003062 00000051 681.66 229.95 403.94 614.16 862.27 478.75 1039.99 452.55 1023.54 586.12 895.61 704.83 1036.94 684.36
00003063 00000052 683.89 218.91 405.02 622.31 868.98 474.79 1044.80 451.48 1029.03 583.15 899.79 701.89 1038.58 683.50
00003064 00000053 685.60 215.45 405.31 623.75 875.40 468.35 1047.81 451.27 1033.67 578.11 903.03 697.28 1038.25 683.97
00003065 00000054 695.67 212.13 401.28 625.96 888.20 466.95 1057.25 455.62 1042.38 577.44 910.79 695.06 1044.65 686.61
00003066 00000055 703.43 211.23 401.74 626.46 898.50 465.13 1070.39 458.67 1053.44 574.96 920.44 692.89 1056.11 688.08
00003067 00000056 713.34 207.52 395.51 627.71 911.57 462.80 1079.74 463.87 1063.97 571.57 929.50 689.19 1062.37 690.63
00003068 00000057 717.65 208.92 398.27 622.97 922.65 456.65 1091.46 460.47 1074.32 572.94 934.67 686.93 1067.17 690.89
00003069 00000058 718.04 209.76 402.55 618.18 927.26 454.73 1096.40 460.92 1077.72 570.36 938.29 683.38 1070.60 689.14
00003070 00000059 721.58 212.78 401.40 614.26 932.12 453.65 1098.36 459.80 1081.15 570.15 940.91 682.04 1071.62 688.13
00003071 00000060 725.12 210.14 402.30 616.46 935.95 453.57 1099.53 458.60 1085.97 568.45 943.09 679.60 1074.16 685.27
00003072 00000061 727.22 207.32 400.65 615.18 936.47 451.59 1100.79 455.62 1086.63 563.79 943.23 675.57 1076.89 680.34
00003073 00000062 732.42 206.09 397.22 612.68 937.57 450.48 1103.57 454.76 1085.99 564.12 944.76 674.38 1079.07 679.15
00003074 00000063 734.07 203.99 398.47 615.26 937.35 449.61 1105.32 455.44 1085.23 564.20 946.44 675.57 1080.34 681.44
00003075 00000064 736.08 208.45 399.57 611.88 938.11 450.66 1109.07 460.23 1084.81 566.04 946.80 677.00 1082.02 685.72
00003076 00000065 738.96 209.66 398.66 610.55 938.64 450.92 1110.84 460.37 1085.05 568.42 947.14 678.65 1082.80 687.33
00003077 00000066 742.03 206.11 399.92 614.23 938.05 451.07 1111.04 466.10 1079.62 571.00 948.52 671.38 1079.87 686.67
00003078 00000067 735.44 206.99 406.55 617.20 932.58 445.32 1108.93 459.50 1077.86 568.15 948.13 677.24 1078.32 688.85
00003079 00000068 741.77 205.81 406.96 616.62 938.48 451.57 1114.88 466.70 1080.04 574.53 945.80 673.68 1079.87 688.94
00003080 00000069 734.45 209.75 409.91 617.42 933.26 447.63 1108.33 462.14 1075.43 574.08 947.97 681.54 1076.70 693.51
00003081 00000070 733.72 208.13 411.20 621.63 932.76 448.31 1106.22 462.00 1075.23 576.34 945.68 683.15 1074.03 694.66
00003082 00000071 731.93 210.11 410.95 618.20 930.83 448.07 1105.50 461.82 1073.60 575.72 943.84 682.68 1073.97 694.27
00003083 00000072 733.96 203.69 413.09 620.19 923.26 451.60 1108.59 459.41 1066.22 570.46 937.00 675.70 1078.60 684.70
00003084 00000073 729.32 202.34 417.70 626.95 919.87 450.78 1107.05 460.41 1063.10 569.31 931.30 677.21 1073.74 687.87
00003085 00000074 727.38 202.36 417.76 626.16 915.91 449.34 1105.00 461.16 1058.15 567.89 927.56 676.38 1070.90 688.70
00003086 00000075 722.63 207.91 416.16 618.90 921.37 452.80 1101.28 466.29 1065.37 572.45 927.14 682.80 1067.00 694.83
00003087 00000076 721.82 203.27 416.74 621.54 918.10 451.25 1101.70 464.74 1063.86 571.40 925.43 682.97 1067.26 694.97
00003088 00000077 720.55 202.03 417.22 621.90 915.55 450.69 1100.82 463.35 1062.91 571.16 924.38 683.15 1066.61 694.44
00003089 00000078 719.47 202.12 416.26 621.29 913.83 450.01 1100.41 462.25 1063.32 571.41 922.21 682.83 1065.69 693.91
00003090 00000079 720.08 203.98 413.66 619.54 913.26 450.30 1099.71 462.29 1062.17 571.34 921.88 682.97 1065.30 693.64
00003091 00000080 719.67 203.04 414.21 619.47 913.74 449.94 1100.22 462.23 1062.44 571.09 922.11 682.02 1065.00 692.94
00003092 00000081 720.36 203.53 413.71 617.79 913.94 449.83 1101.33 462.39 1062.86 571.38 921.68 681.54 1065.46 692.62
00003093 00000082 719.89 205.90 414.43 616.42 914.83 449.66 1101.22 462.25 1062.94 571.80 923.13 681.95 1064.94 693.01
00003094 00000083 721.06 202.71 414.85 618.88 917.25 451.41 1101.79 464.97 1063.18 574.22 925.14 683.06 1064.30 694.90
00003095 00000084 721.17 202.24 415.98 619.48 917.10 451.90 1101.85 466.40 1062.15 574.06 925.10 683.08 1063.78 695.67
00003096 00000085 721.57 203.52 414.95 619.87 919.78 454.62 1100.69 468.35 1063.76 574.88 924.28 682.87 1062.68 695.21
00003097 00000086 722.62 199.00 420.32 626.90 913.64 453.02 1102.82 466.11 1053.30 567.85 922.18 673.69 1066.66 686.99
00003098 00000087 725.23 200.73 419.16 624.34 914.64 452.54 1104.13 467.07 1053.76 567.03 922.33 673.29 1067.32 687.80
00003099 00000088 726.17 200.09 420.99 626.47 915.60 452.19 1105.47 468.66 1054.87 567.59 922.35 674.44 1068.43 690.41
00003100 00000089 729.95 199.28 419.58 625.30 919.97 452.51 1107.03 468.71 1057.24 569.41 925.24 673.88 1067.89 689.79
00003101 00000090 730.46 199.50 422.44 626.16 923.40 453.28 1109.15 469.97 1059.75 571.94 926.66 674.00 1068.12 690.46
00003102 00000091 732.80 207.31 424.36 620.94 930.76 451.75 1113.43 477.15 1064.76 583.85 925.90 676.69 1066.23 699.51
00003103 00000092 732.51 214.71 418.79 614.31 934.17 451.15 1110.05 471.25 1071.08 582.03 936.19 684.28 1068.63 701.36
00003104 00000093 736.10 212.51 419.44 617.12 939.42 452.65 1113.83 474.74 1075.27 583.69 939.74 684.62 1069.83 703.40
00003105 00000094 737.80 216.05 419.32 612.08 941.60 453.48 1113.65 476.21 1075.33 583.80 941.26 683.56 1069.10 702.96
00003106 00000095 742.41 215.20 423.67 610.85 938.83 457.61 1115.52 479.65 1070.89 587.57 933.93 676.97 1068.84 697.69
00003107 00000096 741.81 215.20 423.75 611.14 939.84 456.47 1115.89 479.84 1071.69 587.31 933.83 675.94 1068.44 697.83
00003108 00000097 742.28 214.69 424.50 611.49 941.58 454.72 1117.65 479.88 1072.77 587.02 933.96 674.53 1068.88 697.99
00003109 00000098 742.91 215.81 424.23 610.39 942.64 453.58 1118.65 480.16 1073.92 587.43 932.91 673.75 1068.37 698.47
00003110 00000099 742.99 216.82 424.72 610.96 943.02 453.97 1118.90 481.11 1074.90 589.04 931.80 673.68 1068.52 698.86
00003111 00000100 746.81 214.94 422.92 613.63 945.90 454.57 1118.31 481.80 1076.40 588.46 934.54 672.61 1067.87 698.13
00003112 00000101 750.09 216.98 420.91 609.35 949.03 453.42 1120.02 481.58 1079.19 587.18 937.02 670.69 1069.57 697.12
00003113 00000102 752.85 218.08 420.49 609.48 953.28 451.25 1122.32 483.46 1083.53 586.88 938.37 668.49 1071.28 698.33
00003114 00000103 757.16 217.30 416.28 610.57 958.65 451.93 1124.12 486.95 1087.30 586.02 942.55 667.26 1072.15 699.56
00003115 00000104 758.97 215.19 417.16 609.68 962.26 450.61 1126.33 486.09 1089.83 582.97 945.50 664.53 1073.70 697.26
00003116 00000105 760.68 215.37 416.74 609.00 965.40 449.44 1128.62 486.94 1091.33 582.23 946.17 663.34 1073.40 697.89
00003117 00000106 762.29 215.31 417.78 611.12 968.83 447.40 1130.49 488.65 1092.41 583.40 945.29 661.67 1072.16 699.36
00003118 00000107 762.11 212.42 420.82 615.20 972.59 446.79 1133.54 490.96 1094.97 582.68 946.56 660.67 1073.33 700.61
00003119 00000108 767.48 212.06 416.17 614.67 976.44 445.30 1134.15 490.44 1097.80 582.77 949.30 659.56 1073.93 700.57
00003120 00000109 772.45 215.02 413.21 610.00 981.80 445.20 1137.97 489.40 1099.08 582.51 954.51 657.88 1077.24 698.44
00003121 00000110 767.66 221.25 412.23 600.57 986.14 456.07 1139.44 495.69 1101.16 579.46 962.74 664.62 1084.24 698.71
00003122 00000111 771.94 221.07 410.89 600.48 990.50 456.63 1143.29 495.90 1105.27 581.74 964.22 664.61 1086.43 698.79
00003123 00000112 773.51 220.66 410.86 602.27 995.62 456.75 1145.29 496.88 1110.10 583.48 966.93 664.00 1087.92 699.26
00003124 00000113 774.44 219.07 409.95 603.43 996.76 455.38 1146.35 495.32 1111.23 583.06 968.01 663.51 1089.07 698.61
00003125 00000114 773.70 217.59 411.13 605.61 996.88 453.96 1146.38 493.14 1112.33 581.11 969.08 663.28 1089.21 697.66
00003126 00000115 772.62 218.83 411.34 605.77 997.69 452.61 1146.98 492.09 1115.76 578.65 970.17 663.46 1089.65 697.99
00003127 00000116 772.60 217.55 411.09 607.61 998.57 450.69 1147.80 490.97 1117.24 578.18 971.66 664.42 1090.06 699.48
00003128 00000117 772.94 217.35 410.95 607.81 1000.37 450.82 1148.33 491.73 1118.59 578.02 972.25 663.60 1090.35 699.24
00003129 00000118 771.14 217.20 409.92 608.81 995.83 450.98 1145.34 490.42 1116.20 577.93 969.33 664.65 1088.94 699.11
00003130 00000119 771.30 215.27 407.28 611.44 994.42 450.88 1142.75 490.56 1115.03 577.88 968.09 664.76 1087.38 699.35
00003131 00000120 769.87 214.20 407.42 611.45 993.92 451.22 1141.50 489.95 1114.69 576.62 968.60 663.32 1087.85 697.06
00003132 00000121 765.02 215.25 408.72 609.05 991.69 452.32 1137.40 490.98 1112.64 574.98 967.99 660.85 1086.30 694.27
00003133 00000122 760.32 215.89 407.71 605.26 983.07 449.32 1131.24 488.24 1105.16 569.84 962.86 658.34 1081.71 691.47
00003134 00000123 761.66 208.85 410.45 611.98 976.45 441.27 1129.57 483.52 1099.73 572.80 953.03 653.35 1075.03 691.93
00003135 00000124 757.36 208.75 410.73 612.60 971.14 440.88 1127.02 483.57 1097.08 572.79 948.78 654.79 1072.10 693.44
00003136 00000125 754.15 211.45 411.27 607.25 967.42 445.75 1124.73 485.79 1094.00 573.24 948.37 654.72 1072.61 690.94
00003137 00000126 754.91 210.74 408.89 605.84 967.80 449.14 1124.63 489.30 1094.86 570.49 947.89 653.59 1071.87 689.76
00003138 00000127 757.43 206.48 407.61 611.42 976.37 448.64 1126.51 491.27 1102.73 569.80 953.34 651.96 1072.57 690.43
00003139 00000128 766.75 205.82 399.45 620.27 989.81 447.90 1127.30 495.08 1112.07 573.30 960.87 653.30 1071.75 696.21
00003140 00000129 766.74 213.48 394.60 602.85 994.59 448.20 1124.12 487.82 1119.81 576.61 967.38 661.52 1077.25 695.45
00003141 00000130 770.47 213.80 393.55 608.19 1003.37 449.02 1122.74 480.08 1129.89 578.97 975.45 665.89 1077.53 693.92
00003142 00000131 767.97 212.97 395.75 605.65 1006.18 450.50 1123.93 476.23 1134.99 580.23 980.77 667.33 1081.59 690.44
00003143 00000132 769.67 214.21 391.82 606.44 1007.74 453.34 1118.20 475.63 1135.88 581.82 981.99 668.56 1077.27 689.40
00003144 00000133 770.97 219.46 388.12 600.36 1008.61 452.75 1114.54 472.77 1137.40 583.73 985.85 670.82 1077.82 689.84
00003145 00000134 769.98 217.08 387.83 598.92 1011.45 457.59 1113.89 473.56 1139.48 586.74 990.59 674.22 1077.13 689.53
00003146 00000135 769.21 223.62 388.44 592.79 1014.30 459.83 1115.21 471.77 1141.87 590.92 992.66 676.47 1078.24 689.23
00003147 00000136 768.05 224.20 391.63 599.10 1017.49 458.73 1113.47 475.08 1143.31 592.06 992.42 678.10 1072.78 694.73
00003148 00000137 768.37 226.24 390.83 597.31 1018.15 460.56 1113.63 476.34 1145.28 595.70 992.31 680.78 1070.89 697.27
00003149 00000138 768.07 224.09 391.54 601.19 1018.06 461.31 1112.26 476.39 1145.67 595.47 993.15 681.84 1070.21 697.66
00003150 00000139 767.55 225.50 391.27 600.08 1019.86 461.08 1112.79 476.68 1146.93 596.48 995.87 682.59 1070.27 698.75
00003151 00000140 769.55 226.85 390.39 601.94 1020.94 461.53 1113.80 477.76 1148.72 597.71 996.33 683.53 1071.60 700.29
00003152 00000141 768.54 228.60 391.65 603.10 1020.97 461.47 1113.03 478.65 1148.03 598.47 994.98 683.77 1069.99 701.45
00003153 00000142 765.37 228.18 394.55 601.50 1017.28 462.45 1112.89 477.72 1144.34 599.27 992.18 683.63 1069.51 699.72
00003154 00000143 759.76 219.72 394.85 606.43 1006.54 462.84 1110.22 480.09 1137.80 594.30 986.16 683.08 1069.82 699.33
00003155 00000144 751.91 220.72 398.92 602.42 997.99 460.38 1111.87 486.51 1125.80 593.50 976.56 679.50 1068.26 702.26
00003156 00000145 742.23 219.55 404.90 602.26 988.50 456.70 1110.66 490.39 1113.16 591.24 966.62 677.76 1062.86 705.84
00003157 00000146 732.43 222.82 411.34 599.28 979.95 455.54 1110.11 493.83 1102.19 591.26 957.15 676.47 1059.76 708.32
00003158 00000147 724.46 220.49 415.33 606.97 975.78 465.83 1098.52 501.68 1096.81 596.09 953.60 679.16 1043.61 710.29
00003159 00000148 716.07 222.53 418.48 606.45 963.52 464.62 1098.52 503.55 1086.81 596.98 942.85 679.87 1042.15 712.78
00003160 00000149 716.75 229.09 413.44 602.81 955.01 466.81 1101.10 499.56 1081.25 602.34 935.51 688.08 1041.82 716.43
00003161 00000150 706.17 224.46 419.03 617.13 940.49 463.51 1089.25 501.21 1064.99 605.43 917.60 686.65 1031.68 718.80
00003162 00000151 698.99 234.25 428.47 614.99 929.57 464.62 1085.27 500.99 1052.57 609.51 903.19 688.71 1024.77 720.48
00003163 00000152 695.05 235.06 430.78 618.35 918.88 464.94 1082.30 506.34 1043.24 609.07 888.75 688.22 1017.62 724.44
00003164 00000153 688.23 230.11 438.32 628.21 908.50 464.36 1078.30 508.32 1032.84 610.10 875.51 690.81 1009.43 729.32
00003165 00000154 675.47 226.71 444.51 632.66 897.42 461.91 1066.54 511.16 1019.55 609.46 861.72 690.73 996.56 733.39
00003166 00000155 665.25 227.84 445.61 631.07 886.54 459.52 1058.40 507.16 1010.53 606.15 850.57 690.02 991.73 730.94
00003167 00000156 655.65 229.66 446.49 624.68 881.31 458.43 1052.87 504.83 1004.47 607.69 841.41 688.96 984.85 728.70
00003168 00000157 654.20 220.39 441.81 634.30 878.24 465.07 1043.13 502.36 1001.39 606.81 846.24 692.48 974.62 725.42
00003169 00000158 648.46 222.89 442.02 624.28 871.59 464.96 1038.39 498.75 994.52 604.81 847.16 690.38 975.87 719.79
00003170 00000159 648.02 221.32 439.66 627.25 872.50 466.25 1036.63 497.03 998.15 605.03 844.41 688.43 974.56 715.67
00003171 00000160 650.38 220.51 438.66 626.62 874.57 465.36 1037.38 495.31 998.04 604.68 847.92 689.70 974.66 716.12
00003172 00000161 651.80 222.75 436.49 624.75 876.93 467.92 1038.05 496.73 1001.86 603.21 853.82 690.76 978.51 716.27
00003173 00000162 654.29 222.27 436.63 624.35 884.38 468.59 1042.06 495.92 1012.78 604.00 862.74 694.52 983.55 719.16
00003174 00000163 672.55 223.26 437.17 621.84 879.47 470.86 1055.91 498.82 1012.86 602.13 863.15 687.68 997.35 713.90
00003175 00000164 672.49 226.07 436.06 620.44 896.06 464.18 1061.34 501.79 1025.23 599.03 871.67 686.36 1001.77 719.07
00003176 00000165 681.69 225.73 437.24 627.72 900.76 465.91 1071.49 499.72 1034.28 601.99 879.03 691.08 1010.72 721.62
00003177 00000166 689.19 226.84 434.04 628.49 909.12 469.73 1075.45 499.25 1039.48 605.99 883.19 693.22 1012.57 720.84
