Video ID: 	8uMo1kKKuGQ
H: 	1080
W: 	1920
FPS: 	25.0

FRAME INDEX X0 Y0 W H [Landmarks (5 Points)]

00002124 00000000 920.69 115.68 402.01 592.87 977.12 346.40 1126.85 338.92 1007.69 450.78 1003.17 558.27 1129.88 551.71
00002125 00000001 920.37 115.63 402.19 594.47 978.82 346.33 1131.92 341.74 1012.34 453.93 1002.96 558.88 1132.38 554.76
00002126 00000002 921.57 112.43 403.39 591.44 982.56 343.95 1136.27 341.19 1015.83 451.51 1004.13 556.77 1129.56 554.25
00002127 00000003 928.13 103.48 399.82 591.40 977.03 338.10 1147.52 336.40 1018.24 442.74 999.00 549.64 1124.88 549.25
00002128 DELETE   929.84 96.84 403.03 586.45 980.76 333.07 1153.40 325.99 1026.72 425.33 1001.99 540.13 1130.46 535.30
00002129 00000005 931.03 101.39 398.51 568.03 993.32 320.26 1154.57 318.20 1033.39 416.52 1006.06 528.24 1136.44 527.76
00002130 00000006 934.82 99.70 397.26 563.72 993.74 315.88 1152.49 312.41 1031.64 408.24 1007.72 521.88 1132.98 520.44
00002131 00000007 935.55 99.30 396.44 561.30 993.97 313.27 1151.69 309.09 1031.57 404.49 1008.27 520.11 1130.45 518.31
00002132 00000008 936.06 99.08 396.29 562.38 993.33 314.77 1150.98 309.77 1030.13 405.51 1008.10 521.83 1130.60 519.33
00002133 00000009 934.87 99.46 397.05 562.44 991.95 318.00 1150.93 314.42 1028.30 411.99 1004.77 523.96 1131.12 522.33
00002134 00000010 931.71 87.98 401.37 581.12 983.92 326.31 1151.11 316.00 1027.34 418.41 1003.00 531.74 1128.05 524.59
00002135 00000011 929.59 94.54 401.15 578.33 980.49 329.52 1148.32 319.68 1023.41 422.11 1001.78 536.95 1124.92 530.11
00002136 00000012 928.83 95.73 399.81 577.20 980.02 329.10 1145.15 319.12 1020.38 419.69 1000.62 535.98 1121.94 529.00
00002137 00000013 929.11 92.60 400.73 576.15 981.06 325.97 1145.73 314.74 1019.96 414.55 1000.60 531.62 1122.52 523.65
00002138 00000014 931.86 88.25 399.88 578.38 983.02 324.34 1146.34 312.89 1021.19 411.59 1001.16 528.25 1122.59 520.24
00002139 00000015 933.55 89.26 399.45 579.59 985.16 324.01 1149.72 313.92 1024.71 412.80 1003.39 529.64 1125.22 522.72
00002140 00000016 935.31 91.14 398.83 581.98 987.44 324.65 1152.28 317.28 1026.72 415.18 1004.44 531.99 1125.79 527.21
00002141 00000017 934.98 100.96 397.45 574.24 996.20 320.33 1153.29 318.46 1030.73 414.77 1007.59 531.10 1131.70 531.18
00002142 00000018 939.86 99.35 396.41 573.63 1000.80 316.50 1157.81 315.86 1034.85 410.63 1010.62 527.32 1135.17 528.82
00002143 00000019 944.83 98.64 394.82 573.93 1003.99 317.05 1159.73 315.97 1036.52 410.36 1013.47 527.44 1138.25 528.76
00002144 00000020 947.55 99.08 396.31 575.35 1007.07 320.22 1163.60 318.68 1039.59 414.08 1016.92 530.20 1142.59 530.89
00002145 00000021 950.23 97.81 398.75 577.35 1009.31 320.50 1167.89 320.09 1041.39 417.09 1018.51 530.22 1147.21 531.24
00002146 00000022 952.36 94.04 399.29 579.40 1010.61 319.59 1172.21 319.13 1044.37 414.29 1017.91 527.70 1150.46 528.57
00002147 00000023 953.44 92.14 400.16 578.10 1011.25 318.46 1176.37 319.81 1046.14 414.99 1014.93 525.14 1151.58 527.38
00002148 00000024 952.80 92.90 400.85 579.79 1012.33 319.75 1177.73 322.30 1048.38 418.44 1015.15 526.44 1152.67 529.47
00002149 00000025 950.65 96.82 402.58 579.12 1013.13 322.67 1177.02 323.62 1049.94 418.69 1019.22 531.19 1150.75 533.40
00002150 00000026 953.01 94.76 399.75 588.37 1015.99 325.51 1183.25 330.43 1042.72 414.71 1018.27 533.00 1138.83 537.41
00002151 00000027 952.45 96.05 398.07 578.73 1014.42 319.01 1174.93 323.55 1045.95 416.39 1015.82 527.75 1145.67 533.15
00002152 00000028 951.85 95.34 398.99 581.01 1015.47 317.14 1176.14 322.95 1046.90 415.92 1015.59 527.56 1144.79 534.04
00002153 00000029 950.08 95.66 401.10 583.72 1015.35 317.50 1179.73 324.82 1048.92 416.12 1013.19 527.87 1148.16 535.35
00002154 00000030 949.05 92.67 400.12 583.69 1016.37 313.68 1183.12 327.10 1050.06 415.20 1008.33 522.94 1146.31 535.33
00002155 00000031 948.83 89.64 398.48 581.80 1017.08 309.18 1184.62 327.34 1048.09 409.99 1003.86 516.01 1141.64 532.42
00002156 00000032 949.68 89.17 398.46 580.73 1019.10 306.75 1185.01 328.22 1046.64 407.76 1004.16 512.63 1137.60 532.00
00002157 00000033 948.71 88.83 398.71 586.57 1020.81 305.71 1185.39 329.13 1047.27 408.33 1005.03 513.78 1136.18 534.79
00002158 00000034 947.93 90.25 399.90 588.07 1022.79 305.78 1186.91 329.92 1049.83 408.80 1006.34 515.37 1135.25 537.04
00002159 00000035 950.10 89.81 398.62 588.76 1022.16 304.09 1187.88 324.30 1050.09 406.45 1009.26 515.47 1144.30 533.47
00002160 00000036 951.62 88.83 401.12 586.29 1021.77 299.03 1192.68 317.72 1052.74 398.11 1009.80 509.34 1152.09 525.93
00002161 00000037 953.81 82.74 402.86 579.31 1021.76 292.22 1196.02 313.60 1053.00 390.74 1007.80 500.15 1149.98 519.10
00002162 00000038 955.48 78.13 400.15 569.36 1021.18 287.63 1196.78 310.62 1052.26 384.31 1004.18 487.97 1149.76 508.43
00002163 00000039 958.50 72.74 399.13 572.62 1020.28 285.38 1195.28 306.43 1049.19 380.34 1004.35 483.81 1150.49 502.61
00002164 00000040 959.59 72.65 400.17 569.23 1019.63 280.61 1194.47 299.16 1046.95 372.40 1005.13 479.87 1150.40 496.90
00002165 00000041 960.03 69.12 404.65 567.33 1019.10 275.76 1194.86 284.71 1043.87 356.34 1008.21 475.44 1155.92 484.60
00002166 00000042 957.82 62.42 404.90 565.02 1018.58 272.01 1195.19 276.94 1046.90 347.20 1011.32 470.73 1157.30 476.68
00002167 00000043 962.11 64.41 397.92 559.84 1022.67 271.24 1202.47 276.69 1053.69 337.98 1002.75 468.01 1149.10 474.65
00002168 00000044 964.44 66.01 397.57 558.87 1024.99 270.36 1203.37 275.90 1056.45 337.36 1005.59 467.01 1150.93 473.54
00002169 00000045 965.46 67.88 396.47 554.16 1027.09 268.83 1203.80 273.53 1056.71 333.06 1006.00 464.87 1149.65 470.66
00002170 00000046 966.12 62.56 400.80 552.87 1028.86 273.07 1198.50 272.62 1050.07 328.34 1015.95 461.07 1144.82 460.99
00002171 00000047 969.71 62.17 394.54 544.76 1032.57 273.97 1199.29 272.22 1052.26 325.35 1017.67 456.99 1143.71 456.01
00002172 00000048 972.46 64.92 392.09 538.21 1035.41 274.17 1200.57 272.66 1056.40 326.60 1020.45 456.01 1145.07 455.19
00002173 00000049 970.84 64.88 396.92 546.53 1034.28 273.78 1203.17 276.17 1056.83 331.40 1019.26 460.36 1147.85 462.70
00002174 00000050 972.71 69.01 395.66 545.03 1032.55 280.45 1205.78 285.24 1059.89 343.99 1019.57 469.56 1151.89 474.11
00002175 00000051 971.38 75.05 394.26 547.00 1034.65 280.38 1207.58 280.59 1067.50 341.10 1020.97 474.09 1154.84 476.73
00002176 00000052 969.85 72.21 393.74 552.53 1031.47 281.00 1205.84 280.27 1062.92 340.59 1017.63 478.14 1151.64 480.37
00002177 00000053 968.15 71.22 394.72 557.19 1028.99 279.87 1205.05 279.97 1058.88 343.25 1014.07 481.31 1149.72 484.13
00002178 00000054 966.89 71.34 397.39 557.71 1021.68 282.69 1194.54 277.34 1047.46 353.95 1019.21 483.46 1160.19 481.22
00002179 00000055 965.49 69.28 397.08 564.67 1019.72 288.10 1193.14 283.80 1045.96 362.53 1016.52 488.27 1157.75 486.78
00002180 00000056 964.05 69.81 397.73 567.44 1018.21 291.17 1191.67 290.88 1046.02 370.63 1013.80 490.46 1155.18 492.07
00002181 00000057 959.49 68.97 400.33 569.07 1020.57 292.29 1192.61 298.66 1047.74 362.65 1012.78 488.76 1140.46 494.42
00002182 00000058 959.97 70.32 401.73 556.24 1013.56 283.56 1187.86 282.25 1038.26 355.16 1010.06 478.21 1154.93 478.95
00002183 00000059 956.97 70.99 401.97 556.16 1012.29 279.50 1187.38 279.51 1039.52 351.01 1009.03 478.03 1151.35 480.33
00002184 00000060 957.93 74.10 398.35 558.36 1013.43 283.40 1186.05 284.32 1040.40 357.94 1009.98 483.24 1149.66 486.18
00002185 00000061 958.80 76.66 398.52 563.51 1014.65 288.70 1190.34 295.09 1044.25 373.00 1006.11 487.88 1151.03 495.05
00002186 00000062 959.19 80.18 399.27 568.52 1017.72 294.78 1193.58 302.68 1049.66 384.86 1009.79 498.18 1154.83 506.29
00002187 00000063 962.09 82.13 394.92 570.69 1022.73 299.53 1197.32 311.51 1055.67 394.60 1014.13 502.06 1159.06 513.19
00002188 00000064 964.59 81.19 395.50 581.47 1028.43 297.61 1201.65 311.75 1056.99 394.72 1016.67 504.49 1160.51 516.99
00002189 00000065 967.36 79.25 390.96 580.79 1030.42 296.32 1205.06 312.49 1059.14 395.13 1017.19 503.23 1160.96 517.55
00002190 00000066 965.77 79.60 391.57 577.57 1030.09 297.17 1204.78 315.81 1059.45 395.07 1015.77 500.97 1159.97 517.43
00002191 00000067 961.94 82.85 392.20 574.16 1027.85 298.77 1200.52 316.36 1058.43 396.26 1015.04 502.04 1157.98 517.82
00002192 00000068 959.53 82.18 391.61 577.49 1022.60 300.17 1193.62 315.40 1054.31 400.97 1013.25 507.17 1153.26 521.18
00002193 00000069 955.77 86.93 392.68 574.26 1017.57 302.23 1186.68 317.26 1049.85 407.74 1009.68 510.50 1149.17 524.36
00002194 00000070 950.90 90.22 391.96 576.53 1016.01 306.95 1181.14 322.97 1048.38 415.18 1007.12 515.01 1145.25 529.72
00002195 00000071 947.05 95.18 390.73 578.63 1014.48 315.05 1175.85 330.03 1045.92 423.05 1007.27 521.99 1144.30 535.95
00002196 00000072 944.82 100.09 390.37 581.21 1011.82 323.25 1172.43 334.38 1044.18 433.65 1010.30 531.58 1146.84 541.93
00002197 00000073 948.02 104.89 391.59 579.85 1011.06 331.27 1171.26 339.19 1045.61 446.44 1017.03 541.07 1151.59 548.50
00002198 00000074 953.56 101.81 394.55 587.74 1006.65 332.22 1182.29 337.98 1055.83 455.18 1024.14 549.55 1157.84 554.82
00002199 00000075 961.78 101.50 391.25 593.57 1014.91 335.82 1186.08 339.71 1061.91 457.49 1034.20 552.04 1166.04 555.64
00002200 00000076 968.70 101.71 396.07 597.28 1025.56 336.49 1198.88 338.33 1065.18 448.72 1039.07 550.72 1173.35 552.44
00002201 00000077 972.08 87.78 399.29 604.40 1026.92 325.35 1205.29 327.98 1066.85 433.69 1038.35 543.85 1171.79 546.64
00002202 DELETE   975.78 77.31 397.32 602.79 1031.41 312.41 1215.42 320.92 1075.21 424.35 1037.99 534.11 1172.19 541.87
00002203 00000079 973.44 84.15 403.29 588.45 1038.37 305.18 1221.99 317.77 1074.25 410.08 1039.83 529.97 1173.35 541.37
00002204 00000080 972.83 79.56 402.19 588.49 1039.42 298.24 1222.39 315.50 1073.72 400.96 1031.05 520.39 1164.39 536.56
00002205 00000081 975.77 70.35 389.50 592.77 1041.56 296.87 1212.73 316.46 1073.57 403.91 1021.77 512.27 1150.41 530.81
00002206 00000082 961.15 73.08 400.58 584.46 1033.95 285.18 1214.61 319.65 1066.22 391.47 1011.61 498.23 1143.79 527.44
00002207 00000083 961.86 62.33 397.00 588.97 1030.35 284.96 1202.25 314.16 1052.29 390.46 1004.91 493.91 1140.07 519.35
00002208 00000084 954.55 69.65 397.69 585.72 1024.06 285.84 1191.45 314.64 1045.03 388.64 1000.91 495.37 1130.99 521.10
00002209 00000085 944.72 76.29 391.94 579.22 1012.23 283.04 1178.29 312.54 1035.75 387.13 989.55 494.21 1116.63 520.88
00002210 00000086 936.46 80.95 386.67 578.98 1002.12 283.45 1162.12 308.65 1023.74 386.74 985.01 496.48 1109.67 519.09
00002211 00000087 926.64 81.49 386.46 577.00 988.98 288.53 1149.59 305.24 1013.16 385.45 975.97 501.65 1102.03 517.01
00002212 00000088 910.04 77.86 399.11 580.82 974.80 296.46 1140.00 307.02 1000.79 384.90 968.44 501.77 1093.99 511.93
00002213 00000089 905.65 78.72 400.89 581.05 967.35 300.96 1129.31 308.50 989.25 389.68 963.51 504.51 1087.82 511.89
00002214 00000090 905.79 79.27 398.81 581.38 963.74 304.08 1122.18 309.87 982.40 394.41 962.22 507.58 1083.83 513.43
00002215 00000091 906.89 78.95 399.65 583.93 960.46 308.56 1117.70 312.18 977.26 399.83 961.82 511.74 1081.79 515.67
00002216 00000092 911.45 77.82 399.74 590.54 960.10 311.10 1116.35 316.89 972.40 403.19 961.85 515.76 1079.63 521.36
00002217 00000093 914.52 76.19 399.29 596.80 963.44 310.98 1117.07 320.81 973.01 406.44 963.76 518.42 1079.69 527.41
00002218 00000094 918.85 74.33 397.51 606.27 968.74 309.82 1122.03 325.65 979.79 414.28 964.79 522.62 1082.02 536.86
00002219 00000095 928.80 76.48 394.83 609.85 976.37 309.39 1129.39 329.31 984.65 418.99 966.82 527.07 1086.77 545.10
00002220 00000096 939.26 80.17 390.33 610.16 988.27 307.52 1139.56 334.25 993.18 422.11 973.49 527.73 1093.57 551.71
00002221 00000097 944.53 82.84 396.13 611.02 999.68 304.95 1153.99 336.87 1004.82 423.55 981.27 526.71 1104.01 554.78
00002222 00000098 944.86 79.63 403.37 612.74 1007.07 301.62 1165.99 337.84 1013.40 424.06 985.84 523.44 1111.80 554.75
00002223 00000099 945.42 81.37 405.96 606.52 1013.44 300.09 1175.43 339.67 1021.97 425.31 990.13 520.35 1116.41 554.29
00002224 00000100 945.45 80.39 407.85 604.62 1017.51 299.16 1181.69 341.44 1028.39 425.66 991.13 515.52 1120.77 551.63
00002225 00000101 942.48 80.97 412.60 596.98 1021.69 298.06 1185.39 339.01 1030.27 420.51 991.50 510.68 1124.18 544.85
00002226 00000102 944.91 81.30 411.69 595.46 1022.52 303.93 1189.56 340.87 1040.63 424.30 998.15 513.79 1135.13 544.85
00002227 00000103 949.39 83.65 408.44 592.45 1024.61 307.72 1191.39 339.17 1046.82 427.50 1006.40 517.64 1143.00 544.00
00002228 00000104 956.34 80.79 402.23 599.19 1023.50 308.44 1194.66 334.50 1057.01 435.84 1012.96 525.82 1143.10 548.41
00002229 00000105 959.90 78.72 401.47 600.40 1024.58 309.64 1197.00 330.57 1061.16 431.73 1017.27 527.12 1149.72 545.28
00002230 00000106 962.34 75.29 403.69 602.55 1025.90 308.82 1199.30 323.27 1064.20 422.70 1022.03 525.16 1153.23 538.05
00002231 00000107 965.03 70.05 402.41 601.16 1029.18 304.57 1201.63 320.40 1065.99 418.73 1022.55 517.87 1155.29 532.28
00002232 00000108 964.86 69.11 401.53 593.16 1030.84 298.72 1200.27 316.38 1063.33 409.81 1020.58 509.29 1154.22 525.27
00002233 00000109 962.03 66.98 405.21 590.23 1028.80 292.93 1198.03 310.42 1061.26 399.88 1016.86 503.96 1148.58 520.24
00002234 00000110 961.13 59.33 404.04 585.11 1021.49 281.58 1198.64 302.02 1050.11 383.04 1007.76 487.38 1151.04 505.35
00002235 00000111 951.04 57.60 411.97 581.75 1024.72 272.77 1199.26 302.54 1051.42 362.52 1001.55 474.84 1134.01 499.55
00002236 00000112 952.94 51.03 406.63 569.13 1016.97 259.29 1193.17 284.16 1038.20 348.86 992.11 464.18 1134.02 486.02
00002237 00000113 948.34 50.54 409.61 545.37 1028.85 242.70 1192.98 270.87 1038.91 319.63 993.83 436.85 1126.86 462.43
00002238 00000114 948.50 52.08 407.07 529.34 1025.76 230.72 1192.98 258.36 1035.90 294.40 982.13 423.16 1120.15 447.68
00002239 00000115 948.63 52.98 404.83 524.28 1023.89 226.77 1188.26 251.18 1032.86 291.03 980.31 418.07 1116.80 440.33
00002240 00000116 946.76 57.59 405.11 521.76 1019.13 229.09 1184.29 248.99 1030.68 293.19 982.89 421.93 1119.69 440.45
00002241 00000117 943.67 53.45 404.71 524.61 1017.78 240.35 1176.49 258.69 1035.55 301.89 986.16 427.80 1112.46 444.71
00002242 00000118 945.09 53.30 399.63 531.56 1016.00 244.19 1174.68 264.32 1032.28 314.20 987.52 436.16 1113.18 454.14
00002243 00000119 944.38 51.73 400.33 544.54 1012.04 249.85 1174.61 270.74 1028.81 323.19 986.46 444.79 1114.22 463.20
00002244 00000120 944.32 51.00 397.88 547.25 1012.05 249.58 1173.64 269.94 1027.10 321.89 986.16 445.48 1115.40 463.52
00002245 00000121 943.34 56.93 401.18 533.37 1011.88 246.84 1175.90 267.15 1027.28 318.27 983.29 438.58 1120.28 457.36
00002246 00000122 945.56 55.24 399.46 531.15 1012.50 243.99 1177.00 262.97 1029.92 313.05 986.13 434.84 1124.38 452.60
00002247 00000123 947.03 53.07 400.52 538.69 1014.32 248.59 1179.13 266.03 1031.75 318.83 990.63 439.81 1127.77 456.66
00002248 00000124 948.16 51.85 399.93 549.47 1015.25 256.39 1177.60 271.35 1034.43 329.07 997.36 448.35 1128.99 463.35
00002249 00000125 951.00 55.95 399.55 557.23 1009.63 266.90 1177.98 272.84 1033.86 343.99 998.58 464.34 1133.19 471.07
00002250 00000126 951.32 57.52 400.05 561.70 1007.83 269.41 1178.17 275.48 1034.26 348.38 998.83 470.31 1134.13 477.74
00002251 00000127 950.55 58.30 398.73 564.97 1007.05 268.66 1177.47 274.19 1033.75 346.97 998.86 471.75 1134.45 478.86
00002252 00000128 949.79 53.56 400.10 567.10 1006.44 267.11 1177.16 270.98 1033.45 344.01 999.29 470.75 1133.60 476.14
00002253 00000129 949.14 50.64 400.71 568.86 1006.27 263.53 1178.09 270.94 1033.42 344.24 995.69 465.22 1133.82 472.96
00002254 00000130 948.78 51.00 402.34 569.77 1005.08 266.15 1178.87 272.15 1033.27 345.02 995.55 467.15 1136.66 473.65
00002255 00000131 949.45 55.84 402.22 567.66 1006.62 268.72 1178.49 273.21 1034.38 348.06 1000.42 471.24 1135.50 477.10
00002256 00000132 950.87 60.26 399.52 569.46 1007.86 272.09 1178.18 275.94 1036.18 351.32 1004.14 476.24 1138.17 481.94
00002257 00000133 952.59 62.61 398.15 573.13 1008.60 273.05 1177.40 279.53 1035.37 355.83 1003.62 478.26 1139.41 485.95
00002258 00000134 952.22 64.84 398.28 571.99 1008.61 274.20 1176.29 282.49 1034.54 358.57 1002.59 479.38 1138.17 488.54
00002259 00000135 951.75 62.92 398.48 573.36 1007.57 274.75 1177.21 286.37 1033.13 362.84 1000.41 479.80 1137.57 491.69
00002260 00000136 950.57 63.05 396.41 568.66 1006.77 274.78 1175.91 292.13 1031.90 367.54 995.61 476.04 1135.09 492.43
00002261 00000137 948.87 65.24 398.22 567.52 1005.90 275.32 1174.64 292.02 1031.77 366.98 994.77 476.71 1133.19 492.41
00002262 00000138 949.73 65.99 394.03 566.67 1005.73 275.55 1171.19 292.54 1030.39 367.87 995.03 477.21 1127.95 493.35
00002263 00000139 948.10 68.64 396.25 564.71 1004.23 275.70 1169.77 293.93 1027.96 368.91 991.45 477.22 1123.92 494.09
00002264 00000140 947.25 67.95 394.82 565.31 1002.41 275.24 1167.50 294.11 1026.12 369.93 987.75 477.15 1119.56 494.22
00002265 00000141 944.16 70.17 396.37 566.01 1000.96 276.53 1166.76 294.50 1024.87 369.48 984.68 479.40 1116.40 495.68
00002266 00000142 943.26 70.12 393.12 569.43 998.37 276.25 1162.57 293.06 1022.79 370.25 983.78 481.82 1113.86 497.12
00002267 00000143 940.53 70.82 390.14 574.36 995.09 276.97 1158.29 291.66 1020.85 369.72 983.68 485.28 1112.26 499.11
00002268 00000144 938.87 72.51 388.80 578.96 992.63 277.13 1154.42 289.84 1017.79 370.79 983.50 488.61 1111.61 501.15
00002269 00000145 937.66 74.82 390.75 578.73 991.67 278.54 1154.26 290.53 1018.03 372.99 982.96 491.24 1112.25 503.18
00002270 00000146 937.84 75.18 390.61 577.89 991.59 280.33 1154.38 291.90 1018.27 374.86 982.79 493.41 1111.31 504.93
00002271 00000147 936.81 75.44 390.15 575.22 991.07 281.27 1152.41 291.82 1019.26 374.46 984.15 493.65 1109.76 504.31
00002272 00000148 937.70 75.16 389.21 568.96 989.73 283.98 1152.53 292.97 1017.99 375.06 983.89 491.95 1112.15 501.08
00002273 00000149 937.87 75.92 388.30 565.88 987.87 285.98 1150.56 293.94 1016.42 377.64 985.32 491.41 1115.11 499.18
00002274 00000150 935.11 82.55 389.96 567.40 986.26 290.64 1145.24 293.23 1015.48 379.12 987.97 500.45 1113.31 503.98
00002275 00000151 929.16 81.96 389.99 580.67 980.00 295.58 1135.58 289.33 1008.81 378.46 989.61 512.96 1106.46 509.52
00002276 00000152 921.80 84.35 399.55 577.23 971.91 302.93 1130.13 288.90 1002.76 385.66 987.40 516.43 1109.18 505.99
00002277 DELETE   908.89 81.92 410.54 579.46 957.29 327.53 1117.61 294.88 996.85 394.18 987.65 524.57 1108.97 498.73
00002278 00000154 905.16 93.59 412.07 577.17 953.28 340.91 1102.25 303.32 987.89 406.03 999.01 537.30 1106.23 506.64
00002279 DELETE   903.75 97.80 410.87 575.27 953.69 343.91 1098.94 305.43 992.44 412.45 1010.20 542.51 1108.57 510.62
00002280 DELETE   909.52 98.01 407.90 579.52 958.33 344.16 1102.66 305.14 996.28 414.09 1013.58 548.30 1113.11 516.14
00002281 00000157 914.70 98.67 409.06 577.57 960.27 345.26 1108.32 307.90 998.59 418.70 1012.11 550.44 1114.51 520.15
00002282 00000158 915.53 101.62 409.51 572.27 961.86 348.36 1112.86 312.81 1002.58 421.78 1010.44 549.70 1113.97 521.10
00002283 00000159 914.79 104.33 409.28 568.44 961.16 350.47 1111.78 317.77 1000.93 428.91 1009.16 549.45 1115.45 523.18
00002284 00000160 915.48 108.21 409.18 564.74 961.16 352.04 1111.25 321.57 1001.21 434.07 1009.84 550.22 1117.23 525.68
00002285 00000161 915.98 109.61 408.32 564.20 961.27 354.27 1111.21 324.87 1001.61 437.97 1011.67 551.47 1119.83 527.66
00002286 00000162 916.34 108.72 408.42 566.78 961.31 353.77 1112.22 324.86 1002.34 438.89 1012.89 552.17 1119.76 528.74
00002287 00000163 917.79 106.51 405.94 569.22 963.41 349.79 1113.74 322.30 1003.29 436.81 1012.74 552.00 1118.93 529.84
00002288 00000164 918.82 103.02 404.60 569.31 962.53 345.47 1114.68 319.92 1002.20 434.18 1004.87 548.64 1114.62 528.24
00002289 00000165 917.12 98.70 403.94 572.56 960.87 341.19 1113.27 314.76 997.30 423.33 996.55 543.72 1105.46 522.81
