Video ID: 	VWPW3xx7Nfs
H: 	1080
W: 	1920
FPS: 	25.0

FRAME INDEX X0 Y0 W H [Landmarks (5 Points)]

00034110 00000000 626.93 198.64 384.87 542.85 766.30 439.73 950.22 435.08 884.49 544.25 778.96 617.88 936.47 614.76
00034111 00000001 624.25 194.83 386.88 551.28 764.78 436.35 948.01 433.17 883.39 540.30 782.69 623.01 933.10 620.68
00034112 00000002 622.46 194.86 387.18 561.60 764.66 436.10 945.35 435.97 881.58 540.05 782.69 626.40 928.51 626.78
00034113 00000003 622.55 196.71 386.43 557.50 764.83 437.81 946.52 436.31 882.35 542.05 784.07 627.74 930.50 626.87
00034114 00000004 624.21 198.88 384.80 546.38 765.95 438.47 947.67 435.24 882.87 544.07 784.33 623.86 930.30 621.57
00034115 00000005 626.74 200.32 383.89 542.50 767.13 439.66 947.63 435.29 882.95 545.79 784.78 621.74 931.04 618.43
00034116 00000006 628.48 201.84 383.34 541.73 767.86 442.80 948.06 438.17 883.67 547.05 784.47 621.57 934.43 617.96
00034117 00000007 629.05 202.60 381.68 543.89 768.63 452.46 948.37 448.14 882.42 549.39 781.50 622.31 934.69 618.72
00034118 00000008 632.03 202.88 380.99 546.97 771.73 458.43 949.86 453.29 884.81 552.42 783.29 624.02 938.03 619.62
00034119 00000009 634.84 203.59 379.77 547.25 774.78 462.51 952.35 456.51 888.49 551.91 789.13 628.40 940.46 623.02
00034120 00000010 639.55 204.75 377.69 545.35 778.15 466.66 953.98 458.15 891.22 552.85 795.61 631.63 942.82 624.33
00034121 00000011 644.27 208.41 374.46 543.09 781.80 471.15 954.69 460.35 894.20 554.71 803.27 636.52 944.83 627.41
00034122 00000012 647.11 212.33 372.13 540.50 785.11 474.31 953.98 462.62 896.64 555.25 809.76 640.35 945.19 630.62
00034123 00000013 654.81 210.87 369.11 543.91 787.87 466.49 955.89 458.93 905.50 552.42 812.01 638.46 948.98 633.85
00034124 00000014 657.89 215.28 366.99 538.41 790.84 469.68 958.56 459.95 908.22 554.47 817.09 640.98 951.95 634.30
00034125 00000015 659.68 216.78 367.99 536.75 792.39 473.66 961.90 461.63 910.47 556.17 819.24 642.93 956.29 633.97
00034126 DELETE   659.69 217.95 369.46 539.64 792.73 476.02 963.64 464.59 911.66 558.68 819.12 645.51 958.65 636.93
00034127 00000017 659.28 218.57 371.10 548.16 790.42 477.03 963.46 468.17 910.96 562.14 813.34 650.39 958.39 644.06
00034128 DELETE   657.74 219.83 372.83 552.91 790.34 477.26 964.94 471.29 912.70 562.06 810.58 652.61 958.74 648.69
00034129 00000019 659.08 218.86 371.73 546.63 789.16 477.21 968.35 468.92 913.52 562.85 809.28 648.84 965.57 643.40
00034130 00000020 660.63 217.98 371.43 541.84 789.72 474.93 969.69 465.81 913.46 560.31 811.13 645.65 967.49 639.70
00034131 00000021 662.10 216.89 369.88 542.67 789.32 474.33 969.17 464.00 912.93 559.42 812.33 646.28 967.69 639.29
00034132 00000022 662.29 217.02 370.19 543.24 788.96 474.43 969.36 464.31 913.00 558.73 812.62 647.19 967.94 640.21
00034133 00000023 662.92 216.87 370.33 543.19 789.33 474.07 970.26 463.38 913.76 558.24 813.46 646.98 969.06 639.43
00034134 00000024 663.03 216.06 370.44 544.09 789.80 474.14 969.79 463.61 913.74 557.77 813.92 646.90 968.44 639.49
00034135 00000025 665.41 215.91 369.24 542.86 791.55 474.51 972.52 463.82 914.92 557.87 815.43 646.52 970.58 638.92
00034136 00000026 667.36 214.90 368.35 541.67 792.68 472.73 974.31 461.62 916.42 556.20 817.24 645.32 972.29 637.29
00034137 00000027 667.69 214.60 368.68 540.66 793.17 472.20 974.43 460.99 916.57 556.20 818.12 644.23 973.29 635.89
00034138 00000028 667.94 215.14 369.06 542.22 792.29 471.85 973.61 461.46 915.63 555.66 818.42 646.12 972.52 638.27
00034139 DELETE   666.92 216.15 371.13 548.97 792.97 471.44 972.13 463.13 916.08 554.63 817.61 648.61 968.93 642.27
00034140 00000030 668.24 214.56 370.57 550.64 795.37 468.67 973.30 462.59 918.79 553.44 818.26 646.82 968.66 642.51
00034141 DELETE   669.08 213.34 369.12 548.05 795.54 468.09 974.38 461.69 919.06 552.08 818.60 645.06 969.73 640.71
00034142 00000032 670.47 213.95 367.81 542.25 795.76 468.68 974.99 461.46 917.64 550.75 820.48 643.27 970.47 638.29
00034143 DELETE   667.41 215.35 372.63 544.81 797.82 477.08 973.46 460.92 915.42 554.35 824.88 648.98 968.99 635.10
00034144 00000034 667.76 213.83 371.53 542.31 798.30 473.22 972.67 458.82 914.89 549.73 824.16 643.60 967.03 631.28
00034145 DELETE   665.27 208.66 373.34 542.04 797.52 469.81 969.83 453.31 913.85 546.25 826.54 639.26 966.38 625.17
00034146 00000036 663.70 206.07 373.91 541.76 798.51 465.07 968.97 449.27 916.01 539.65 828.27 636.06 965.67 622.47
00034147 00000037 659.59 197.48 376.64 550.52 795.30 453.97 965.83 441.26 912.82 531.10 826.40 631.57 963.11 620.32
00034148 DELETE   659.53 189.54 375.82 544.74 789.18 441.92 969.41 434.55 905.71 521.74 817.12 617.16 965.99 610.53
00034149 DELETE   659.87 183.66 376.89 537.19 785.72 433.08 972.73 426.96 905.02 513.00 812.80 606.45 972.13 601.29
00034150 DELETE   662.22 180.19 378.19 528.49 785.24 428.32 974.37 423.63 903.79 506.67 811.64 598.47 974.36 594.41
00034151 00000041 662.83 177.77 376.71 527.15 782.77 424.44 969.49 417.41 900.27 500.58 815.07 599.31 970.69 592.97
00034152 00000042 661.72 176.88 376.14 529.76 780.32 422.19 965.70 415.14 898.35 495.05 817.06 601.38 967.95 595.02
00034153 00000043 660.04 174.86 377.79 534.52 778.39 419.59 964.87 411.95 898.07 491.42 816.87 601.79 968.58 594.92
00034154 00000044 656.92 173.68 379.47 539.71 776.59 417.96 963.39 408.77 898.06 489.04 816.50 602.11 969.05 593.97
00034155 00000045 654.19 174.81 379.12 539.56 774.24 417.52 960.01 406.43 896.47 487.82 813.13 600.25 966.77 590.59
00034156 00000046 651.33 175.14 379.00 535.21 771.55 416.68 957.24 404.99 893.35 488.77 807.87 596.06 964.09 586.13
00034157 00000047 649.06 176.40 379.38 527.34 768.80 417.76 956.00 404.41 891.92 491.36 805.28 594.96 963.38 583.92
00034158 00000048 648.97 176.21 378.89 526.54 766.61 419.66 956.41 404.58 890.78 495.00 802.88 596.63 964.44 584.43
00034159 00000049 647.27 178.16 378.23 525.76 764.47 421.07 955.07 406.16 889.55 496.95 803.51 600.33 963.62 588.27
00034160 00000050 645.88 183.51 377.08 534.11 765.15 424.68 954.73 410.16 889.99 502.94 804.54 608.80 960.79 596.53
00034161 00000051 645.34 185.54 376.97 541.24 765.23 429.76 953.03 413.10 889.69 509.60 804.58 614.02 961.41 599.78
00034162 00000052 645.76 186.08 376.36 539.78 765.84 432.30 953.67 413.56 890.65 512.62 804.89 613.87 962.79 597.83
00034163 00000053 646.66 186.66 375.59 536.21 766.58 433.90 951.85 413.04 889.59 513.71 807.47 613.88 961.30 596.08
00034164 00000054 647.32 187.32 372.64 534.80 767.35 435.41 947.93 412.86 887.84 513.89 812.06 614.86 958.26 595.51
00034165 00000055 647.18 187.30 371.41 537.41 769.06 435.37 944.67 412.42 888.20 514.43 817.21 616.15 956.79 596.59
00034166 00000056 647.56 187.40 371.10 532.85 770.17 433.82 943.08 410.77 888.06 512.79 820.48 614.19 955.34 594.64
00034167 00000057 647.53 187.58 372.68 523.80 768.90 431.72 944.99 407.69 888.16 508.89 818.44 608.27 958.13 587.85
00034168 00000058 645.46 187.62 376.75 517.95 766.46 430.03 949.55 405.37 889.91 508.29 810.58 604.05 961.65 583.90
00034169 00000059 645.63 187.44 375.45 516.68 765.78 430.45 948.14 404.63 888.73 507.61 808.12 602.10 960.75 581.14
00034170 00000060 645.57 187.61 374.35 527.60 765.16 431.85 947.08 406.99 889.30 509.96 810.39 609.65 960.48 588.79
00034171 00000061 643.67 186.35 374.90 542.83 766.36 435.33 942.57 410.79 888.42 513.36 816.67 619.33 957.72 598.36
00034172 00000062 645.85 188.10 370.10 542.73 767.93 438.97 939.92 411.64 888.83 517.64 823.16 623.69 957.17 600.58
00034173 00000063 646.28 188.40 369.87 544.12 770.48 440.30 940.72 412.13 891.59 520.55 826.09 626.49 956.81 602.69
00034174 00000064 645.65 188.96 370.75 548.08 772.04 443.10 942.38 414.39 894.30 523.67 826.92 629.57 958.38 605.24
00034175 00000065 643.97 188.47 373.96 556.62 772.82 446.78 942.71 418.00 895.26 528.57 825.36 633.84 958.72 609.30
00034176 00000066 643.46 192.47 375.64 565.53 771.15 451.03 943.81 424.17 895.22 531.63 820.56 639.01 961.62 615.81
00034177 00000067 646.91 196.30 376.78 569.91 770.02 446.75 942.49 419.75 899.25 520.79 818.62 638.94 959.61 614.79
00034178 00000068 647.42 197.06 376.25 568.16 770.41 446.95 944.58 420.15 901.03 523.55 816.55 638.00 961.00 614.32
00034179 00000069 647.25 197.46 375.48 563.76 770.42 446.80 944.95 420.51 901.66 524.14 815.68 636.84 960.44 613.98
00034180 00000070 644.42 196.14 376.99 557.10 772.77 452.38 948.32 426.72 897.59 534.47 817.54 635.64 963.34 613.53
00034181 00000071 644.70 194.50 377.43 554.00 772.94 452.38 948.21 426.77 896.70 533.28 820.12 634.74 963.61 612.60
00034182 00000072 646.00 194.38 376.88 552.11 774.31 452.53 948.85 426.48 897.57 533.05 821.98 634.39 963.97 611.95
00034183 00000073 646.69 194.24 377.13 549.85 774.82 453.21 950.28 426.81 897.79 534.82 820.87 633.13 963.86 610.50
00034184 00000074 648.82 196.44 376.16 544.81 775.66 453.29 955.25 427.94 900.50 535.59 819.67 631.63 967.51 609.90
00034185 00000075 651.41 198.47 374.80 540.73 777.25 456.31 957.72 430.11 902.41 537.33 819.60 631.51 969.19 609.05
00034186 00000076 653.93 199.66 373.86 541.80 779.67 460.08 958.42 432.49 904.48 540.26 822.15 635.14 969.35 611.62
00034187 00000077 655.09 200.79 373.02 549.28 782.33 463.18 959.07 435.68 907.25 544.96 824.89 640.55 970.41 616.72
00034188 00000078 656.87 203.25 371.24 550.23 783.69 465.41 959.83 437.13 908.22 548.62 824.63 643.49 969.94 619.12
00034189 00000079 657.68 203.47 370.83 547.93 783.63 465.74 960.77 438.06 908.09 547.44 824.02 641.93 970.77 618.00
00034190 00000080 657.13 206.03 371.90 547.27 783.44 466.30 961.81 439.31 909.09 547.42 822.82 642.30 971.97 619.00
00034191 00000081 660.36 206.55 370.01 547.80 781.35 458.66 957.30 432.62 910.79 537.37 822.95 640.88 969.97 618.99
00034192 00000082 661.26 206.29 368.77 548.72 781.07 460.15 956.15 434.32 910.30 539.52 825.48 644.90 969.27 622.94
00034193 00000083 662.01 207.73 368.38 546.21 781.21 462.82 956.79 436.44 909.68 542.01 825.37 645.24 969.84 622.82
00034194 00000084 661.87 209.57 369.37 543.88 782.05 465.74 958.37 438.47 910.64 545.95 824.00 643.87 972.53 621.03
00034195 00000085 661.88 210.67 370.17 542.07 781.92 467.44 958.80 439.67 910.57 547.89 824.51 644.87 973.65 621.54
00034196 00000086 664.09 211.56 368.78 543.22 781.61 469.02 959.33 441.07 910.34 550.48 825.05 648.63 974.27 625.14
00034197 00000087 662.77 212.34 371.46 553.57 780.47 469.64 959.12 443.41 910.03 551.73 826.07 656.97 973.30 634.05
00034198 00000088 662.33 212.37 372.97 555.90 779.70 472.13 960.88 446.39 910.07 556.08 823.60 658.24 975.25 635.91
00034199 00000089 663.78 212.96 373.79 549.99 781.68 474.09 965.81 447.52 911.54 559.31 823.84 656.04 979.39 633.37
00034200 00000090 664.27 215.39 373.86 544.26 782.46 476.48 965.90 449.09 910.58 560.43 825.03 656.11 978.51 632.82
00034201 00000091 665.42 216.68 374.45 544.25 784.00 478.36 968.20 451.79 911.45 561.67 827.88 659.21 979.67 636.16
00034202 00000092 666.99 217.53 374.72 544.46 785.85 480.35 971.34 454.48 913.52 563.52 828.13 660.80 981.97 638.51
00034203 00000093 668.15 218.19 375.13 542.94 786.78 481.42 973.40 455.56 914.30 564.26 828.64 661.40 983.47 639.30
00034204 00000094 669.34 218.13 375.25 543.20 788.53 483.19 975.50 457.04 916.13 565.54 828.73 661.00 985.60 638.95
00034205 00000095 670.07 219.71 375.57 541.99 789.83 483.61 977.13 457.44 917.95 565.91 829.44 660.84 987.40 638.85
00034206 00000096 671.72 219.03 375.56 541.97 790.36 482.99 978.15 457.28 918.24 565.82 829.73 660.22 988.58 638.68
00034207 00000097 673.29 219.47 374.49 540.75 791.76 482.80 979.41 457.55 919.93 565.77 830.20 659.74 989.41 638.81
00034208 00000098 674.84 219.82 373.83 540.58 793.51 482.30 980.56 457.52 921.34 565.48 831.33 659.55 990.08 639.19
00034209 00000099 674.37 219.25 375.14 547.60 794.07 481.87 982.24 458.28 923.62 565.53 832.32 662.74 991.44 643.00
00034210 00000100 673.77 218.79 375.48 549.92 794.82 481.32 983.19 458.77 924.94 566.22 831.88 663.92 990.49 645.02
00034211 00000101 674.37 219.34 374.03 545.67 794.50 481.37 983.71 459.11 924.16 567.23 830.29 662.69 989.85 644.26
00034212 00000102 674.48 220.30 373.02 541.55 793.41 482.54 981.54 459.55 921.11 567.09 830.08 661.55 988.65 642.55
00034213 00000103 674.08 219.94 373.53 540.83 792.04 482.68 980.82 459.20 919.32 567.09 829.67 661.23 988.73 641.74
00034214 00000104 674.05 220.03 373.00 539.25 791.38 482.81 979.08 458.40 918.49 565.92 830.28 660.41 988.12 640.20
00034215 00000105 671.60 219.24 373.68 540.84 789.62 482.69 976.44 457.18 916.83 564.65 829.83 660.29 986.21 638.94
00034216 00000106 669.74 218.58 374.66 541.78 787.82 482.48 974.05 456.14 915.10 563.55 829.10 660.59 984.49 638.41
00034217 00000107 668.32 218.02 374.78 541.02 785.93 480.29 971.39 452.34 913.89 560.36 829.80 659.50 983.23 635.71
00034218 00000108 667.09 215.85 373.41 541.49 783.94 477.18 966.70 448.30 912.30 558.69 828.88 657.36 979.81 632.73
00034219 00000109 665.08 215.16 371.82 542.25 781.69 475.27 962.89 445.16 911.14 557.39 827.32 656.17 977.10 630.71
00034220 00000110 663.39 213.39 370.75 546.13 779.13 472.33 958.02 441.83 908.11 553.40 827.99 656.13 974.82 629.87
00034221 00000111 658.87 212.37 372.17 557.10 775.45 468.42 951.15 439.65 904.87 548.31 827.63 659.65 969.31 634.06
00034222 00000112 656.41 210.12 370.89 563.60 773.84 466.27 945.70 436.56 904.19 545.34 826.57 659.42 965.52 633.64
00034223 00000113 652.62 207.47 372.66 567.83 774.77 470.46 941.91 444.25 899.97 543.30 825.09 657.60 958.53 635.12
00034224 00000114 651.03 203.94 373.23 572.47 773.89 466.25 938.08 437.97 898.52 537.46 828.61 655.38 957.41 630.73
00034225 DELETE   649.18 200.03 373.94 576.01 771.57 462.14 935.57 430.30 897.06 532.43 828.55 653.79 957.52 625.95
00034226 00000116 649.00 196.58 372.89 578.00 771.66 452.76 934.95 421.18 898.24 524.66 830.67 651.24 956.81 623.66
00034227 00000117 649.53 195.38 370.58 576.57 772.36 448.30 933.65 416.27 897.84 518.85 832.82 648.10 956.22 620.24
00034228 00000118 649.39 193.53 369.81 573.29 771.75 446.85 931.63 411.89 895.26 515.01 833.22 644.99 954.20 614.71
00034229 00000119 643.19 185.53 368.43 568.77 767.13 453.81 928.21 415.74 888.07 527.65 829.31 643.33 955.81 611.23
CROP_BBOX: 414 0 1257 896
