Video ID: 	ALY0Q93zWWI
H: 	1080
W: 	1920
FPS: 	23.976023976023978

FRAME INDEX X0 Y0 W H [Landmarks (5 Points)]

00025012 00000000 537.88 118.16 352.09 566.25 693.56 402.29 831.11 363.35 824.60 473.35 749.30 569.26 860.32 538.07
00025013 00000001 530.15 121.02 355.88 568.36 697.73 419.89 830.46 363.82 827.89 488.34 734.65 591.42 848.44 545.05
00025014 00000002 525.82 118.68 356.83 564.86 689.43 424.69 826.49 363.55 819.87 487.29 729.84 592.33 844.39 541.93
00025015 00000003 522.78 120.61 351.54 562.97 679.58 423.49 817.38 365.70 807.97 486.25 719.46 589.44 837.07 541.48
00025016 00000004 518.15 129.29 344.53 551.28 666.36 418.73 805.31 367.24 790.19 486.87 707.28 583.61 824.59 540.79
00025017 00000005 508.43 130.21 345.17 554.72 652.11 411.90 796.08 372.08 772.11 489.30 692.46 579.35 813.02 545.91
00025018 00000006 501.33 134.62 352.54 546.84 639.54 406.54 790.31 373.73 756.82 486.67 680.26 574.26 801.92 547.08
00025019 00000007 501.61 133.22 353.82 539.14 635.26 400.08 789.30 370.53 748.40 486.07 679.89 571.17 800.51 546.15
00025020 00000008 504.20 129.72 352.54 539.10 635.33 398.37 789.76 367.76 748.22 482.50 681.90 569.43 801.56 543.58
00025021 00000009 505.58 123.41 351.48 542.10 641.45 398.38 790.52 366.35 754.79 475.55 685.21 566.08 802.27 539.47
00025022 00000010 509.27 120.99 351.90 540.49 649.94 396.06 796.34 359.01 766.91 469.63 694.66 564.40 810.06 533.87
00025023 00000011 516.15 115.95 352.40 540.66 663.73 390.04 808.69 351.70 785.93 457.96 710.78 561.92 826.79 530.56
00025024 00000012 518.62 107.39 356.76 546.22 676.39 382.59 817.44 340.82 801.27 447.39 725.33 558.26 835.73 524.20
00025025 00000013 520.81 101.85 359.20 550.27 683.97 376.17 826.32 333.04 813.16 442.51 734.74 554.16 845.79 518.83
00025026 00000014 522.66 95.93 361.33 551.68 691.95 369.44 836.41 325.28 829.92 435.74 745.23 549.68 859.40 513.11
00025027 00000015 526.03 96.06 359.98 549.90 693.33 368.47 837.35 323.54 831.94 432.71 745.92 546.61 861.22 509.65
00025028 00000016 522.17 99.07 364.45 553.01 689.23 368.17 833.41 326.15 825.46 432.77 740.79 548.38 856.64 513.84
00025029 00000017 520.24 100.05 361.72 557.68 683.82 370.64 828.27 332.20 815.65 436.19 730.01 550.10 847.81 518.69
00025030 00000018 517.86 106.59 362.89 546.59 675.56 374.35 821.46 333.95 805.40 441.09 722.85 549.19 842.01 516.04
00025031 00000019 520.36 117.87 354.24 534.85 665.70 376.88 812.50 340.54 790.09 448.57 710.82 547.53 832.43 517.74
00025032 DELETE   516.78 119.30 354.10 534.96 652.98 379.32 800.39 346.30 771.15 453.65 698.35 549.42 819.06 522.29
00025033 00000021 513.69 123.39 354.25 535.32 645.70 379.94 796.29 349.42 763.16 454.63 690.83 551.12 813.13 525.83
00025034 00000022 512.38 122.45 351.63 538.12 645.09 386.10 793.32 352.40 761.72 460.65 690.85 555.64 810.99 527.88
00025035 00000023 511.72 124.64 351.05 540.77 649.58 393.16 799.24 354.13 771.04 465.47 694.15 562.19 816.14 530.19
00025036 00000024 513.61 124.70 354.77 549.21 660.38 406.38 804.37 358.85 786.70 471.62 707.49 575.02 827.36 535.55
00025037 DELETE   520.43 125.13 358.27 567.61 685.84 422.20 817.75 363.04 814.50 479.70 722.36 588.83 837.93 540.10
00025038 DELETE   537.48 121.63 354.40 568.46 690.21 407.42 825.65 365.97 821.05 476.65 747.73 570.84 858.72 537.56
00025039 DELETE   535.39 129.65 360.64 564.93 704.41 421.93 839.35 375.82 841.80 490.19 763.44 586.91 868.71 549.83
00025040 00000028 538.10 128.41 359.07 569.02 715.79 435.10 845.00 381.72 856.11 501.69 777.27 602.98 876.15 559.92
00025041 00000029 535.67 137.76 364.26 570.87 714.22 445.76 847.74 390.70 859.37 518.47 774.58 614.55 879.49 570.52
00025042 00000030 533.18 152.76 364.10 562.90 700.67 450.15 839.19 403.07 843.93 520.36 762.42 617.38 864.89 579.44
00025043 00000031 522.66 148.84 368.80 570.24 703.89 458.40 839.48 405.61 841.31 534.91 746.84 626.13 856.12 583.38
00025044 00000032 518.88 154.04 368.44 566.35 693.97 459.23 831.73 407.27 827.85 534.73 732.08 624.37 844.09 582.95
00025045 00000033 514.37 159.79 360.92 565.48 681.37 459.38 818.96 409.61 812.70 538.88 715.73 625.92 830.07 586.56
00025046 00000034 513.19 162.03 361.18 568.75 669.41 459.15 811.82 409.96 797.31 543.57 705.27 630.17 823.08 591.19
00025047 00000035 514.71 163.99 358.46 563.89 669.04 457.08 811.01 410.78 795.56 542.30 702.62 626.44 821.82 590.04
00025048 00000036 516.67 158.43 360.67 570.56 678.21 456.03 815.83 410.26 807.45 538.14 709.83 621.94 828.23 586.27
00025049 00000037 519.19 150.14 367.24 572.50 692.00 453.65 829.04 408.11 825.70 531.87 727.29 619.29 841.16 583.27
00025050 00000038 529.08 149.05 363.21 570.83 697.99 445.08 839.64 400.43 833.31 527.94 734.97 615.52 852.49 579.81
00025051 00000039 532.28 140.72 363.46 578.01 708.24 437.54 843.99 398.80 841.66 521.39 741.25 606.91 856.89 576.38
00025052 00000040 535.57 138.65 362.32 566.45 706.13 430.41 847.30 393.13 840.92 512.49 744.64 600.42 861.16 570.68
00025053 00000041 534.84 138.34 359.96 561.58 701.56 427.36 841.45 391.43 833.84 508.55 739.29 593.96 856.95 565.66
00025054 00000042 532.54 140.64 360.38 549.10 687.86 426.94 836.25 390.08 821.93 509.07 730.66 588.67 855.14 559.24
00025055 00000043 531.00 141.66 358.30 542.89 680.68 426.97 829.81 389.79 811.52 507.77 723.40 587.88 847.11 558.46
00025056 00000044 528.66 137.53 358.32 549.08 669.97 421.27 818.97 389.29 794.20 508.35 712.76 587.86 835.10 562.51
00025057 00000045 525.32 135.72 358.32 558.00 666.26 417.11 813.55 387.27 789.54 504.41 704.72 585.99 828.79 562.58
00025058 00000046 527.51 132.24 358.08 558.12 667.80 413.57 815.82 383.45 791.70 497.49 708.50 585.02 831.20 561.12
00025059 00000047 531.15 133.28 350.21 556.65 677.60 424.45 822.79 375.03 800.36 496.01 715.24 591.93 838.33 550.59
00025060 00000048 532.62 127.15 352.37 562.17 685.59 418.14 828.60 363.33 814.57 490.99 721.45 588.51 844.50 543.40
00025061 00000049 530.42 120.52 356.50 564.86 691.14 413.26 829.12 360.05 819.07 482.10 726.66 583.24 845.30 539.53
00025062 00000050 529.55 117.02 357.28 562.66 693.63 407.79 829.59 352.90 823.86 475.01 731.84 578.09 847.50 533.28
00025063 00000051 525.05 117.57 357.73 553.99 683.90 404.41 826.60 346.49 815.61 469.25 725.36 574.81 843.15 527.59
00025064 00000052 517.56 115.24 359.37 551.98 672.26 400.31 817.42 344.55 803.48 463.73 717.70 570.18 836.64 524.77
00025065 00000053 509.41 114.49 356.14 550.61 657.80 395.27 805.77 350.04 784.97 460.89 702.59 562.85 824.43 525.69
00025066 00000054 501.73 121.83 354.35 545.44 640.55 390.17 789.50 350.85 764.00 463.78 685.71 557.60 809.31 525.08
00025067 DELETE   496.48 125.97 357.11 540.90 628.74 383.26 782.08 349.11 746.54 465.02 675.27 553.80 801.86 525.42
00025068 00000056 490.70 130.87 359.56 537.20 615.84 381.77 771.35 356.53 725.91 468.15 659.62 550.49 789.63 529.30
00025069 DELETE   481.48 134.63 365.78 535.09 601.71 382.64 763.81 364.46 706.95 467.00 646.24 551.07 778.34 535.50
00025070 00000058 478.74 143.71 360.91 532.69 589.56 386.03 748.35 373.03 689.78 474.47 635.10 552.78 768.24 541.65
00025071 00000059 477.38 147.87 352.78 540.38 574.88 398.01 733.56 374.08 668.63 481.25 611.56 568.14 747.51 547.91
00025072 00000060 480.26 151.08 344.68 542.63 568.25 401.36 725.65 380.78 656.62 485.07 601.83 570.47 738.97 553.13
00025073 00000061 474.39 153.28 348.10 543.10 563.61 401.63 721.66 385.05 651.81 486.90 592.83 570.33 732.00 556.58
00025074 00000062 472.17 153.67 348.79 546.69 561.14 404.90 718.03 387.47 649.37 491.60 591.56 573.64 729.22 559.23
00025075 00000063 473.52 154.15 346.78 552.42 562.70 409.06 715.92 393.41 649.85 497.56 593.63 576.29 730.36 562.83
00025076 00000064 476.01 156.16 350.22 553.47 568.04 411.99 721.95 394.91 655.90 501.63 600.53 580.92 736.76 565.83
00025077 00000065 482.92 154.34 352.92 547.21 578.48 412.04 732.26 398.29 672.35 500.69 613.14 577.32 749.98 566.65
00025078 00000066 477.51 146.22 364.96 562.58 595.40 413.90 753.61 399.92 698.47 497.74 631.38 570.99 770.44 558.57
00025079 00000067 487.04 146.28 363.83 556.73 610.44 415.33 763.59 394.72 717.17 494.18 645.13 571.69 779.75 554.08
00025080 00000068 495.28 149.81 358.73 548.85 623.71 414.14 772.66 386.37 734.07 493.12 659.82 572.57 791.90 549.14
00025081 00000069 503.28 141.88 356.05 547.47 631.14 413.04 781.41 384.73 742.24 490.48 671.29 574.13 798.76 550.19
00025082 00000070 511.12 136.33 348.41 543.80 640.01 414.04 788.45 381.31 753.00 488.93 683.24 573.73 807.05 545.96
00025083 00000071 511.93 134.90 351.23 547.20 644.01 412.99 790.96 377.79 756.25 488.44 685.06 573.85 807.98 544.10
00025084 00000072 513.58 135.92 351.97 546.58 642.29 409.62 791.98 378.37 752.72 487.91 682.02 572.79 806.04 546.36
00025085 00000073 515.66 136.95 351.51 547.97 637.76 409.29 789.23 380.93 746.05 486.65 675.96 572.35 802.68 548.39
00025086 00000074 517.55 135.25 351.14 551.41 638.70 409.43 790.29 381.34 746.74 486.79 676.90 574.26 803.98 550.47
00025087 00000075 520.67 134.18 347.93 549.59 644.20 409.88 793.00 378.08 753.08 485.02 681.86 573.32 808.27 546.45
00025088 00000076 522.78 134.23 349.06 544.98 651.62 410.85 799.11 374.03 763.97 485.56 689.23 570.85 817.87 539.84
00025089 00000077 528.19 138.95 350.44 536.97 660.94 407.26 812.16 371.63 775.80 482.97 696.85 570.94 826.24 540.94
00025090 00000078 533.36 134.26 352.41 536.91 676.30 401.11 825.92 367.42 796.41 477.69 709.40 567.25 833.67 539.71
00025091 00000079 543.39 131.91 353.97 545.40 690.98 391.37 838.59 365.28 812.68 470.39 732.68 554.40 855.02 533.27
00025092 00000080 546.03 124.72 355.49 553.88 709.36 391.41 848.30 365.57 835.29 469.08 743.04 554.87 859.38 533.85
00025093 00000081 549.29 115.62 359.25 561.17 722.55 393.78 857.00 365.77 851.42 467.43 754.99 557.65 865.78 534.80
00025094 00000082 552.82 110.28 360.93 564.51 730.96 393.27 863.21 361.23 861.48 465.24 761.17 557.82 870.45 531.87
00025095 00000083 553.87 107.43 361.90 562.68 736.71 389.22 866.22 355.84 867.54 460.84 766.70 556.25 872.89 529.41
00025096 00000084 552.79 102.17 363.66 567.33 735.46 388.22 867.61 352.71 871.17 456.19 769.32 555.46 877.02 526.85
00025097 00000085 551.63 101.51 363.51 567.63 730.78 386.22 864.66 352.27 865.71 457.00 766.87 554.48 875.86 526.95
00025098 00000086 547.17 101.47 364.98 567.75 725.66 381.47 862.26 350.62 859.95 453.89 764.15 553.84 872.97 528.72
00025099 00000087 544.86 99.10 365.94 567.22 724.32 376.88 860.28 348.37 857.12 450.95 764.52 551.08 871.96 527.70
00025100 00000088 542.95 97.37 367.67 570.75 725.55 376.61 860.66 345.77 863.42 445.17 766.17 549.81 874.56 524.59
00025101 00000089 541.81 95.40 370.32 565.85 732.70 373.91 861.88 342.46 872.14 437.33 775.37 544.33 879.25 518.48
00025102 00000090 540.08 92.39 373.10 568.30 732.01 371.07 859.19 338.49 873.59 430.02 781.39 541.68 883.28 514.49
00025103 00000091 539.25 95.33 367.18 564.85 730.36 371.23 855.26 335.71 871.48 432.77 777.25 542.08 877.03 513.21
00025104 00000092 536.43 95.17 367.12 568.21 724.55 372.98 854.06 338.65 866.34 434.62 770.52 544.36 871.91 516.58
00025105 00000093 538.85 98.05 361.86 566.55 721.00 374.25 847.19 340.89 858.27 436.99 765.14 544.18 868.01 517.67
00025106 00000094 538.32 98.24 352.17 564.87 708.48 367.38 844.95 343.73 843.58 432.34 753.43 539.11 862.01 520.83
00025107 00000095 532.12 104.95 357.11 564.36 700.12 367.41 841.81 341.18 832.97 440.69 729.68 546.44 849.57 525.51
00025108 00000096 532.52 116.15 354.43 550.11 685.54 375.71 829.30 346.63 808.44 451.89 716.48 553.29 833.39 530.64
00025109 00000097 536.77 131.01 356.23 542.75 684.21 384.75 832.37 353.93 805.46 461.59 715.34 562.69 832.99 538.24
00025110 00000098 543.28 132.08 356.85 544.79 696.35 387.52 843.33 360.77 814.94 471.17 739.91 562.78 851.10 541.67
00025111 DELETE   553.57 134.06 351.47 545.77 706.91 403.91 851.70 374.89 827.93 483.44 749.42 572.05 860.32 548.38
00025112 DELETE   557.01 142.46 361.46 558.94 719.62 421.63 864.72 383.10 849.21 501.38 760.15 592.67 878.77 561.11
00025113 00000101 569.95 149.18 356.61 558.69 730.85 434.97 866.21 395.32 858.75 513.35 776.55 608.39 881.45 576.60
00025114 00000102 579.34 162.07 350.44 553.48 736.46 449.24 875.17 409.49 864.51 530.32 780.04 623.83 884.82 592.05
00025115 00000103 575.80 163.64 349.99 567.36 732.68 456.93 873.75 416.58 862.91 539.08 771.27 630.32 885.50 597.90
00025116 00000104 571.29 165.99 352.42 568.81 727.52 458.77 868.65 425.00 849.55 544.47 764.14 629.91 877.83 602.34
00025117 00000105 564.79 168.18 353.31 567.89 723.33 459.96 868.23 428.09 845.68 549.00 756.58 629.63 871.38 603.49
00025118 00000106 561.10 165.32 354.55 576.31 720.10 458.90 864.10 428.05 842.44 547.28 750.84 627.24 868.80 601.85
00025119 00000107 559.70 164.76 355.85 576.29 720.00 456.38 863.12 426.45 842.12 544.32 751.58 625.43 868.27 600.75
00025120 00000108 561.14 162.88 353.81 572.07 718.85 454.13 862.29 420.00 844.89 538.91 754.09 623.19 870.72 595.48
00025121 00000109 564.80 158.59 355.98 564.87 720.63 449.42 865.04 411.85 849.14 530.20 760.47 618.78 875.61 588.72
00025122 00000110 563.90 151.47 360.55 567.86 719.90 443.22 864.45 404.13 850.89 524.40 762.63 616.16 878.79 584.78
00025123 00000111 561.48 149.68 362.07 574.40 723.52 439.28 862.47 399.74 852.00 520.66 760.83 612.64 874.37 581.51
00025124 00000112 555.50 154.54 363.63 570.97 718.94 438.31 855.23 404.92 844.52 519.19 753.50 606.64 869.19 580.77
00025125 00000113 551.62 154.69 361.38 563.85 710.21 431.64 845.99 399.91 831.42 513.22 748.82 601.13 862.70 576.58
00025126 00000114 548.50 155.10 359.71 563.35 698.58 419.42 841.98 391.41 820.77 510.13 733.91 593.79 860.65 571.70
00025127 00000115 547.94 150.25 356.59 562.40 692.80 414.89 837.25 392.17 811.53 506.05 718.36 589.85 846.27 573.10
00025128 00000116 545.86 142.77 356.52 567.76 693.34 410.76 835.76 389.35 814.05 500.11 717.90 586.62 844.16 570.83
00025129 00000117 547.27 139.83 357.46 572.25 694.44 411.23 841.64 384.60 818.06 492.32 728.05 575.44 856.77 553.71
00025130 00000118 547.44 137.60 356.68 565.02 695.37 410.06 842.93 380.27 819.90 489.62 732.07 572.44 860.30 548.17
00025131 00000119 548.97 132.59 353.28 567.56 695.73 410.23 838.32 376.39 819.38 486.21 734.28 570.07 859.40 542.75
00025132 00000120 547.56 129.62 351.60 562.20 689.44 403.18 834.78 370.28 812.48 479.87 731.40 565.43 854.57 539.26
00025133 00000121 541.34 127.85 350.98 569.70 687.37 411.66 831.10 367.78 811.26 487.90 714.89 584.98 841.29 548.61
00025134 00000122 535.09 131.32 351.35 564.44 679.03 414.58 825.48 370.91 802.28 488.21 707.99 584.56 836.90 548.32
00025135 00000123 530.81 138.30 354.25 557.70 662.10 405.90 809.94 378.26 784.71 490.16 699.04 578.21 826.64 556.38
00025136 00000124 522.85 146.80 357.03 551.11 648.31 415.04 793.20 385.57 761.87 494.51 686.38 579.05 812.65 555.82
00025137 00000125 509.50 156.07 364.06 545.45 630.61 414.89 778.71 391.93 737.73 498.40 669.80 581.37 795.13 562.50
00025138 00000126 506.01 168.63 360.12 538.45 617.02 417.06 769.15 395.30 719.77 510.15 651.93 587.68 784.27 570.39
00025139 00000127 503.72 171.88 353.07 538.92 611.04 419.69 764.28 402.58 709.30 512.04 646.01 591.20 775.53 577.89
00025140 00000128 504.10 173.19 348.06 540.08 609.03 421.75 760.99 406.57 704.95 517.71 644.22 596.26 769.83 584.68
00025141 00000129 504.66 176.97 346.53 540.10 607.58 425.93 759.88 410.89 702.83 522.72 644.70 600.15 770.33 588.67
00025142 00000130 503.68 171.33 349.07 555.48 609.21 428.82 762.27 415.99 704.92 525.48 645.37 605.95 769.86 596.54
00025143 00000131 506.11 171.21 348.71 563.23 611.35 435.38 761.86 423.94 705.47 531.25 647.29 611.14 770.38 602.77
00025144 00000132 506.75 177.50 350.77 558.48 608.01 438.49 762.79 431.16 700.27 539.60 643.80 614.19 770.15 609.10
00025145 00000133 497.42 185.62 356.76 550.49 598.67 442.55 758.82 439.59 687.64 545.18 632.27 615.70 762.57 614.17
00025146 00000134 487.76 193.60 360.78 545.24 586.63 446.17 746.05 444.15 674.96 546.89 622.57 615.81 754.54 614.12
00025147 00000135 483.38 190.60 362.46 549.85 578.78 446.97 738.14 450.13 664.11 549.02 611.51 616.34 742.82 618.75
00025148 00000136 483.39 194.68 360.74 547.46 577.16 450.17 734.79 453.66 661.41 549.72 609.16 616.44 740.24 619.12
00025149 00000137 485.29 193.94 364.07 546.43 582.23 451.19 740.98 450.81 669.15 550.87 617.44 616.89 750.74 616.08
00025150 00000138 492.48 192.42 361.29 545.49 590.84 447.71 750.82 446.39 677.85 551.91 625.36 618.16 756.64 617.11
00025151 00000139 503.43 191.07 354.90 546.38 600.17 443.87 757.89 445.28 685.52 550.89 631.90 616.96 760.60 618.67
00025152 00000140 504.93 186.45 355.38 549.33 602.76 444.19 759.62 442.30 690.53 547.92 637.37 617.06 766.23 616.02
00025153 00000141 505.56 181.98 354.46 552.85 601.49 439.54 759.18 436.00 690.14 543.46 635.93 614.72 766.98 612.28
00025154 00000142 501.61 174.73 356.21 552.92 597.70 434.68 756.51 431.17 686.00 540.86 631.72 611.59 763.37 609.14
00025155 00000143 500.35 168.12 357.44 558.19 596.29 431.26 754.18 427.55 684.52 534.46 630.17 609.08 762.39 606.48
00025156 00000144 502.16 172.50 354.35 549.26 595.38 428.17 753.10 423.92 683.49 530.51 629.01 605.33 761.07 602.51
00025157 00000145 498.84 173.59 357.05 541.02 586.87 426.96 749.69 415.24 675.90 516.61 623.67 592.53 763.41 581.68
00025158 00000146 488.31 162.99 361.28 540.30 569.57 407.97 724.11 397.24 648.65 506.63 607.30 585.83 737.24 576.46
00025159 DELETE   487.99 138.43 354.39 557.39 553.17 387.64 710.39 397.37 610.51 485.75 569.98 561.38 702.70 569.13
00025160 00000148 483.44 123.21 351.16 561.85 530.98 370.34 677.64 378.80 566.48 466.32 545.67 553.30 671.31 558.61
00025161 00000149 476.13 118.54 351.39 558.02 520.97 354.47 666.35 368.07 548.91 456.31 534.03 547.54 657.70 556.62
00025162 00000150 477.90 108.88 346.11 563.86 517.71 348.37 657.54 360.13 537.98 449.91 533.30 545.98 648.84 553.62
00025163 00000151 478.44 118.76 344.31 554.97 519.09 347.31 652.84 359.86 537.29 451.93 533.16 541.99 638.31 549.99
00025164 00000152 476.93 104.86 353.52 567.40 520.91 349.27 664.99 359.62 546.41 450.80 536.30 546.06 655.71 553.10
00025165 00000153 484.02 115.22 355.34 563.44 525.79 357.79 680.90 367.26 555.67 462.26 537.80 549.21 662.58 555.53
00025166 DELETE   507.62 102.25 363.56 570.74 568.94 360.92 726.52 371.26 619.45 459.82 582.02 545.71 711.01 553.98
00025167 00000155 524.41 142.03 363.74 524.47 621.48 374.56 783.12 362.32 710.81 463.14 652.88 551.85 780.19 542.99
00025168 00000156 553.62 123.46 370.07 538.06 688.44 375.96 851.29 350.96 805.43 456.63 735.60 554.22 858.60 533.60
00025169 00000157 588.54 107.70 360.37 550.67 762.07 377.14 907.52 342.37 902.07 435.52 810.02 551.42 925.94 522.29
00025170 00000158 609.47 99.22 362.54 549.36 797.54 369.36 926.52 338.22 937.71 427.62 859.63 542.68 950.93 517.05
00025171 00000159 611.22 94.19 364.01 562.55 795.09 371.96 925.77 331.62 937.80 433.87 859.53 550.09 956.11 516.74
00025172 00000160 609.08 102.46 365.46 556.63 786.24 376.68 925.54 343.79 924.16 446.98 841.54 554.85 944.60 527.65
00025173 00000161 609.26 106.59 359.86 551.66 775.28 378.11 920.22 347.32 909.14 449.53 830.32 555.30 937.38 530.06
00025174 00000162 605.76 113.07 359.09 546.80 771.81 375.32 916.06 344.09 905.20 450.68 827.27 555.36 933.47 529.94
00025175 00000163 599.39 110.90 358.53 552.12 772.99 385.82 911.85 349.03 904.90 454.45 813.55 561.35 923.60 531.16
00025176 00000164 591.52 114.91 362.49 548.32 751.85 386.76 899.97 345.99 883.45 456.75 796.00 564.52 912.10 531.02
00025177 00000165 587.20 112.57 359.36 546.52 744.25 382.50 892.69 343.90 874.20 451.83 787.75 559.13 905.13 527.66
00025178 00000166 586.63 117.11 355.02 541.74 736.25 375.45 884.18 343.09 860.80 447.51 780.88 553.64 898.51 527.24
00025179 00000167 581.67 115.50 354.04 545.87 726.01 368.37 876.21 339.65 850.81 443.24 771.19 549.07 892.22 525.60
00025180 00000168 579.26 118.61 351.71 544.04 719.34 362.39 867.91 332.52 844.34 443.44 761.91 544.01 884.98 519.88
00025181 00000169 572.43 113.03 357.58 543.15 711.98 354.53 862.21 334.25 830.81 431.57 752.86 531.10 877.76 514.50
00025182 00000170 569.50 116.87 353.65 528.07 704.89 349.81 854.75 330.76 819.61 430.00 747.64 524.45 869.30 509.31
