Video ID: 	qfBgRsro258
H: 	1080
W: 	1920
FPS: 	25.0

FRAME INDEX X0 Y0 W H [Landmarks (5 Points)]

00010232 00000000 1013.72 186.43 356.94 522.84 1040.28 389.56 1172.23 394.66 1043.90 484.61 1042.91 591.56 1147.02 596.39
00010233 DELETE   1011.42 186.62 358.39 525.41 1038.23 391.00 1172.13 395.01 1045.60 487.73 1045.33 595.67 1148.95 599.33
00010234 00000002 1010.10 185.06 359.29 530.13 1038.16 392.14 1173.64 395.05 1047.62 488.62 1046.88 596.79 1152.92 599.49
00010235 00000003 1009.90 185.15 356.70 531.25 1038.53 391.61 1171.30 394.40 1046.09 487.17 1047.48 596.30 1150.80 598.87
00010236 00000004 1010.44 181.29 354.86 535.02 1036.65 389.40 1166.82 394.91 1039.48 486.11 1042.90 593.87 1143.25 598.63
00010237 00000005 1009.76 180.58 354.94 534.65 1034.15 387.18 1161.00 394.46 1031.30 484.92 1039.30 591.80 1136.97 597.94
00010238 DELETE   1005.38 189.35 353.48 524.17 1028.75 386.11 1152.27 394.26 1023.34 485.31 1033.97 589.65 1128.58 596.08
00010239 DELETE   997.33 192.14 357.12 518.76 1014.31 381.85 1146.06 396.54 1007.51 489.16 1026.45 588.90 1127.45 602.92
00010240 DELETE   990.14 180.05 354.04 528.86 1004.40 382.33 1141.24 398.04 997.84 489.33 1016.41 589.68 1117.90 604.90
00010241 00000009 987.46 186.47 350.54 524.68 1001.25 379.68 1134.60 395.20 994.69 488.66 1014.23 590.63 1112.91 605.92
00010242 00000010 985.50 186.87 352.09 523.40 1000.21 378.80 1133.17 392.93 992.06 487.37 1013.50 590.89 1112.35 604.73
00010243 00000011 982.83 182.31 353.27 528.63 998.26 376.61 1129.73 391.02 986.90 485.15 1010.36 589.32 1108.65 603.08
00010244 00000012 979.52 179.03 350.72 533.14 995.55 376.93 1124.56 390.45 982.44 483.23 1008.08 588.12 1104.18 601.03
00010245 00000013 976.33 179.13 350.98 534.82 991.24 377.04 1122.87 390.53 980.09 483.58 1006.21 588.16 1103.97 600.91
00010246 00000014 974.82 185.23 352.67 531.01 989.49 380.86 1120.46 390.80 978.63 485.39 1005.64 590.52 1105.07 600.19
00010247 00000015 972.59 187.31 353.20 529.23 989.31 382.28 1117.55 390.99 976.70 485.45 1006.70 591.19 1103.84 599.49
00010248 00000016 972.40 189.72 351.79 528.25 988.70 384.12 1116.04 391.14 975.44 486.82 1007.69 591.93 1105.99 598.73
00010249 00000017 971.81 190.93 349.85 530.45 989.57 383.96 1114.78 390.61 975.74 486.94 1008.79 593.35 1106.03 599.67
00010250 00000018 970.22 189.17 358.08 534.48 998.76 386.70 1112.19 387.36 982.12 477.95 1010.57 590.72 1099.54 590.85
00010251 00000019 973.54 192.85 346.28 530.06 992.07 384.71 1114.54 390.60 975.41 486.05 1008.61 593.49 1105.84 598.92
00010252 00000020 975.52 193.87 346.60 528.74 994.11 390.83 1117.26 395.12 979.35 487.78 1010.03 593.15 1109.07 597.27
00010253 00000021 976.15 194.28 346.70 527.52 995.65 388.33 1118.83 394.31 980.75 486.53 1010.78 591.44 1109.00 597.03
00010254 00000022 976.82 183.63 347.28 534.34 992.89 385.66 1119.46 391.01 979.50 484.56 1009.45 591.78 1107.22 597.63
00010255 00000023 978.37 183.83 347.04 530.31 991.84 381.27 1121.80 389.50 980.06 482.62 1007.23 590.38 1105.90 598.92
00010256 00000024 978.52 180.30 348.75 529.41 992.58 379.75 1123.48 387.61 982.72 479.45 1007.02 588.26 1103.72 596.81
00010257 00000025 979.30 180.66 349.06 526.74 995.00 378.00 1124.30 387.51 983.97 477.13 1005.49 585.23 1101.33 595.05
00010258 00000026 980.08 180.69 350.07 525.45 996.83 376.55 1126.14 387.22 986.00 477.00 1005.75 584.96 1101.30 595.73
00010259 00000027 983.03 180.69 349.83 522.73 999.87 373.93 1130.92 388.19 990.42 476.36 1005.62 582.87 1103.02 596.62
00010260 00000028 984.68 186.62 347.29 514.61 1001.18 374.22 1131.83 387.63 991.82 475.06 1004.15 581.80 1101.63 594.83
00010261 00000029 985.30 188.88 347.74 511.04 1002.40 373.85 1133.94 387.80 993.83 474.41 1004.39 580.16 1103.40 593.58
00010262 00000030 986.59 186.93 348.04 511.07 1002.61 374.75 1135.57 387.98 995.52 474.22 1006.03 579.57 1106.27 592.56
00010263 00000031 985.90 188.34 348.78 508.44 1003.23 374.39 1136.32 387.23 996.90 473.23 1006.31 579.12 1106.37 591.77
00010264 00000032 986.20 186.63 347.97 508.30 1002.32 373.68 1136.32 386.82 997.25 472.22 1006.03 577.20 1107.02 590.17
00010265 00000033 986.03 189.63 348.65 504.93 1002.71 373.83 1136.01 387.04 996.68 472.23 1005.86 576.53 1107.29 589.48
00010266 00000034 985.87 189.09 348.42 506.06 1002.75 374.46 1135.49 386.75 996.65 471.83 1006.08 576.65 1107.16 588.99
00010267 00000035 984.77 190.04 349.13 507.13 1003.00 375.73 1135.38 386.73 996.98 472.13 1006.39 578.68 1106.35 589.90
00010268 00000036 986.40 195.41 344.55 504.23 1019.48 379.48 1134.42 387.79 997.93 471.30 1014.79 581.05 1100.07 587.49
00010269 00000037 984.32 189.09 349.11 511.03 1002.56 376.69 1134.08 385.00 994.85 472.31 1006.41 582.45 1104.06 591.60
00010270 00000038 984.19 186.16 350.11 514.65 1001.58 375.83 1133.41 384.51 994.41 473.61 1008.63 583.00 1105.60 592.51
00010271 00000039 984.23 184.78 349.63 516.09 1001.48 375.13 1132.82 385.24 994.31 474.15 1008.83 581.81 1106.36 592.33
00010272 00000040 984.53 184.30 349.54 515.22 1001.22 373.34 1133.53 385.86 994.25 473.86 1008.08 580.14 1106.37 592.53
00010273 00000041 984.78 186.16 349.16 511.28 1001.68 372.80 1133.61 386.42 993.71 473.80 1007.22 578.52 1105.77 591.66
00010274 00000042 985.14 187.42 348.72 507.97 1002.36 371.52 1134.95 386.22 994.93 472.56 1006.32 576.69 1105.22 590.69
00010275 00000043 985.33 189.26 350.63 504.19 1002.21 371.78 1135.97 386.04 995.89 471.52 1005.81 575.64 1105.73 589.32
00010276 00000044 985.65 186.48 350.98 507.66 1002.62 371.59 1137.26 385.20 997.67 471.16 1006.98 576.09 1107.05 589.39
00010277 00000045 986.24 188.22 350.66 506.08 1002.79 372.30 1138.16 385.57 998.65 471.35 1007.30 576.18 1108.37 589.25
00010278 00000046 986.03 191.09 351.93 503.82 1003.56 373.13 1139.05 386.18 998.91 471.40 1006.84 576.70 1108.22 589.52
00010279 00000047 985.81 191.29 352.95 504.01 1004.15 373.73 1138.88 386.58 998.51 471.84 1007.47 577.22 1108.17 589.88
00010280 00000048 986.17 191.21 352.25 504.74 1004.52 374.55 1138.32 386.46 997.43 472.84 1007.60 578.47 1108.36 590.28
00010281 00000049 986.45 191.18 352.14 505.78 1004.35 375.27 1137.82 386.57 996.58 473.58 1008.13 579.53 1109.08 590.77
00010282 00000050 986.67 191.09 353.43 505.87 1004.24 375.26 1137.48 386.61 996.07 475.01 1009.21 580.22 1109.86 591.51
00010283 00000051 988.55 188.91 349.81 508.02 1002.45 381.59 1135.26 389.53 994.16 476.86 1008.95 582.44 1111.09 591.03
00010284 00000052 989.03 190.99 350.07 506.55 1004.22 385.11 1135.95 391.65 996.18 478.82 1011.77 583.89 1113.71 591.32
00010285 00000053 993.71 186.17 348.54 511.97 1004.66 384.94 1140.45 391.57 1003.48 482.75 1018.44 585.78 1122.42 593.68
00010286 DELETE   995.09 188.74 363.20 524.35 1014.90 387.20 1154.18 393.62 1016.78 487.25 1029.15 594.12 1132.60 601.12
00010287 DELETE   1002.82 185.42 360.12 539.99 1030.66 395.10 1158.79 395.74 1038.21 489.60 1045.21 601.14 1142.12 601.39
00010288 00000056 1001.11 198.13 364.29 529.75 1028.53 396.22 1162.82 395.22 1041.85 495.14 1047.09 602.87 1151.04 601.62
00010289 DELETE   994.87 183.08 362.11 545.65 1017.14 396.25 1152.44 398.27 1028.17 499.45 1034.24 603.49 1139.95 604.19
00010290 DELETE   984.16 188.22 364.20 537.79 997.22 402.28 1138.43 403.94 999.59 511.86 1028.32 614.19 1135.62 616.58
00010291 DELETE   979.44 216.09 357.95 516.37 993.75 408.28 1128.83 417.41 998.11 524.53 1027.75 615.60 1131.77 623.66
00010292 00000060 977.87 234.04 356.56 511.75 992.99 409.61 1133.50 423.17 1002.99 532.27 1025.30 622.69 1133.28 633.63
00010293 DELETE   974.28 222.82 359.07 518.79 993.31 409.29 1134.83 420.44 1006.76 527.45 1026.51 616.86 1136.51 626.30
00010294 00000062 974.84 215.39 364.17 520.32 995.20 402.10 1136.49 409.08 1006.03 516.87 1029.09 611.23 1138.11 616.96
00010295 00000063 979.15 212.27 362.87 515.92 998.26 397.86 1138.83 402.01 1009.60 510.89 1030.16 609.54 1135.91 613.88
00010296 00000064 983.63 219.20 362.65 513.56 1003.09 402.23 1137.92 407.40 1007.91 516.49 1039.11 610.88 1142.58 614.66
00010297 DELETE   989.53 230.50 360.48 508.78 1007.98 410.19 1140.46 414.38 1010.41 526.19 1047.79 617.69 1153.60 619.57
00010298 00000066 990.52 224.03 361.27 516.29 1013.86 408.55 1147.66 417.46 1015.94 527.49 1052.25 616.98 1159.67 622.43
00010299 00000067 998.76 226.59 359.02 508.05 1023.20 407.44 1153.08 416.48 1026.20 516.45 1042.60 611.55 1145.91 617.46
00010300 00000068 1005.50 220.92 362.13 504.57 1026.64 403.79 1156.36 409.04 1030.55 503.92 1041.60 605.67 1143.09 609.23
00010301 00000069 1008.29 213.86 363.40 508.87 1030.40 398.52 1160.88 405.65 1035.95 502.31 1041.91 600.88 1144.25 606.07
00010302 00000070 1009.08 214.16 363.90 509.83 1030.44 398.40 1163.57 405.42 1039.59 505.01 1043.05 604.83 1146.76 610.11
00010303 00000071 1009.95 221.14 362.16 504.93 1030.22 399.24 1162.30 407.97 1038.73 507.23 1042.84 607.78 1142.98 614.32
00010304 00000072 1008.66 224.74 360.23 498.59 1028.86 399.00 1159.13 407.81 1035.65 505.20 1040.63 605.25 1137.59 611.80
00010305 00000073 1008.02 215.28 360.31 503.88 1028.38 398.27 1156.85 405.30 1032.85 500.70 1039.83 601.03 1136.39 606.34
00010306 00000074 1008.48 207.28 359.62 508.80 1028.44 395.16 1158.75 401.29 1033.18 498.34 1039.80 599.86 1140.51 604.51
00010307 00000075 1007.04 203.89 361.22 512.98 1030.07 392.78 1160.68 401.49 1033.45 500.39 1039.49 594.89 1146.37 601.43
00010308 00000076 1005.47 205.09 363.37 514.62 1031.36 393.32 1161.03 404.42 1033.87 503.13 1039.14 592.84 1147.92 601.21
00010309 00000077 1004.44 210.94 364.04 510.64 1032.49 393.52 1162.58 406.89 1035.41 503.70 1039.18 591.62 1148.70 601.71
00010310 00000078 1004.99 209.94 363.71 510.98 1033.42 393.94 1163.17 406.74 1035.79 502.34 1038.49 591.56 1147.35 601.38
00010311 00000079 1005.88 206.72 362.86 513.08 1033.54 390.72 1164.93 404.08 1035.97 501.95 1037.79 589.86 1149.09 600.21
00010312 00000080 1007.84 200.17 361.49 518.55 1033.52 388.79 1165.99 401.46 1035.77 499.40 1037.44 588.92 1151.22 598.78
00010313 00000081 1009.61 200.74 362.50 517.86 1033.96 390.04 1167.39 401.99 1037.46 500.57 1039.21 590.64 1151.78 600.00
00010314 00000082 1009.17 202.77 363.02 516.53 1034.51 392.23 1167.56 403.28 1039.39 501.63 1040.51 593.40 1150.54 602.14
00010315 00000083 1009.52 206.73 363.41 512.62 1034.52 394.45 1167.02 404.31 1040.86 502.24 1040.55 596.86 1147.44 604.73
00010316 00000084 1010.25 207.10 362.33 511.90 1034.14 395.40 1167.56 403.72 1042.44 501.94 1041.41 599.78 1146.37 606.55
00010317 00000085 1011.56 207.63 360.20 510.28 1034.36 394.05 1167.61 402.12 1042.78 501.66 1041.61 600.05 1146.41 606.67
00010318 00000086 1011.77 202.27 360.51 515.19 1034.61 392.81 1168.80 400.54 1042.63 499.87 1041.08 599.81 1147.15 606.34
00010319 00000087 1012.01 200.91 359.01 515.84 1034.38 392.53 1168.56 400.00 1042.04 499.41 1041.60 599.75 1146.70 606.03
00010320 00000088 1012.33 202.36 358.22 513.59 1034.09 392.85 1167.44 400.27 1041.61 499.20 1041.12 599.51 1144.56 605.85
00010321 00000089 1012.17 199.45 357.90 516.10 1033.17 393.00 1166.97 400.46 1040.78 500.07 1039.96 599.83 1143.68 606.33
00010322 00000090 1011.67 199.83 358.35 515.93 1032.94 392.80 1165.78 400.50 1040.19 500.48 1040.54 599.65 1143.47 606.21
00010323 00000091 1012.51 198.75 356.81 516.51 1033.01 392.39 1165.42 399.92 1039.23 498.92 1040.29 599.03 1142.67 605.42
00010324 00000092 1012.38 198.75 357.49 515.49 1032.79 391.99 1165.08 398.50 1038.97 496.52 1040.12 597.85 1142.80 603.40
00010325 00000093 1012.50 200.40 356.81 512.62 1033.80 391.14 1165.63 396.85 1039.94 494.23 1040.97 596.86 1144.03 601.80
00010326 00000094 1012.40 196.51 357.38 517.33 1034.16 390.49 1167.04 395.79 1040.20 493.28 1041.15 597.45 1144.54 602.07
00010327 00000095 1012.57 196.80 356.56 518.73 1035.46 391.16 1167.64 396.00 1041.29 492.69 1042.73 598.78 1144.26 603.00
00010328 00000096 1013.23 196.69 355.40 520.17 1035.93 391.72 1169.19 396.26 1042.65 492.85 1044.82 601.26 1144.66 605.15
00010329 00000097 1013.73 200.16 355.63 516.93 1036.53 391.58 1170.09 396.27 1044.40 493.38 1045.37 601.18 1145.67 605.27
00010330 00000098 1013.67 198.73 357.30 518.63 1036.71 391.43 1170.29 396.72 1044.13 493.82 1045.10 600.94 1145.43 605.51
00010331 00000099 1013.53 198.24 356.92 519.61 1036.96 391.44 1170.70 396.75 1044.61 493.84 1045.33 601.11 1145.87 605.69
00010332 00000100 1013.25 197.94 357.17 520.30 1036.98 391.47 1170.99 396.83 1044.50 493.88 1045.44 601.01 1146.22 605.63
00010333 00000101 1013.20 198.82 357.14 519.93 1037.05 391.70 1170.31 397.11 1044.00 493.71 1045.01 600.79 1145.45 605.40
00010334 00000102 1012.74 199.86 358.25 519.58 1037.24 391.48 1170.62 396.87 1044.50 493.21 1045.11 600.25 1145.95 604.84
00010335 00000103 1012.63 197.51 358.72 521.09 1037.21 391.56 1171.09 396.30 1044.08 492.66 1045.37 600.50 1147.00 604.60
00010336 00000104 1011.52 199.30 359.34 519.23 1037.10 392.55 1170.59 396.24 1044.40 491.89 1045.85 599.78 1147.96 603.09
00010337 00000105 1010.89 199.17 359.73 518.84 1037.31 392.41 1170.89 396.69 1044.16 492.06 1045.65 597.60 1149.94 601.33
00010338 00000106 1010.24 199.06 361.21 519.08 1037.85 393.05 1171.93 397.62 1044.98 493.45 1045.25 596.07 1151.88 600.07
00010339 00000107 1008.68 198.46 365.25 520.76 1042.25 398.48 1177.97 402.55 1052.81 498.14 1051.17 597.66 1161.58 601.13
00010340 00000108 1013.93 187.87 365.31 532.84 1052.29 402.62 1189.30 406.25 1063.71 502.91 1060.24 600.14 1175.27 603.38
00010341 00000109 1015.08 181.59 365.30 540.38 1056.62 405.17 1201.60 408.90 1074.23 501.58 1064.85 599.77 1188.07 602.81
00010342 00000110 1013.90 181.28 366.37 540.28 1055.16 406.14 1200.92 409.78 1074.50 503.19 1063.88 600.35 1188.46 603.21
00010343 00000111 1013.02 187.34 366.54 536.10 1054.10 405.95 1197.92 411.71 1070.99 504.55 1061.29 601.46 1183.31 606.08
00010344 DELETE   1016.85 188.85 364.43 535.50 1057.84 405.08 1206.71 412.48 1079.95 507.90 1065.88 603.63 1191.36 609.40
00010345 DELETE   1021.83 191.30 366.82 539.52 1063.73 406.37 1219.94 413.33 1095.04 510.65 1076.18 606.73 1208.16 611.75
00010346 00000114 1022.38 190.09 366.26 544.38 1065.90 406.16 1224.36 414.40 1099.06 512.92 1078.55 607.02 1213.06 613.04
00010347 00000115 1022.37 189.18 365.47 547.53 1066.04 404.24 1221.88 415.19 1096.24 514.96 1076.39 605.32 1210.10 613.76
00010348 00000116 1023.31 189.85 364.35 548.68 1067.43 404.08 1222.69 414.64 1098.93 515.07 1079.64 610.01 1207.00 618.21
00010349 00000117 1026.32 197.38 365.49 543.61 1080.98 409.31 1227.81 414.31 1113.37 515.01 1095.67 615.21 1212.56 618.70
00010350 00000118 1029.00 194.98 364.63 545.59 1085.92 412.07 1236.59 418.31 1124.74 521.04 1100.92 616.01 1221.42 620.20
00010351 00000119 1028.36 193.64 367.36 551.33 1089.15 417.80 1242.78 423.77 1133.05 527.02 1102.59 616.95 1232.67 620.75
00010352 00000120 1026.40 200.73 366.57 549.16 1089.06 424.01 1243.97 430.29 1137.27 529.86 1106.69 625.05 1227.62 628.97
00010353 00000121 1026.02 204.21 365.98 551.92 1089.76 428.77 1247.50 435.63 1140.00 533.22 1107.90 630.97 1225.76 635.52
00010354 00000122 1030.34 208.65 360.66 549.98 1087.51 438.17 1249.03 436.12 1143.90 538.41 1105.02 639.84 1231.45 640.01
00010355 00000123 1029.05 216.14 361.04 547.07 1088.20 446.07 1250.06 440.23 1148.11 545.93 1108.85 647.25 1237.68 644.19
00010356 00000124 1025.26 220.97 366.62 546.37 1089.82 454.53 1253.53 449.87 1153.12 557.96 1112.29 654.72 1244.05 651.33
00010357 00000125 1021.11 232.43 373.20 541.19 1093.96 460.48 1258.07 455.51 1162.40 568.50 1119.29 660.56 1250.80 656.31
00010358 00000126 1019.49 243.01 377.31 543.45 1101.78 467.84 1264.84 460.05 1177.38 576.27 1132.09 669.95 1256.23 663.69
00010359 DELETE   1018.20 246.57 378.16 549.35 1107.92 473.33 1266.93 465.93 1184.94 584.50 1139.10 674.65 1258.68 669.10
CROP_BBOX: 717 0 1623 929
