Video ID: 	EJ-vrtJ0dCg
H: 	1080
W: 	1920
FPS: 	25.0

FRAME INDEX X0 Y0 W H [Landmarks (5 Points)]

00002229 00000000 770.95 156.29 427.53 667.22 1008.32 408.93 1169.10 415.33 1175.01 517.11 1027.22 650.64 1164.14 656.42
00002230 00000001 770.38 155.21 428.12 674.65 1008.45 410.05 1168.21 417.20 1174.31 516.97 1027.14 653.78 1163.53 660.03
00002231 00000002 774.63 151.56 426.75 671.53 1014.06 410.39 1172.04 417.38 1180.09 515.47 1039.30 653.52 1170.09 659.47
00002232 00000003 779.68 156.61 423.99 663.52 1018.43 413.13 1176.45 421.62 1186.08 515.95 1049.13 655.28 1175.37 662.05
00002233 00000004 780.60 156.82 426.12 660.48 1010.72 421.11 1167.84 427.92 1162.73 524.51 1044.61 654.93 1165.84 660.28
00002234 00000005 781.82 157.70 427.69 656.10 1013.03 425.44 1170.40 429.75 1165.13 528.74 1044.34 655.43 1166.92 659.00
00002235 00000006 781.36 162.64 426.06 654.65 1012.11 428.90 1170.71 431.39 1165.19 533.54 1042.89 658.91 1167.25 661.05
00002236 00000007 785.01 171.53 416.70 656.94 1021.77 428.04 1177.22 438.83 1182.82 531.92 1046.85 666.93 1171.16 675.54
00002237 00000008 783.45 174.46 416.60 660.90 1020.79 427.69 1178.31 443.24 1180.19 534.28 1043.08 670.52 1167.81 682.88
00002238 00000009 781.55 176.30 414.58 659.24 1016.71 426.37 1173.70 440.53 1174.87 532.98 1040.57 669.32 1165.58 680.15
00002239 00000010 782.03 176.86 411.33 656.43 1013.39 428.21 1170.73 441.74 1169.09 532.55 1034.42 666.87 1162.52 677.21
00002240 00000011 780.42 178.52 414.93 658.07 1013.49 428.87 1171.02 443.95 1168.80 535.72 1030.77 667.86 1158.13 679.69
00002241 00000012 781.17 185.10 414.62 655.17 1010.25 434.67 1168.85 448.54 1162.40 541.84 1021.08 670.26 1152.72 681.61
00002242 00000013 780.73 188.41 414.46 649.80 1004.24 433.50 1166.56 446.07 1155.82 541.16 1013.36 667.14 1150.27 677.38
00002243 00000014 777.29 188.14 417.21 649.43 999.57 425.71 1162.45 439.20 1151.91 535.60 1008.25 662.62 1147.47 673.87
00002244 00000015 774.13 186.25 417.50 649.82 990.24 417.31 1155.85 432.04 1143.57 526.45 1003.44 656.40 1144.42 668.26
00002245 00000016 772.99 178.89 415.09 645.67 988.42 409.05 1158.00 427.23 1142.93 520.39 1010.81 653.00 1146.06 667.29
00002246 00000017 775.92 176.28 409.92 638.55 990.49 409.38 1157.01 421.94 1144.89 518.81 1018.91 651.16 1149.86 660.85
00002247 DELETE   774.16 177.72 405.22 633.70 996.13 418.82 1148.66 426.90 1145.22 524.32 1025.35 651.32 1144.84 657.37
00002248 00000019 770.91 177.06 405.52 630.65 993.90 419.92 1146.11 427.85 1145.51 523.75 1024.81 649.94 1143.01 655.71
00002249 00000020 766.66 182.01 407.71 634.44 988.73 421.55 1143.97 433.53 1139.55 526.36 1019.29 654.31 1140.11 663.35
00002250 00000021 763.06 184.33 408.07 647.58 984.58 423.99 1139.54 442.27 1129.48 526.83 1010.80 655.79 1132.03 669.46
00002251 00000022 756.06 190.24 412.66 650.18 975.79 420.90 1134.20 444.36 1121.64 525.19 997.63 655.17 1124.35 672.53
00002252 00000023 752.05 189.03 412.80 643.63 965.42 419.71 1130.40 440.62 1118.24 526.19 990.99 652.41 1120.93 668.00
00002253 00000024 748.56 189.83 412.65 637.03 959.90 419.04 1128.99 441.88 1118.22 525.76 984.78 650.98 1118.64 668.50
00002254 00000025 745.05 189.17 415.75 635.07 955.35 419.67 1127.21 443.30 1113.27 525.27 980.17 648.29 1116.64 666.37
00002255 00000026 744.52 188.76 416.61 636.92 951.50 419.69 1123.42 443.43 1103.04 526.89 976.50 647.55 1110.73 665.33
00002256 00000027 745.10 192.52 413.66 634.71 949.47 419.02 1122.50 442.15 1102.75 530.09 969.42 650.18 1106.79 667.81
00002257 00000028 744.42 188.58 415.16 633.57 949.56 417.90 1123.94 444.78 1101.71 526.38 972.83 646.63 1108.75 667.18
00002258 00000029 744.85 186.92 414.20 628.49 950.65 415.86 1122.81 440.08 1101.07 524.51 979.04 646.18 1108.95 664.46
00002259 00000030 745.41 186.53 414.76 626.56 951.86 417.00 1122.93 439.77 1101.15 524.89 980.86 645.79 1109.41 662.76
00002260 00000031 743.92 186.31 413.51 624.12 950.48 415.20 1120.82 438.32 1098.87 524.50 980.43 644.91 1106.46 662.13
00002261 00000032 746.13 183.81 413.82 624.12 951.71 412.87 1122.44 434.85 1099.22 523.71 981.75 643.76 1107.65 660.14
00002262 00000033 752.77 180.64 410.68 625.71 956.36 409.27 1125.12 429.42 1102.24 519.95 988.46 643.51 1113.61 658.40
00002263 00000034 757.46 179.20 407.78 625.80 961.35 404.20 1126.01 420.80 1106.65 516.01 992.95 641.19 1116.49 653.52
00002264 00000035 763.28 173.00 407.62 631.92 968.69 402.25 1133.37 419.11 1112.87 514.36 996.62 640.03 1121.37 652.79
00002265 00000036 765.03 172.57 403.87 630.71 969.30 401.24 1134.08 418.25 1114.10 514.16 996.75 639.66 1121.23 652.56
00002266 00000037 765.59 172.61 403.59 632.27 970.59 402.65 1134.49 418.56 1114.41 515.28 996.61 639.57 1121.25 651.44
00002267 00000038 767.41 174.22 399.61 627.89 970.11 404.90 1135.82 422.70 1114.24 517.82 996.74 640.56 1121.06 654.23
00002268 00000039 766.33 176.15 400.63 627.95 965.20 407.44 1132.65 423.80 1107.84 519.75 989.64 639.82 1117.82 652.12
00002269 00000040 765.75 177.51 404.05 625.32 962.78 409.06 1133.24 423.05 1107.83 519.50 986.04 638.89 1119.49 649.17
00002270 00000041 764.56 177.23 405.57 627.32 960.79 408.59 1132.36 422.29 1106.23 519.73 983.00 638.54 1119.53 648.66
00002271 00000042 762.87 178.29 410.02 633.54 960.90 409.20 1133.66 423.45 1106.19 520.34 979.75 638.75 1119.75 649.17
00002272 00000043 764.10 179.84 409.22 641.54 961.48 407.27 1135.36 424.72 1109.79 521.07 974.94 643.59 1116.77 657.05
00002273 00000044 761.97 179.11 411.72 639.43 960.32 407.61 1134.83 427.29 1106.64 520.40 972.08 640.80 1114.65 656.13
00002274 00000045 757.07 173.63 415.64 631.97 959.86 406.10 1133.36 425.66 1107.03 516.78 971.30 632.34 1113.44 648.06
00002275 00000046 755.26 159.80 413.03 640.89 959.30 409.38 1127.02 424.17 1102.08 512.88 966.19 627.55 1109.13 639.57
00002276 00000047 755.32 158.08 411.08 639.38 956.80 409.07 1125.23 424.95 1098.21 513.99 965.07 627.02 1106.94 639.75
00002277 00000048 754.95 169.68 412.21 630.51 955.04 408.77 1128.83 428.11 1100.42 518.69 972.93 631.86 1111.44 646.89
00002278 00000049 761.49 172.30 412.04 628.29 958.56 410.98 1134.60 426.34 1103.39 523.77 978.47 636.00 1118.96 647.65
00002279 00000050 771.28 174.91 408.08 627.31 967.64 409.53 1144.54 422.60 1115.33 526.60 988.25 641.87 1128.33 652.01
00002280 00000051 779.48 176.26 412.95 624.23 977.79 409.66 1155.25 418.00 1126.87 526.92 996.76 642.71 1140.98 649.13
00002281 00000052 780.66 167.31 416.90 640.17 984.01 406.02 1159.29 415.51 1135.78 519.04 1001.11 640.95 1146.39 648.73
00002282 00000053 778.97 163.46 418.52 651.09 985.08 403.22 1157.87 414.77 1136.22 516.32 999.46 641.65 1144.95 651.27
00002283 00000054 778.56 162.42 420.95 648.64 988.44 401.97 1159.89 413.44 1137.93 515.71 1001.07 639.89 1146.18 649.48
00002284 00000055 779.91 161.99 420.93 646.10 990.95 403.60 1163.57 416.81 1141.80 516.58 1004.42 640.12 1149.02 651.09
00002285 00000056 785.65 157.77 417.39 642.28 998.89 405.81 1168.52 420.05 1148.98 515.22 1012.07 637.15 1153.19 649.05
00002286 00000057 793.26 157.13 416.93 640.80 1000.09 409.90 1168.37 420.74 1142.61 523.00 1023.39 637.66 1157.81 646.00
00002287 00000058 805.21 159.30 411.15 634.24 1006.72 410.63 1171.58 420.79 1146.68 521.97 1029.18 635.66 1160.24 643.51
00002288 00000059 809.79 159.19 411.02 635.20 1010.04 411.59 1173.72 422.60 1147.16 521.97 1034.01 637.82 1160.86 646.55
00002289 00000060 805.76 159.80 411.98 641.55 1007.73 412.56 1171.14 422.45 1147.07 520.91 1033.60 641.90 1158.88 649.92
00002290 00000061 798.26 163.05 413.41 644.17 1001.02 412.06 1165.65 422.10 1142.46 521.20 1027.97 643.70 1154.98 651.96
00002291 00000062 794.93 163.44 410.00 639.00 1005.83 407.99 1171.36 415.80 1156.43 514.26 1028.52 643.12 1162.12 649.54
00002292 00000063 787.50 160.66 412.92 646.12 1002.97 408.17 1169.32 417.30 1154.24 515.74 1025.34 644.99 1158.41 652.25
00002293 00000064 784.15 166.85 413.15 643.44 998.06 407.02 1165.11 416.92 1148.85 516.53 1021.36 646.40 1154.66 654.00
00002294 00000065 780.75 165.04 416.05 645.23 993.92 405.30 1161.11 415.67 1145.27 514.29 1017.78 644.54 1150.66 652.57
00002295 00000066 780.01 160.96 413.44 647.17 991.66 403.71 1158.26 413.52 1140.32 513.42 1013.05 642.18 1145.89 649.68
00002296 00000067 778.17 161.29 415.06 646.12 988.54 403.71 1156.07 413.02 1136.26 513.95 1009.69 642.10 1143.45 649.06
00002297 00000068 776.19 162.32 411.81 646.19 981.77 404.34 1151.76 412.10 1129.59 514.84 1004.22 643.16 1139.11 648.82
00002298 00000069 771.11 160.17 411.51 650.12 975.46 402.55 1145.10 410.42 1121.31 513.05 999.66 640.67 1134.79 645.91
00002299 00000070 763.60 159.61 413.57 653.38 967.18 401.73 1139.32 414.41 1114.79 512.85 991.01 639.71 1127.31 648.81
00002300 00000071 759.92 159.46 411.76 651.94 961.60 400.88 1134.18 414.98 1106.64 512.06 986.17 636.78 1121.86 646.57
00002301 00000072 755.33 161.38 411.33 657.27 954.47 401.67 1127.81 416.87 1098.11 512.82 980.41 640.17 1116.53 650.68
00002302 00000073 752.32 161.54 411.75 658.61 952.55 400.54 1126.07 417.22 1095.04 513.33 980.15 641.95 1113.26 653.46
00002303 00000074 754.95 158.89 411.11 661.38 954.56 402.41 1125.38 414.29 1097.98 512.32 987.09 643.69 1117.40 651.12
00002304 00000075 755.79 157.05 409.77 656.81 954.54 403.01 1124.67 411.58 1099.28 511.96 991.93 644.53 1118.84 649.59
00002305 00000076 755.54 155.67 409.08 650.77 954.64 399.11 1124.26 407.56 1098.30 509.16 991.85 640.03 1116.29 645.08
00002306 00000077 758.25 154.79 407.92 651.65 957.53 396.32 1127.00 409.14 1097.20 507.36 988.92 635.57 1113.63 644.20
00002307 00000078 759.95 147.26 406.62 661.30 956.71 398.72 1124.86 413.58 1096.69 502.56 975.34 628.04 1115.86 639.15
00002308 00000079 762.77 143.89 412.01 658.25 958.99 397.87 1132.90 409.58 1103.70 501.90 975.50 622.14 1127.84 630.57
00002309 00000080 765.48 138.94 412.22 660.15 965.19 395.77 1136.98 406.44 1111.31 498.81 978.96 618.80 1131.27 626.30
00002310 00000081 770.57 137.83 407.46 657.88 967.88 392.69 1138.39 404.10 1111.65 494.51 984.71 618.32 1131.82 626.46
00002311 00000082 774.79 137.15 403.04 659.20 973.07 390.08 1140.09 401.78 1114.14 491.12 994.37 622.34 1131.07 630.92
00002312 00000083 771.23 138.37 405.09 665.36 975.48 392.07 1137.81 402.94 1119.08 495.35 999.91 627.03 1128.37 635.16
00002313 00000084 775.91 134.90 404.29 667.87 971.31 391.71 1142.84 401.57 1117.01 497.36 992.80 627.53 1136.01 634.65
00002314 00000085 767.66 141.06 413.29 665.70 969.58 392.55 1140.42 399.04 1120.92 498.52 991.84 630.61 1131.71 635.24
00002315 00000086 769.36 141.79 414.82 661.07 964.16 394.03 1134.73 401.81 1112.89 498.18 981.07 624.40 1129.70 630.18
00002316 00000087 762.72 144.00 411.14 658.63 961.33 391.31 1124.89 403.22 1106.89 491.94 975.92 618.01 1118.67 626.97
00002317 00000088 756.57 158.94 412.26 647.59 955.27 390.29 1121.45 401.29 1103.03 493.98 972.73 618.31 1115.40 626.49
00002318 00000089 754.25 156.86 413.18 649.04 953.39 389.16 1120.54 401.65 1099.52 496.57 967.44 617.09 1110.93 626.55
00002319 00000090 748.36 164.42 417.35 642.66 944.61 391.43 1114.82 403.88 1088.80 501.93 957.86 619.28 1104.85 628.80
00002320 00000091 746.02 173.07 418.60 636.13 936.76 395.94 1108.75 409.44 1079.40 504.10 950.67 620.02 1101.89 629.75
00002321 00000092 739.51 175.85 419.86 633.38 931.42 397.92 1103.01 413.54 1069.65 508.91 944.57 618.10 1096.49 629.23
00002322 00000093 736.42 177.86 417.37 629.19 926.45 398.71 1098.60 414.92 1063.46 508.60 939.93 617.12 1091.63 628.49
00002323 00000094 732.27 159.91 417.42 650.18 927.88 399.68 1093.29 412.90 1068.63 509.67 934.97 622.33 1085.41 632.83
00002324 00000095 729.29 172.18 418.98 634.01 922.77 396.74 1095.54 415.66 1057.99 509.65 934.41 616.07 1083.39 629.68
00002325 00000096 725.69 154.27 418.40 655.08 923.79 395.52 1090.57 415.43 1061.49 509.21 927.96 619.49 1076.40 635.31
00002326 00000097 729.99 158.00 408.38 649.81 926.41 396.60 1097.44 410.87 1068.48 506.13 919.13 618.00 1079.22 630.97
00002327 00000098 731.79 157.50 402.41 650.45 925.58 397.38 1096.44 411.02 1067.50 505.16 920.44 618.44 1080.86 630.67
00002328 00000099 733.67 153.74 399.95 650.81 925.71 396.96 1098.09 410.80 1067.72 504.05 923.21 619.21 1082.70 631.54
00002329 00000100 736.83 154.87 403.54 640.37 929.76 400.69 1104.70 414.10 1071.05 506.37 937.99 625.75 1090.90 636.29
00002330 00000101 732.38 149.76 403.59 647.46 924.70 398.20 1097.06 418.36 1061.53 514.62 934.68 619.57 1081.03 634.96
00002331 00000102 733.81 153.01 403.06 651.37 929.30 393.75 1096.81 412.57 1066.62 509.70 940.81 620.29 1084.06 634.36
00002332 DELETE   738.98 154.04 405.21 653.28 940.00 380.97 1110.82 406.02 1079.88 496.24 957.15 617.88 1092.19 636.84
00002333 DELETE   748.50 139.99 401.66 653.48 946.66 371.81 1118.38 392.59 1098.22 488.92 966.15 612.46 1103.28 627.70
00002334 00000105 752.06 137.65 404.95 647.72 955.60 364.54 1125.87 384.23 1110.15 479.27 972.72 603.99 1110.19 618.78
00002335 DELETE   757.12 141.96 409.20 638.09 961.75 360.61 1133.26 381.63 1115.61 475.24 969.77 598.20 1113.76 614.62
00002336 DELETE   764.60 141.68 410.47 638.01 969.08 356.46 1141.67 378.71 1122.25 466.20 972.95 592.25 1125.09 610.07
00002337 DELETE   769.81 139.22 408.31 640.95 974.47 354.04 1148.13 376.35 1131.88 464.00 977.83 591.37 1133.07 609.39
00002338 00000109 779.64 135.57 411.15 643.64 984.10 352.30 1161.65 377.88 1135.60 464.42 986.65 590.52 1144.76 611.61
00002339 DELETE   784.64 130.99 415.58 646.39 996.46 352.27 1170.03 375.62 1147.64 463.79 997.64 589.86 1153.33 609.22
00002340 DELETE   791.03 128.38 417.83 648.64 1010.60 352.63 1178.98 377.55 1161.37 463.43 1010.90 591.58 1159.88 612.39
00002341 DELETE   790.46 126.28 425.58 653.25 1013.73 351.07 1184.44 385.19 1167.44 471.81 1012.56 583.63 1156.49 610.82
00002342 00000113 796.82 127.00 428.96 653.31 1021.50 353.06 1194.32 384.99 1176.95 475.20 1016.92 587.63 1162.60 613.34
00002343 00000114 800.60 128.52 426.86 651.21 1025.46 357.99 1197.25 385.53 1180.38 480.84 1020.45 590.37 1166.23 612.50
00002344 00000115 800.26 127.46 428.74 653.69 1028.84 362.51 1197.89 386.78 1184.57 485.70 1021.46 593.31 1166.88 613.07
00002345 00000116 800.39 127.03 428.32 657.32 1029.17 366.52 1196.52 387.18 1185.03 490.23 1021.01 596.30 1166.12 613.20
00002346 00000117 804.79 126.01 427.73 659.47 1029.09 370.25 1197.63 384.71 1187.57 493.84 1022.31 599.96 1170.21 611.85
00002347 00000118 808.64 124.01 427.78 660.83 1031.45 370.55 1201.56 384.92 1189.15 493.49 1025.76 600.89 1174.43 612.76
00002348 00000119 810.90 124.89 429.95 658.89 1034.63 368.24 1205.78 381.65 1191.89 493.39 1029.24 600.26 1179.92 611.37
00002349 00000120 810.24 124.94 433.08 662.58 1035.87 364.52 1207.16 377.97 1191.31 490.56 1032.82 601.03 1183.81 611.71
00002350 00000121 806.85 120.78 436.41 668.80 1033.62 358.95 1205.68 372.82 1190.64 483.00 1033.09 601.03 1184.02 611.75
00002351 00000122 808.27 113.76 433.35 671.52 1031.05 352.54 1207.55 369.20 1189.83 476.85 1040.90 601.31 1186.88 613.69
00002352 00000123 806.24 102.89 433.99 676.69 1030.23 342.32 1208.48 361.61 1187.61 466.14 1055.22 596.24 1193.42 609.46
00002353 00000124 809.68 94.91 431.49 673.63 1030.66 336.36 1210.12 352.37 1188.94 457.68 1065.11 592.66 1200.51 603.18
00002354 00000125 811.89 91.25 429.78 674.56 1032.38 331.13 1208.59 345.00 1190.86 450.43 1070.99 589.60 1205.07 598.48
00002355 00000126 809.03 93.16 430.39 670.08 1032.87 331.80 1206.93 347.15 1191.98 451.43 1071.25 588.63 1203.80 598.59
00002356 00000127 795.22 95.61 439.27 666.02 1029.57 335.90 1200.55 356.21 1187.34 454.80 1066.98 587.62 1194.68 601.64
00002357 00000128 785.78 97.02 441.81 669.45 1017.47 338.48 1191.42 361.50 1175.38 456.12 1055.81 587.05 1184.50 603.00
00002358 00000129 777.95 96.32 440.47 683.57 1008.37 338.62 1184.67 366.99 1166.51 458.41 1044.59 589.71 1176.51 609.87
00002359 00000130 777.44 95.40 432.24 676.70 1013.66 341.66 1182.31 355.35 1184.52 451.94 1048.72 602.40 1180.65 612.87
00002360 00000131 771.60 91.53 433.18 679.27 1010.04 341.07 1178.30 354.22 1180.26 451.14 1044.93 599.73 1176.55 609.58
00002361 00000132 770.36 89.92 431.90 677.72 1006.92 339.04 1175.87 351.28 1175.68 451.42 1040.33 596.58 1173.00 605.87
00002362 00000133 770.59 88.64 430.71 673.12 1007.76 340.79 1176.63 352.71 1176.65 452.90 1039.00 594.17 1171.47 603.36
00002363 00000134 771.57 86.89 431.68 673.80 1009.91 344.68 1180.40 358.11 1177.51 453.67 1037.83 594.29 1171.86 604.77
00002364 00000135 770.01 82.84 434.59 679.70 1010.22 345.19 1180.56 359.18 1176.46 457.11 1035.36 594.66 1169.88 605.56
00002365 00000136 767.57 83.72 440.75 682.81 1009.12 343.64 1181.74 358.77 1176.07 457.58 1035.48 597.93 1169.88 609.82
00002366 00000137 763.67 84.11 444.62 690.09 1007.02 342.14 1180.58 357.84 1170.05 462.03 1029.73 600.68 1164.69 613.28
00002367 00000138 760.23 84.44 444.51 691.09 1006.16 342.43 1178.13 360.12 1167.16 463.74 1024.13 598.70 1159.91 612.87
00002368 00000139 758.66 84.06 443.01 692.57 1004.47 342.94 1177.04 360.75 1164.24 465.80 1021.87 600.13 1157.47 614.22
00002369 00000140 756.59 88.37 443.91 691.02 1000.10 346.18 1175.26 365.50 1157.75 470.83 1019.35 604.42 1154.43 619.56
00002370 00000141 750.66 89.34 449.25 694.97 995.90 349.55 1174.18 369.27 1152.79 475.44 1013.46 606.65 1150.92 621.92
00002371 00000142 745.64 91.18 451.56 696.49 992.84 354.80 1169.93 371.59 1150.69 480.00 1011.34 609.22 1148.56 621.88
00002372 00000143 740.53 96.91 450.14 690.39 986.38 355.50 1161.50 368.36 1145.24 481.00 1006.04 610.54 1141.69 620.01
00002373 00000144 728.45 95.04 455.09 696.07 980.91 354.03 1151.88 366.00 1142.03 479.75 1001.27 610.86 1134.06 619.23
00002374 00000145 721.67 95.99 456.58 695.10 975.63 351.70 1147.02 368.93 1135.23 478.17 994.53 608.06 1128.95 620.30
00002375 00000146 716.60 95.36 457.74 696.59 972.38 349.42 1142.42 367.48 1132.48 476.15 990.24 604.99 1125.23 617.88
00002376 00000147 718.75 93.97 455.29 695.72 973.01 346.10 1143.13 366.44 1133.36 472.17 985.84 600.50 1122.89 615.82
00002377 00000148 726.14 89.52 453.29 695.03 976.10 342.13 1150.56 363.46 1135.38 468.75 987.66 597.68 1127.23 614.07
00002378 00000149 731.71 87.89 450.03 696.02 980.76 340.22 1155.05 361.77 1138.69 469.89 986.57 595.36 1127.61 612.29
00002379 00000150 739.72 92.19 447.60 695.42 987.14 341.68 1162.06 366.53 1143.02 472.06 988.97 597.21 1131.97 617.06
00002380 00000151 747.07 93.97 448.90 695.67 994.47 343.29 1169.23 367.14 1149.33 475.04 992.53 599.80 1137.13 619.52
00002381 00000152 752.55 101.88 447.05 692.99 1006.13 352.25 1176.82 380.05 1157.38 486.17 997.16 603.71 1141.98 627.09
00002382 00000153 760.31 107.82 448.17 689.82 1015.18 357.46 1186.83 386.34 1165.85 493.09 1003.16 610.13 1147.83 634.74
00002383 00000154 765.77 99.27 458.06 699.57 1017.42 354.60 1186.41 386.79 1174.10 493.37 1005.09 606.62 1144.39 635.07
00002384 00000155 766.52 103.25 454.98 695.05 1024.74 356.67 1191.27 393.55 1175.22 499.42 1005.78 602.84 1144.89 632.93
00002385 00000156 772.93 100.47 452.06 694.91 1028.20 355.64 1197.61 390.31 1177.36 495.48 1013.44 599.85 1154.01 627.63
00002386 00000157 776.51 101.92 453.82 695.25 1032.80 354.41 1199.80 382.87 1186.40 492.63 1021.06 601.90 1160.47 624.53
00002387 00000158 779.63 105.01 455.13 691.34 1035.78 354.20 1202.91 382.37 1190.33 491.29 1025.22 602.09 1165.44 624.57
00002388 00000159 780.84 106.91 454.68 689.62 1037.09 357.00 1202.04 382.47 1193.00 491.24 1026.84 602.83 1166.53 623.25
00002389 00000160 780.76 107.96 455.06 687.38 1036.69 356.26 1201.61 379.92 1194.29 489.20 1027.34 601.46 1167.72 620.26
00002390 00000161 780.03 104.83 452.96 690.51 1036.93 359.23 1197.74 381.26 1193.57 492.10 1026.48 603.06 1163.57 620.79
00002391 00000162 776.97 104.18 445.33 689.19 1027.16 364.05 1189.43 389.01 1182.03 494.04 1018.47 601.82 1156.10 621.56
00002392 00000163 777.05 100.13 444.46 689.60 1019.89 363.17 1185.73 382.39 1180.34 486.08 1019.20 604.21 1157.45 621.81
00002393 00000164 774.17 112.58 430.32 673.64 1018.17 369.36 1180.58 380.71 1178.32 486.23 1022.37 612.97 1160.21 622.75
00002394 00000165 768.99 112.55 432.51 678.35 1013.87 372.04 1177.67 383.07 1175.63 486.99 1019.14 615.21 1158.90 624.46
