Video ID: 	w_dSsBuufHk
H: 	1080
W: 	1920
FPS: 	25.0

FRAME INDEX X0 Y0 W H [Landmarks (5 Points)]

00014835 00000000 547.69 171.31 371.14 532.15 683.88 372.23 844.84 388.54 781.42 475.42 684.77 558.63 825.36 573.52
00014836 00000001 548.27 169.18 372.13 533.10 692.87 369.54 847.97 390.49 786.55 476.11 690.12 555.13 822.78 573.08
00014837 00000002 552.32 169.02 369.01 530.28 698.63 367.82 851.42 387.60 790.86 474.29 695.27 553.14 826.35 570.09
00014838 00000003 554.68 165.32 368.31 533.24 699.40 362.79 851.11 380.58 792.52 467.76 699.32 548.15 830.00 563.57
00014839 00000004 551.27 162.39 373.82 540.57 693.08 356.02 847.56 374.75 787.01 461.20 691.78 542.42 827.79 558.50
00014840 00000005 546.05 163.13 375.96 542.03 684.01 354.02 839.21 371.90 778.04 455.43 681.96 536.87 825.13 551.88
00014841 00000006 545.18 165.10 370.40 537.80 675.98 361.75 833.83 365.25 776.80 455.10 674.85 536.03 832.99 540.09
00014842 00000007 542.13 164.87 367.62 527.64 664.35 359.02 824.78 358.32 768.37 450.78 670.75 530.54 829.38 531.18
00014843 00000008 537.32 164.14 367.40 519.47 653.42 358.01 818.13 351.47 760.71 444.86 667.16 528.56 827.12 524.06
00014844 DELETE   530.00 160.92 367.21 517.47 642.64 357.42 810.59 349.99 750.94 437.76 662.74 528.77 820.91 523.42
00014845 00000010 522.77 157.35 366.18 521.86 632.48 358.29 797.87 348.12 738.41 432.88 657.60 532.02 809.96 524.07
00014846 00000011 518.02 156.63 369.20 527.92 622.65 358.39 789.36 344.70 723.88 431.74 653.38 542.11 795.77 531.56
00014847 00000012 516.49 165.66 368.12 518.56 616.36 358.78 777.94 344.23 708.34 434.23 646.45 543.93 777.01 533.72
00014848 00000013 516.82 166.35 366.49 512.25 612.99 358.82 772.64 346.40 701.61 436.28 642.14 541.03 770.29 533.38
00014849 00000014 520.78 160.87 366.31 514.99 613.80 359.95 775.47 347.30 702.47 438.71 641.70 542.43 772.13 534.66
00014850 00000015 526.29 154.70 368.05 519.70 618.08 360.07 784.61 350.08 707.40 442.06 644.58 545.17 782.73 538.28
00014851 00000016 532.67 154.97 366.74 523.47 623.99 365.79 791.10 355.00 716.85 447.53 654.11 551.51 794.20 543.69
00014852 00000017 537.39 158.60 369.36 529.53 630.11 372.75 799.48 362.18 723.86 456.75 661.07 561.22 805.13 553.05
00014853 00000018 540.74 160.41 370.23 533.75 636.39 377.13 805.67 372.16 729.60 465.60 660.97 562.78 809.49 559.74
00014854 00000019 541.50 163.93 372.75 538.35 640.59 380.56 807.45 378.51 733.17 471.73 661.59 563.38 811.61 562.64
00014855 00000020 540.60 171.34 376.73 539.48 642.25 383.84 807.53 382.07 733.32 476.75 661.30 565.51 812.74 564.77
00014856 00000021 538.89 178.52 379.21 543.05 644.93 385.45 805.17 384.97 732.13 480.07 662.67 569.25 807.96 569.12
00014857 00000022 534.78 180.94 380.65 548.47 644.50 387.65 801.92 388.54 729.05 484.99 658.95 570.88 805.23 572.14
00014858 00000023 529.44 178.41 379.81 546.39 635.48 389.88 795.65 390.50 720.58 488.73 650.78 572.37 797.58 573.54
00014859 00000024 525.28 180.85 378.21 536.19 626.37 393.61 790.57 392.90 709.39 492.41 642.64 574.81 788.20 574.91
00014860 00000025 520.62 181.14 378.11 535.33 621.14 397.28 784.44 395.52 703.29 496.08 639.99 579.99 779.63 579.16
00014861 00000026 518.24 185.24 377.54 533.96 618.42 398.76 780.04 397.33 699.62 499.80 638.26 582.99 774.45 582.69
00014862 00000027 515.71 184.86 377.26 534.63 617.58 398.51 778.88 396.41 701.07 499.22 639.66 584.51 773.17 583.64
00014863 00000028 514.52 183.89 376.49 533.18 615.62 396.06 776.39 392.38 700.28 494.81 640.22 583.51 771.38 581.21
00014864 00000029 513.84 188.07 375.93 526.41 613.26 394.15 771.50 388.71 696.69 491.18 639.54 580.67 768.82 577.02
00014865 00000030 511.12 187.31 378.31 528.69 610.75 393.31 768.45 385.90 694.64 488.02 636.65 578.44 769.28 573.16
00014866 00000031 511.57 186.59 377.67 529.43 611.81 393.28 767.06 385.17 695.40 486.61 638.18 577.29 769.17 571.45
00014867 00000032 512.22 186.02 376.30 528.36 613.58 393.62 770.22 385.53 698.61 488.65 638.90 577.03 771.84 571.19
00014868 00000033 514.08 188.40 374.45 524.26 614.83 393.98 775.33 387.51 702.08 489.95 639.56 577.19 776.08 572.70
00014869 00000034 513.84 190.37 375.08 524.42 615.55 396.02 775.40 389.13 703.12 494.11 640.36 578.52 776.32 573.62
00014870 00000035 513.05 190.84 375.55 528.98 615.41 396.76 774.83 391.97 701.85 495.84 636.99 579.17 774.47 576.15
00014871 00000036 513.55 193.11 374.67 535.13 616.05 397.96 775.03 393.92 701.52 497.83 635.63 582.32 774.62 580.19
00014872 00000037 513.79 192.82 374.69 536.90 616.57 398.45 775.35 396.10 700.38 498.72 634.62 582.18 773.58 581.46
00014873 00000038 513.91 190.52 374.87 537.83 616.31 397.12 775.36 393.93 700.83 496.34 634.39 581.38 773.85 580.03
00014874 00000039 514.00 189.64 373.71 528.22 615.85 394.56 775.78 391.30 701.72 491.99 635.01 576.54 774.54 574.90
00014875 00000040 514.24 187.74 373.05 522.36 615.37 394.01 774.89 390.27 700.54 488.09 634.52 571.51 775.71 569.57
00014876 00000041 513.78 184.93 371.89 523.91 614.97 393.61 773.60 389.63 700.14 487.34 635.20 570.86 775.33 568.59
00014877 00000042 511.64 186.82 374.71 527.13 614.82 392.98 773.62 389.21 700.07 488.06 635.59 573.23 774.29 571.00
00014878 00000043 511.43 186.76 374.65 530.53 614.29 393.01 774.93 389.46 700.75 490.43 637.45 578.80 773.61 576.63
00014879 00000044 510.92 188.50 374.44 531.28 612.80 393.00 774.99 390.33 698.92 491.92 635.34 580.56 772.68 579.13
00014880 00000045 509.94 189.63 374.64 533.71 612.52 392.77 772.80 389.42 698.61 492.42 634.86 580.84 770.88 578.91
00014881 00000046 508.72 190.12 375.30 538.27 612.45 393.61 770.18 389.98 698.29 493.49 635.16 583.10 769.25 580.93
00014882 00000047 507.86 189.23 375.06 539.18 610.96 393.05 769.78 389.90 697.33 492.71 632.65 582.36 768.72 580.64
00014883 00000048 507.15 187.46 374.56 535.30 608.93 392.58 769.12 388.85 695.33 491.63 631.84 581.18 767.89 578.82
00014884 00000049 505.87 188.99 373.96 527.78 608.95 391.66 769.18 388.70 695.10 488.93 632.02 577.93 766.68 576.30
00014885 00000050 505.53 187.65 372.67 525.54 607.48 391.11 767.25 388.53 692.55 487.74 630.98 575.66 765.90 574.47
00014886 00000051 504.33 187.38 372.89 525.64 606.88 391.08 766.61 388.82 692.67 487.13 629.57 574.31 766.60 573.35
00014887 00000052 501.81 184.06 374.01 528.63 604.76 389.76 765.77 387.85 691.42 486.25 627.82 574.82 764.16 574.13
00014888 00000053 499.88 184.83 373.83 525.64 602.67 389.80 765.00 387.70 689.81 486.77 626.18 575.77 762.50 575.06
00014889 00000054 498.27 183.58 374.03 524.49 601.85 390.19 764.55 388.03 689.81 486.28 626.16 577.07 761.48 576.25
00014890 00000055 496.81 182.10 373.99 525.46 601.39 389.57 763.54 387.23 690.26 485.48 627.50 577.92 760.34 576.82
00014891 00000056 495.35 183.17 374.29 523.64 600.26 389.12 763.02 386.41 690.30 484.92 627.21 578.16 760.47 576.70
00014892 00000057 494.23 179.64 374.86 526.43 599.70 387.91 762.13 385.73 690.45 483.11 627.00 577.05 759.15 575.89
00014893 00000058 493.69 178.43 375.02 526.72 599.61 386.53 762.17 384.83 690.55 481.44 627.46 576.06 758.95 575.30
00014894 00000059 492.48 177.07 375.42 527.77 598.38 385.89 761.98 383.67 690.42 480.28 626.76 575.74 759.17 574.53
00014895 00000060 491.48 176.50 376.16 528.15 598.30 384.21 762.21 382.28 690.76 477.66 626.25 574.16 759.59 573.15
00014896 00000061 489.64 175.21 378.17 529.88 597.86 381.83 762.03 379.91 691.40 473.78 628.06 572.54 760.29 571.48
00014897 00000062 489.39 172.19 377.87 535.32 598.69 378.44 761.24 377.60 691.69 469.05 629.16 571.14 759.25 570.99
00014898 00000063 488.00 170.09 377.93 538.33 598.34 375.32 760.44 375.09 691.60 465.33 629.86 570.23 756.91 570.53
00014899 00000064 486.64 168.50 378.49 539.37 598.33 373.64 760.75 373.16 692.72 463.10 630.23 568.97 758.18 569.00
00014900 00000065 485.09 168.58 379.32 535.82 598.03 372.81 761.01 372.01 693.27 462.41 629.55 566.26 758.53 566.13
00014901 00000066 485.13 167.51 378.13 534.74 598.25 371.70 761.73 370.12 694.49 460.40 630.05 564.61 759.89 563.82
00014902 00000067 486.18 167.26 376.44 533.83 599.46 369.84 762.77 367.41 696.82 459.00 631.66 563.65 761.04 562.12
00014903 00000068 486.47 166.87 375.73 532.93 601.38 369.23 763.52 366.32 699.34 457.57 634.08 562.88 761.66 560.96
00014904 00000069 486.39 164.38 374.67 534.06 601.20 368.19 763.97 364.81 700.41 456.12 634.14 561.99 761.97 559.72
00014905 00000070 485.24 164.18 375.06 532.99 601.11 367.85 763.97 363.90 700.99 455.20 634.67 561.35 761.79 558.53
00014906 00000071 484.04 163.74 374.83 531.58 599.67 367.82 762.50 362.70 700.09 454.52 634.16 560.53 761.19 556.78
00014907 00000072 482.39 163.11 375.85 529.92 599.08 369.22 762.30 363.34 700.28 454.24 633.90 559.46 762.07 554.95
00014908 00000073 480.33 163.95 376.44 528.92 596.93 371.07 759.81 365.23 698.45 455.88 631.34 559.46 761.24 555.01
00014909 00000074 479.17 166.43 376.25 526.87 595.11 372.56 758.22 367.21 696.07 457.16 627.91 559.76 761.01 555.79
00014910 00000075 477.29 168.11 377.76 525.45 592.83 372.75 757.37 368.01 694.49 457.93 623.80 559.20 760.98 555.69
00014911 00000076 476.53 169.12 373.39 519.26 581.81 379.64 753.95 364.47 687.29 459.25 612.62 561.38 762.07 549.46
00014912 00000077 475.19 169.18 372.72 522.60 579.50 379.86 749.51 365.67 682.41 458.47 607.88 559.53 759.07 548.36
00014913 00000078 472.21 167.94 374.20 525.74 576.39 381.05 746.05 367.41 678.75 459.69 603.00 558.82 757.06 547.92
00014914 00000079 470.09 168.81 375.94 526.64 572.79 381.83 740.58 367.21 673.12 459.05 600.98 558.73 754.14 546.87
00014915 00000080 467.59 169.43 377.49 530.80 570.66 383.05 737.04 369.87 669.83 461.03 598.67 560.04 751.66 549.25
00014916 00000081 465.17 170.28 380.88 534.57 568.28 384.21 734.61 370.25 667.89 464.23 597.74 563.01 750.76 551.39
00014917 00000082 463.90 171.30 382.12 537.62 567.73 384.29 733.70 370.85 666.26 465.60 597.17 565.01 749.32 553.82
00014918 00000083 463.46 171.14 383.34 542.52 568.49 384.36 734.01 370.51 667.52 466.24 599.59 567.27 750.44 555.67
00014919 00000084 463.11 171.90 384.04 544.38 568.48 385.05 734.74 369.25 668.44 466.72 601.35 569.17 752.79 555.91
00014920 00000085 462.02 171.97 385.19 544.60 568.10 385.20 733.77 368.95 668.56 466.94 601.76 569.23 752.59 555.53
00014921 00000086 462.03 171.46 384.95 545.14 567.02 386.00 732.89 369.66 667.13 468.25 599.54 568.40 752.79 554.65
00014922 00000087 461.83 172.17 383.17 539.33 566.58 385.68 730.61 369.43 666.14 469.06 598.13 566.29 749.41 552.58
00014923 00000088 460.65 172.19 383.26 535.68 564.91 387.09 729.46 370.63 664.61 470.76 595.71 565.50 748.21 551.70
00014924 00000089 460.05 172.84 382.99 532.62 563.71 388.37 728.77 371.77 663.50 471.43 593.87 564.63 748.10 550.82
00014925 00000090 461.49 173.29 380.47 527.74 562.76 389.62 729.29 372.79 661.95 471.94 591.84 563.28 748.13 549.47
00014926 00000091 462.13 172.41 378.51 524.35 561.96 389.96 730.10 372.63 661.19 471.59 592.03 564.30 747.75 550.16
00014927 00000092 462.17 172.23 377.57 521.87 562.22 390.34 730.92 374.06 661.47 472.74 590.57 562.97 747.69 549.88
00014928 00000093 462.36 172.78 377.69 521.35 563.13 390.30 730.76 374.72 662.07 473.80 590.03 561.36 747.48 548.96
00014929 00000094 462.58 173.21 377.43 521.30 563.72 390.42 730.57 375.00 662.59 474.96 590.13 560.93 747.51 548.77
00014930 00000095 463.82 173.37 376.41 520.40 564.25 390.53 732.07 374.79 662.92 475.31 591.23 562.00 748.22 549.61
00014931 00000096 464.84 174.50 376.76 521.04 565.92 391.01 732.98 375.21 664.32 475.06 594.02 563.51 748.38 551.00
00014932 00000097 465.17 175.37 378.40 522.41 569.12 390.57 733.08 374.26 667.92 474.14 598.96 563.43 748.95 550.46
00014933 00000098 465.04 174.57 380.65 524.11 570.28 388.91 731.66 373.27 668.02 473.14 598.44 559.35 748.56 547.03
00014934 00000099 467.11 175.16 378.32 522.69 571.00 386.86 733.79 371.25 669.79 470.21 597.52 554.17 753.20 542.08
00014935 00000100 469.10 175.90 378.82 519.20 573.15 385.41 739.44 369.18 673.12 469.13 598.25 551.44 757.85 538.99
00014936 00000101 472.62 175.81 377.18 517.32 576.78 383.92 744.33 367.48 679.07 468.61 601.69 548.88 762.09 536.51
00014937 00000102 475.29 177.61 376.42 513.70 579.24 381.70 749.08 365.37 682.39 467.80 603.72 547.67 765.86 535.54
00014938 00000103 471.79 166.53 382.53 522.23 587.48 380.32 757.40 371.89 685.30 467.86 607.17 541.36 770.40 533.86
00014939 00000104 475.85 168.24 381.08 520.55 592.20 381.02 761.05 374.49 688.61 465.70 609.55 540.07 771.02 534.43
00014940 00000105 484.66 173.85 378.94 517.73 598.61 380.03 760.79 376.09 693.41 462.41 616.63 542.00 770.36 540.14
00014941 00000106 483.34 174.42 376.26 516.52 599.11 384.88 763.04 380.65 692.25 461.76 613.44 538.57 773.55 534.67
00014942 00000107 489.45 175.49 376.01 518.51 603.90 383.55 761.09 380.50 696.50 461.47 622.03 542.80 771.58 542.05
00014943 00000108 491.56 176.76 376.71 516.23 604.51 381.58 761.97 379.12 695.94 459.22 622.80 542.26 771.49 541.78
00014944 00000109 492.21 173.53 376.90 518.33 602.67 376.19 763.43 375.05 694.30 456.43 620.40 539.49 772.51 539.76
00014945 00000110 492.28 170.75 377.54 519.89 602.78 372.43 764.36 371.84 694.15 455.82 619.86 538.15 770.49 538.72
00014946 00000111 491.85 168.12 376.81 520.30 602.47 369.37 764.37 369.39 694.09 455.80 618.92 537.17 768.43 538.48
00014947 00000112 492.24 165.94 376.04 520.22 602.53 364.39 764.53 364.33 693.97 453.73 622.98 538.25 765.26 538.91
00014948 00000113 493.05 164.06 375.39 523.70 603.60 359.68 762.97 361.12 692.59 448.37 626.08 539.16 758.39 540.92
00014949 00000114 493.88 160.54 374.08 529.88 603.18 355.71 763.45 358.07 691.70 446.03 626.24 541.21 754.42 543.73
00014950 00000115 494.44 161.46 373.39 527.67 605.43 355.14 766.07 358.74 693.59 443.57 625.63 539.86 754.76 543.66
00014951 00000116 496.80 159.12 370.80 524.34 607.99 352.99 768.46 356.55 697.30 442.24 625.23 536.24 757.62 540.07
00014952 00000117 498.44 159.76 370.27 518.45 611.37 352.75 772.88 356.30 701.31 443.03 626.08 533.77 762.10 537.73
00014953 00000118 500.74 158.91 368.65 515.39 614.88 352.14 777.79 358.63 705.49 443.79 627.53 531.14 768.02 537.66
00014954 00000119 502.72 158.99 368.79 515.25 618.04 350.04 782.68 358.51 708.73 441.78 629.14 530.40 769.02 538.57
00014955 00000120 506.15 156.34 367.76 520.48 624.90 348.00 788.20 358.55 715.96 439.79 636.40 533.41 766.80 543.56
00014956 00000121 507.96 156.55 372.23 520.96 630.12 345.92 794.65 359.02 721.65 436.83 640.21 533.06 769.51 545.03
00014957 00000122 510.59 155.08 374.55 521.61 634.57 344.80 800.04 361.69 726.21 437.30 644.04 532.39 775.66 547.04
00014958 00000123 512.45 153.24 373.49 521.91 637.13 344.43 804.96 363.67 731.74 436.68 645.85 532.46 778.49 549.06
00014959 00000124 515.49 153.51 372.57 522.88 641.02 345.27 808.99 365.85 737.38 436.57 647.42 531.72 784.33 549.33
00014960 00000125 516.82 152.94 372.30 524.13 643.62 345.00 810.24 366.30 739.26 437.54 648.15 531.58 784.92 549.82
00014961 00000126 516.87 152.48 372.65 525.88 645.00 345.06 810.59 367.43 740.00 438.11 648.27 531.02 786.28 550.06
00014962 00000127 517.11 152.62 372.63 524.49 643.39 346.43 810.21 368.23 739.65 439.28 647.66 530.70 787.59 549.43
00014963 00000128 517.47 153.59 372.53 523.40 643.75 346.90 809.13 368.67 738.66 439.78 647.65 530.91 785.78 549.70
00014964 00000129 518.04 154.56 371.96 524.27 643.57 346.65 808.70 367.80 737.30 439.67 647.03 531.64 784.82 550.00
00014965 00000130 517.78 152.93 372.12 527.59 642.78 346.46 808.18 367.54 736.54 439.78 646.16 532.12 784.07 550.45
00014966 00000131 517.51 154.10 370.83 526.78 641.75 347.39 807.31 367.49 736.10 439.74 646.33 534.29 782.96 551.79
00014967 00000132 516.71 154.27 371.10 528.28 639.38 348.37 806.31 368.90 733.99 441.31 644.55 535.53 782.97 553.38
00014968 00000133 515.72 155.58 371.60 528.65 638.38 349.54 805.05 369.74 732.27 442.67 644.54 536.62 782.17 553.87
00014969 00000134 515.71 157.48 371.93 532.23 638.15 351.09 803.77 369.19 731.20 443.42 644.29 540.29 781.67 555.80
00014970 00000135 514.37 158.52 371.61 532.98 636.95 352.91 801.44 371.66 729.05 445.18 642.73 540.50 780.24 556.54
00014971 00000136 513.67 159.00 372.34 534.08 636.25 353.77 800.93 372.61 728.12 446.80 641.54 540.79 780.15 556.88
00014972 00000137 512.52 160.26 372.61 534.68 635.68 355.58 800.36 373.59 728.24 448.31 641.63 542.59 779.71 558.05
00014973 00000138 511.51 162.11 372.55 538.74 635.99 356.97 798.50 374.75 726.86 450.83 641.01 545.52 777.25 561.03
00014974 00000139 509.67 161.57 373.07 544.08 635.18 358.24 797.27 376.32 726.03 452.97 639.06 548.21 776.55 563.96
00014975 00000140 507.90 162.14 372.83 540.25 632.91 361.12 795.35 378.68 724.28 453.76 637.47 547.99 776.90 563.22
00014976 00000141 508.19 163.07 370.55 532.46 629.84 364.17 793.44 379.72 721.83 454.95 636.71 546.81 777.69 560.54
00014977 00000142 507.26 163.12 370.30 530.55 628.57 365.51 791.15 380.10 719.96 455.40 637.54 546.63 776.82 559.65
00014978 00000143 505.47 166.25 368.59 527.78 626.04 367.63 786.63 379.85 716.69 454.20 638.47 548.56 773.33 559.87
00014979 00000144 501.35 168.35 369.69 523.52 622.91 370.45 782.86 382.66 713.40 455.35 633.03 546.22 773.68 557.63
00014980 00000145 499.31 169.91 369.05 524.90 620.65 371.87 779.28 382.95 710.54 456.34 631.00 548.04 769.56 558.33
00014981 00000146 495.61 169.20 370.95 531.58 617.93 373.06 777.44 382.36 708.67 459.37 631.12 554.65 766.08 563.41
00014982 00000147 491.95 171.43 372.31 530.24 613.57 374.61 774.41 382.72 705.22 462.95 629.06 558.26 761.89 566.02
00014983 00000148 489.34 172.10 373.00 529.96 610.28 376.37 772.41 383.63 703.09 466.02 627.92 561.22 760.13 568.23
00014984 00000149 486.56 172.81 373.76 528.81 607.22 378.52 770.05 384.55 701.56 467.94 626.41 562.97 760.55 568.80
00014985 00000150 484.37 174.59 371.58 524.75 604.33 380.35 767.26 385.55 700.15 469.95 623.42 563.77 760.56 568.79
00014986 00000151 481.99 176.44 372.07 522.07 601.42 381.12 765.11 385.62 697.75 470.92 621.36 563.68 759.56 568.04
00014987 00000152 480.51 177.05 370.22 517.09 592.86 385.15 763.91 382.16 692.51 473.25 616.12 567.57 759.78 566.62
00014988 00000153 477.49 178.37 373.02 519.39 589.96 386.07 761.06 382.01 689.76 473.81 614.24 568.66 758.75 566.50
00014989 00000154 475.97 178.29 374.25 520.68 588.44 386.61 758.34 382.05 687.30 472.33 613.23 568.60 756.63 565.85
00014990 00000155 474.07 178.79 376.75 525.77 587.37 386.26 755.84 382.39 686.20 473.27 610.80 568.33 755.37 566.06
00014991 00000156 471.89 179.66 378.75 532.23 586.62 387.22 753.90 384.12 686.33 476.35 606.32 565.44 757.08 563.96
00014992 00000157 470.03 179.91 381.41 540.32 585.76 388.11 752.08 386.36 685.36 478.90 605.43 568.43 755.64 567.99
00014993 00000158 469.40 175.92 384.55 549.81 586.49 381.53 750.97 389.11 681.55 476.52 608.73 568.58 752.85 575.06
00014994 00000159 467.95 173.70 384.91 555.50 585.31 383.69 749.06 390.69 680.92 479.69 608.93 572.71 752.00 578.64
00014995 00000160 469.20 180.27 380.14 542.00 582.54 392.53 749.30 390.55 679.09 484.51 604.16 576.96 749.82 576.24
00014996 00000161 470.28 180.03 378.48 533.15 580.30 393.19 749.51 390.65 677.03 486.10 603.31 576.83 748.91 575.75
00014997 00000162 470.79 181.02 376.43 526.46 579.66 393.83 747.71 390.86 674.94 485.11 605.68 577.89 745.48 576.19
00014998 00000163 471.06 179.91 375.32 525.87 578.87 395.54 745.92 391.82 673.97 485.00 605.16 576.73 745.67 574.61
00014999 00000164 470.53 180.60 376.09 525.61 577.74 396.39 744.15 392.99 671.81 485.91 601.89 573.87 745.80 572.04
CROP_BBOX: 288 0 1096 845
