Video ID: 	OI5Jx3h5wEU
H: 	1080
W: 	1920
FPS: 	60.0

FRAME INDEX X0 Y0 W H [Landmarks (5 Points)]

00088178 00000000 782.68 164.42 355.02 527.63 902.74 342.17 1058.34 342.84 1009.31 422.50 927.92 531.89 1061.41 533.42
00088179 00000001 783.10 164.84 355.00 527.04 903.07 342.55 1058.01 343.18 1008.92 422.61 927.98 531.60 1061.20 533.17
00088180 DELETE   787.65 160.85 355.03 530.83 909.08 346.97 1061.03 341.65 1015.58 420.16 942.77 539.29 1064.08 535.79
00088181 00000003 787.65 160.82 354.97 530.86 909.09 346.98 1061.03 341.68 1015.74 420.18 942.79 539.32 1064.13 535.82
00088182 DELETE   787.59 160.69 355.02 530.97 909.06 346.96 1061.04 341.64 1015.74 420.15 942.75 539.35 1064.12 535.84
00088183 00000005 790.37 153.53 356.03 533.87 912.98 348.34 1062.43 340.65 1017.81 421.71 955.35 545.09 1060.89 539.32
00088184 00000006 789.64 153.09 356.71 534.25 912.94 348.33 1062.23 340.71 1017.91 421.91 955.48 545.04 1060.74 539.25
00088185 00000007 792.18 152.06 358.03 537.66 915.00 348.89 1063.38 338.98 1018.76 422.38 959.29 547.86 1063.14 540.32
00088186 DELETE   792.04 151.88 358.06 537.76 914.96 348.89 1063.37 339.00 1018.79 422.39 959.24 547.82 1063.10 540.28
00088187 00000009 792.30 151.96 358.02 537.45 915.03 348.72 1063.31 338.73 1018.93 422.25 959.66 547.64 1063.16 540.00
00088188 DELETE   793.89 152.47 359.92 538.34 915.25 349.09 1064.83 338.26 1020.05 425.17 960.22 552.31 1061.93 544.08
00088189 00000011 794.07 152.30 359.54 538.39 915.40 349.06 1064.71 338.32 1019.93 425.21 960.36 552.31 1061.68 544.19
00088190 00000012 794.85 151.36 360.76 542.44 915.90 352.28 1068.49 339.23 1021.97 431.01 958.30 553.74 1067.02 543.66
00088191 DELETE   795.25 151.58 360.34 541.66 916.06 352.39 1068.78 339.15 1022.34 430.68 958.49 553.54 1067.35 543.33
00088192 00000014 795.62 150.79 360.57 540.77 915.48 355.02 1071.76 341.64 1023.93 435.12 956.28 555.03 1070.33 544.48
00088193 00000015 795.67 150.60 360.52 540.95 915.34 355.07 1071.76 341.71 1023.81 435.28 956.13 555.05 1070.37 544.50
00088194 00000016 795.76 150.95 360.32 540.41 915.49 355.05 1071.79 341.66 1024.06 435.08 956.33 555.02 1070.44 544.47
00088195 00000017 795.06 148.52 360.65 541.29 913.90 358.28 1071.62 343.97 1023.54 440.62 953.81 556.22 1073.78 544.79
00088196 00000018 794.87 148.18 360.84 541.65 913.94 358.39 1071.81 344.06 1023.74 440.42 953.88 556.29 1073.98 544.83
00088197 00000019 792.41 145.67 362.21 541.86 912.55 361.40 1073.35 348.31 1025.16 446.04 948.66 555.45 1077.87 545.10
00088198 00000020 792.25 145.86 362.50 541.63 912.61 361.35 1073.33 348.49 1025.02 446.03 948.58 555.14 1077.74 544.93
00088199 00000021 791.87 145.63 362.75 541.72 912.32 361.66 1073.26 348.57 1024.80 445.93 948.48 555.18 1077.99 544.74
00088200 00000022 791.54 147.49 361.27 544.13 913.12 364.50 1074.21 353.41 1028.12 452.00 947.27 557.51 1079.16 548.76
00088201 00000023 791.75 147.25 361.12 544.35 913.06 364.54 1074.38 353.47 1027.93 452.26 947.17 557.69 1079.12 548.94
00088202 00000024 789.04 154.17 364.49 556.31 916.88 374.11 1076.12 371.70 1027.95 458.24 940.37 557.63 1081.80 557.01
00088203 00000025 787.94 153.49 366.30 557.32 916.63 373.97 1075.43 370.89 1028.29 458.62 940.35 557.88 1081.68 556.65
00088204 00000026 786.81 158.57 368.16 562.92 918.52 376.90 1078.45 376.33 1029.79 462.59 936.06 558.75 1084.25 559.39
00088205 00000027 786.85 158.56 368.20 563.13 918.67 376.72 1078.44 376.26 1029.91 462.60 936.11 558.73 1084.21 559.41
00088206 00000028 786.96 158.62 368.08 563.09 918.60 376.58 1078.25 376.09 1029.84 462.76 936.11 558.64 1084.25 559.25
00088207 00000029 785.99 161.38 371.08 569.81 918.61 383.24 1078.49 380.43 1031.91 468.98 934.79 561.00 1090.15 559.91
00088208 00000030 786.13 161.74 370.83 569.40 918.58 383.18 1078.61 380.50 1031.87 468.83 934.69 560.88 1090.22 559.93
00088209 00000031 784.73 164.58 373.49 573.77 918.94 387.80 1077.06 379.23 1035.25 475.40 934.20 564.58 1093.19 558.64
00088210 00000032 784.71 164.65 373.56 573.76 919.07 387.83 1077.09 379.27 1035.38 475.46 934.28 564.64 1093.13 558.73
00088211 00000033 784.56 164.24 373.68 574.31 918.78 387.82 1076.78 378.94 1035.53 475.37 934.37 564.81 1093.35 558.59
00088212 00000034 787.91 162.12 372.24 580.02 918.98 388.89 1074.45 376.69 1036.76 476.43 938.34 569.32 1095.40 559.55
00088213 00000035 787.82 161.99 372.19 580.21 918.80 388.91 1074.23 376.52 1036.63 476.57 938.39 569.44 1095.34 559.50
00088214 00000036 787.40 158.65 372.24 582.38 918.99 383.73 1073.91 368.61 1038.65 472.78 945.01 572.19 1094.45 559.67
00088215 00000037 786.77 158.61 372.90 582.68 918.82 384.09 1073.70 368.50 1038.66 472.76 945.11 572.53 1094.54 559.62
00088216 00000038 785.19 155.05 374.13 585.07 916.05 381.13 1073.22 365.34 1037.34 468.52 946.16 571.78 1094.92 558.24
00088217 00000039 784.84 154.88 374.20 585.22 915.81 381.06 1073.08 365.23 1037.21 468.49 946.06 571.94 1094.92 558.33
00088218 00000040 784.91 154.75 374.09 585.13 915.73 381.15 1073.06 365.12 1037.18 468.25 946.24 571.86 1094.95 558.07
00088219 00000041 783.53 152.84 374.20 579.36 911.58 381.91 1072.46 361.61 1036.38 466.98 947.69 572.94 1095.61 555.90
00088220 00000042 783.43 153.02 374.10 579.03 911.38 381.80 1072.43 361.42 1036.20 466.84 947.50 572.81 1095.79 555.71
00088221 00000043 780.13 150.33 376.33 569.57 907.35 382.69 1072.53 359.15 1033.80 465.40 948.39 573.00 1095.34 552.83
00088222 00000044 780.19 150.64 376.27 569.22 907.35 382.72 1072.60 359.22 1033.84 465.37 948.44 573.03 1095.43 552.87
00088223 00000045 780.14 150.61 376.54 569.36 907.20 382.74 1072.58 358.99 1033.64 465.30 948.67 573.33 1095.72 552.93
00088224 00000046 777.44 150.32 379.73 568.04 904.81 383.08 1072.13 357.86 1032.09 464.80 947.81 573.82 1095.92 551.95
00088225 00000047 777.71 150.44 378.88 567.67 904.87 382.83 1072.16 357.74 1032.09 464.81 947.82 573.59 1095.95 551.85
00088226 00000048 776.49 149.79 379.88 580.51 902.84 382.16 1070.55 359.88 1030.60 466.24 945.49 578.22 1095.61 558.50
00088227 00000049 776.45 148.91 379.98 580.53 902.70 382.65 1070.30 359.90 1030.41 466.28 945.93 578.73 1095.45 558.67
00088228 00000050 775.03 148.56 379.50 590.69 900.75 379.51 1067.88 361.70 1027.12 467.30 944.92 583.58 1092.40 567.28
00088229 00000051 775.02 148.01 379.57 591.36 900.68 379.61 1067.88 361.71 1027.17 467.55 944.74 583.70 1092.43 567.33
00088230 00000052 774.92 147.13 379.62 592.28 900.67 379.77 1067.82 361.89 1027.10 467.57 944.78 583.86 1092.37 567.50
00088231 00000053 774.32 146.22 379.94 592.94 899.80 380.52 1064.12 359.04 1023.91 467.84 951.25 588.16 1089.71 568.80
00088232 00000054 774.08 146.18 380.22 592.92 899.85 380.58 1064.00 359.13 1023.97 467.84 951.21 588.09 1089.68 568.78
00088233 00000055 774.70 142.44 379.26 590.41 900.80 380.88 1062.23 356.41 1025.67 469.19 961.45 592.04 1087.22 570.44
00088234 00000056 774.79 142.18 378.89 590.54 901.14 380.92 1062.45 356.62 1026.10 469.13 961.64 591.95 1087.36 570.50
00088235 00000057 774.74 141.91 378.92 591.04 901.30 380.88 1062.33 356.57 1026.31 468.86 961.66 591.94 1087.38 570.46
00088236 00000058 776.03 142.14 377.88 587.17 903.18 379.76 1063.19 358.16 1027.39 468.99 967.62 594.89 1083.60 575.87
00088237 00000059 776.28 141.80 377.67 587.61 903.07 379.88 1063.29 358.23 1027.33 468.73 967.45 595.12 1083.86 576.03
00088238 00000060 777.06 140.22 378.28 592.59 905.47 378.83 1064.68 358.37 1028.27 470.91 971.50 597.21 1082.92 579.08
00088239 00000061 777.00 140.32 377.44 592.47 905.27 378.74 1064.97 358.52 1028.46 471.09 971.37 597.28 1082.43 579.39
00088240 00000062 776.95 139.66 376.96 598.13 909.67 380.56 1066.77 362.84 1031.56 473.01 974.10 601.75 1082.15 585.95
00088241 00000063 776.94 139.89 376.99 597.84 909.44 380.45 1066.85 362.82 1031.46 473.14 973.78 601.47 1082.08 585.76
00088242 00000064 777.27 139.61 376.55 598.14 909.58 380.44 1066.89 363.11 1031.53 473.13 973.75 601.40 1082.09 585.93
00088243 00000065 775.78 141.86 379.71 603.41 911.06 384.24 1068.98 367.75 1034.24 477.35 972.68 605.63 1085.73 590.47
00088244 00000066 775.72 141.87 379.80 603.49 911.02 384.20 1068.81 367.63 1034.29 477.24 972.58 605.56 1085.79 590.35
00088245 00000067 772.20 146.78 385.11 608.86 908.12 385.39 1071.97 369.34 1038.43 479.74 965.67 609.75 1090.87 594.41
00088246 00000068 772.28 147.16 385.07 608.53 908.28 385.12 1071.90 369.17 1038.31 480.08 965.86 609.89 1090.61 594.60
00088247 00000069 772.25 146.92 385.19 608.80 907.82 385.14 1071.55 368.85 1038.16 479.53 965.94 609.94 1090.70 594.40
00088248 00000070 771.50 147.53 390.21 615.37 903.87 384.56 1074.59 366.48 1038.12 480.36 956.03 607.56 1097.14 590.94
00088249 00000071 771.41 147.23 390.30 615.65 903.68 384.65 1074.61 366.48 1038.06 480.42 955.88 607.31 1097.14 590.70
00088250 00000072 772.24 147.21 391.69 619.02 907.47 381.86 1076.08 366.40 1040.80 481.80 952.75 604.16 1097.45 589.82
00088251 00000073 772.38 147.47 392.01 619.09 907.67 381.95 1076.32 366.31 1041.25 481.55 953.30 604.47 1097.90 589.88
00088252 00000074 775.06 144.41 391.49 615.33 913.47 386.23 1080.92 367.90 1046.46 484.70 964.60 606.83 1101.43 590.03
00088253 00000075 774.98 144.29 391.43 615.81 913.61 386.13 1081.07 368.15 1046.99 484.49 964.30 606.59 1101.45 590.10
00088254 00000076 775.07 143.86 391.36 616.21 913.72 386.21 1081.05 368.19 1047.17 484.41 964.13 606.40 1101.52 589.87
00088255 00000077 779.57 143.90 387.59 609.86 918.55 390.41 1084.27 372.70 1049.21 487.83 972.94 608.69 1102.52 592.29
00088256 00000078 779.73 143.99 387.45 609.55 918.55 390.39 1084.35 372.75 1049.23 487.57 972.99 608.60 1102.48 592.34
00088257 00000079 782.56 144.01 385.37 609.11 924.74 391.74 1086.20 377.78 1052.12 486.80 978.84 610.90 1100.04 597.73
00088258 00000080 782.79 144.27 385.31 609.03 924.55 391.94 1086.12 377.92 1051.97 486.83 978.30 610.66 1100.19 597.48
00088259 00000081 782.87 144.16 385.31 609.24 924.76 392.13 1086.03 377.93 1052.26 486.79 978.48 610.76 1100.26 597.55
00088260 00000082 784.25 148.55 386.78 611.24 928.19 394.17 1088.52 381.37 1056.10 488.05 982.32 616.34 1103.22 604.32
00088261 00000083 784.34 148.28 386.71 611.44 928.06 394.35 1088.39 381.50 1055.82 488.11 982.15 616.13 1103.17 604.08
00088262 00000084 785.56 146.01 386.03 620.30 930.68 395.66 1092.55 383.23 1058.30 490.01 982.36 618.61 1106.05 606.58
00088263 00000085 785.95 146.23 385.53 620.30 930.95 395.39 1092.81 383.31 1058.86 489.50 982.27 618.45 1106.46 606.77
00088264 00000086 783.93 150.37 389.63 626.63 927.34 398.39 1093.53 383.68 1060.39 493.48 975.85 622.81 1108.27 608.96
00088265 00000087 783.97 150.22 389.65 626.62 927.40 398.39 1093.52 383.61 1060.58 493.50 976.12 622.83 1108.41 608.91
00088266 00000088 784.08 150.26 389.73 626.65 927.22 398.49 1093.63 383.72 1060.53 493.31 975.99 622.83 1108.52 608.92
00088267 00000089 785.57 155.51 391.00 626.03 926.54 401.54 1098.31 385.79 1063.58 498.67 972.01 626.60 1112.37 612.23
00088268 00000090 785.40 155.94 391.06 625.76 926.48 401.61 1098.29 385.90 1063.86 498.61 971.90 626.59 1112.46 612.25
00088269 00000091 787.36 165.00 395.55 618.54 927.97 413.95 1103.91 390.48 1064.93 502.43 972.59 632.92 1114.36 611.24
00088270 00000092 787.51 165.61 395.40 617.61 927.88 414.00 1103.99 390.40 1064.70 502.72 972.62 633.02 1114.37 611.23
00088271 00000093 787.52 165.35 395.54 617.50 927.83 414.45 1103.98 390.50 1064.74 502.65 972.61 632.91 1115.06 610.81
00088272 00000094 788.72 166.43 399.13 624.46 926.75 418.15 1107.94 391.82 1065.30 508.16 971.12 638.31 1120.72 614.15
00088273 00000095 788.78 166.68 398.99 624.36 926.77 418.23 1107.91 391.78 1065.40 508.00 971.06 638.35 1120.91 614.11
00088274 00000096 788.73 173.33 400.64 625.87 926.61 420.20 1109.43 391.51 1068.61 513.01 970.78 642.62 1123.90 616.47
00088275 00000097 788.43 172.95 400.78 625.66 926.40 420.50 1109.47 391.80 1068.43 513.24 971.07 643.00 1123.98 616.76
00088276 00000098 787.40 173.91 403.57 627.35 925.77 424.19 1110.35 395.04 1069.20 519.97 969.64 645.99 1124.61 619.34
00088277 00000099 787.28 173.90 403.98 627.20 925.76 424.08 1110.60 395.05 1069.14 519.97 969.67 646.06 1124.63 619.51
00088278 00000100 787.20 173.91 404.10 626.79 925.78 424.27 1110.54 395.28 1069.09 519.99 969.75 646.01 1124.60 619.49
00088279 00000101 787.30 177.25 402.54 627.49 925.25 431.95 1109.78 401.59 1069.05 528.11 969.84 650.21 1126.24 622.53
00088280 00000102 787.41 177.03 402.48 627.85 925.29 431.92 1109.83 401.49 1069.14 528.07 969.83 650.27 1126.32 622.55
00088281 00000103 787.44 182.36 403.74 632.66 924.83 438.70 1109.94 408.89 1068.28 538.94 968.92 658.61 1127.76 631.84
00088282 00000104 787.47 182.50 403.61 632.32 924.79 438.72 1110.03 409.01 1068.34 538.85 968.91 658.51 1127.87 631.87
00088283 00000105 787.39 182.52 403.65 632.24 924.76 438.74 1110.06 408.85 1068.45 539.09 969.07 658.58 1128.01 631.77
00088284 00000106 782.08 188.44 411.40 643.05 923.70 445.23 1109.64 416.20 1068.25 551.73 963.87 666.23 1128.88 640.51
00088285 00000107 782.31 187.62 411.15 643.62 923.75 445.30 1109.81 416.02 1068.43 551.57 963.89 666.16 1129.12 640.26
00088286 00000108 778.37 188.97 415.94 656.68 924.13 451.19 1110.03 423.83 1068.19 562.49 959.54 673.53 1128.03 649.06
00088287 00000109 778.57 189.20 415.89 656.08 924.18 451.08 1110.13 423.73 1068.37 562.40 959.59 673.26 1127.97 648.84
00088288 00000110 773.85 197.66 419.02 652.57 918.41 455.37 1105.89 427.68 1062.68 568.71 953.76 674.69 1128.05 649.88
00088289 00000111 773.82 197.90 419.07 652.38 918.48 455.25 1106.07 427.76 1062.81 568.62 953.74 674.73 1128.09 650.10
00088290 00000112 773.58 197.63 419.18 652.73 918.49 455.22 1106.05 427.79 1062.82 568.44 953.69 674.61 1128.12 650.01
00088291 00000113 772.55 194.94 418.49 652.15 919.90 464.70 1099.76 438.60 1060.26 570.86 952.74 672.25 1127.49 649.13
00088292 00000114 772.75 194.89 418.15 652.19 919.67 465.10 1099.79 438.66 1060.37 570.82 952.46 672.26 1127.74 648.94
00088293 00000115 769.49 197.16 418.49 646.41 915.95 464.87 1099.31 438.79 1058.24 572.00 948.30 670.76 1124.73 648.06
00088294 00000116 769.59 196.72 418.44 646.75 916.03 464.83 1099.51 438.63 1058.20 571.85 948.55 670.92 1124.93 648.06
00088295 00000117 769.73 196.51 418.12 646.78 915.87 465.08 1099.41 438.83 1057.98 571.72 948.51 670.89 1125.04 647.97
00088296 00000118 767.56 194.91 414.41 646.82 911.27 458.74 1093.19 431.50 1051.28 569.60 949.93 675.96 1117.33 651.50
00088297 00000119 767.82 194.82 414.13 646.56 911.81 458.73 1092.99 431.80 1051.24 569.52 950.07 675.67 1116.60 651.54
00088298 00000120 768.63 194.44 409.07 642.44 908.24 446.96 1090.44 423.67 1045.80 562.76 952.87 679.03 1107.19 656.78
00088299 00000121 768.52 195.50 409.08 641.05 907.93 446.71 1090.06 423.50 1045.26 562.94 952.59 678.57 1107.13 656.40
00088300 00000122 768.74 195.34 405.12 634.73 902.36 441.54 1084.57 418.35 1038.29 558.38 954.32 681.00 1096.41 659.25
00088301 00000123 768.81 195.37 405.20 634.91 902.52 441.55 1084.67 418.55 1038.28 558.37 954.11 680.88 1096.34 659.29
00088302 00000124 768.79 195.56 405.28 634.58 902.49 441.75 1084.60 418.54 1038.35 558.41 954.62 680.98 1096.71 659.18
00088303 00000125 768.12 190.30 405.04 635.31 899.37 438.67 1082.20 413.90 1033.37 554.10 958.26 680.94 1092.06 657.92
00088304 00000126 768.06 190.17 405.07 635.44 899.57 438.59 1082.23 413.99 1033.55 554.20 958.02 680.77 1091.82 657.89
00088305 00000127 766.60 187.60 405.66 634.24 897.03 434.81 1078.98 408.13 1031.26 547.81 957.89 676.88 1090.21 652.21
00088306 00000128 766.65 187.74 405.67 633.96 897.04 434.74 1078.92 408.12 1031.14 547.95 957.89 676.81 1090.01 652.20
00088307 00000129 766.69 188.27 405.63 633.36 896.93 434.65 1078.94 408.09 1031.12 548.16 957.78 676.79 1089.92 652.24
00088308 00000130 764.56 187.44 408.49 626.11 894.62 432.19 1075.21 404.14 1028.75 539.08 959.81 670.66 1088.80 645.00
00088309 00000131 764.99 187.31 408.13 626.81 894.86 432.01 1075.40 404.08 1028.97 539.28 959.77 670.75 1088.77 645.18
00088310 00000132 763.39 183.26 408.32 617.16 894.74 428.86 1072.33 398.20 1027.74 529.99 962.52 664.42 1087.22 636.32
00088311 00000133 763.54 183.35 408.22 617.18 894.98 428.57 1072.46 398.34 1027.76 529.95 962.65 664.20 1087.17 636.44
00088312 DELETE   761.59 180.97 408.56 603.62 892.33 421.88 1072.74 390.83 1025.22 524.06 961.79 652.08 1088.66 623.21
00088313 DELETE   761.55 181.08 408.65 604.03 892.43 421.83 1072.98 390.94 1025.55 523.97 961.73 652.15 1089.03 623.40
00088314 00000136 761.68 180.64 408.58 604.46 892.37 421.94 1073.10 391.29 1025.49 524.12 961.43 652.08 1088.88 623.52
00088315 00000137 763.32 170.03 401.25 591.30 891.60 410.56 1061.88 383.16 1017.17 515.41 961.73 632.86 1086.42 608.43
CROP_BBOX: 467 0 1482 995
