Video ID: 	T5wV3gqBg2Q
H: 	1080
W: 	1920
FPS: 	25.0

FRAME INDEX X0 Y0 W H [Landmarks (5 Points)]

00007550 00000000 854.76 246.96 486.64 637.96 903.57 533.19 1120.65 492.42 970.24 622.77 947.17 761.41 1119.15 727.86
00007551 DELETE   856.37 243.95 485.92 633.25 903.11 532.67 1118.87 490.94 969.33 622.19 949.04 758.20 1124.69 723.36
00007552 DELETE   857.98 237.30 482.67 643.24 905.47 529.06 1117.21 488.43 966.05 621.62 948.88 756.43 1124.58 722.68
00007553 00000003 851.57 233.82 483.88 634.83 900.82 527.75 1116.53 485.65 973.72 617.66 947.90 751.01 1131.38 715.29
00007554 00000004 850.12 234.93 488.13 632.53 901.21 524.36 1114.61 481.10 974.08 615.04 947.62 744.15 1130.12 708.52
00007555 00000005 848.25 232.01 489.22 633.47 899.45 522.96 1113.72 479.09 974.40 614.52 947.56 743.38 1127.50 707.44
00007556 00000006 847.74 231.17 489.11 631.36 897.44 522.10 1113.48 477.72 974.89 615.46 946.59 743.36 1127.19 707.55
00007557 00000007 845.03 233.52 491.37 629.93 893.98 522.88 1112.21 479.15 973.13 619.51 945.45 746.90 1126.39 711.36
00007558 00000008 841.96 242.40 490.31 620.88 891.60 526.00 1109.28 480.99 972.02 620.02 944.54 747.39 1123.90 710.52
00007559 00000009 839.33 241.03 490.64 623.12 889.60 525.51 1109.01 481.62 970.53 620.72 943.18 747.97 1122.12 711.78
00007560 00000010 837.27 238.94 491.62 625.29 885.97 527.49 1105.83 482.83 967.04 621.77 940.14 750.45 1119.02 713.70
00007561 00000011 832.97 231.67 496.27 636.25 879.69 531.12 1097.49 483.39 958.99 625.50 938.20 756.74 1116.41 716.52
00007562 00000012 830.51 234.08 496.07 635.87 876.64 531.64 1093.16 481.41 955.53 627.15 938.55 761.40 1112.94 719.19
00007563 00000013 836.06 233.20 493.55 644.25 878.77 537.25 1085.34 481.86 943.28 629.94 938.50 760.89 1103.22 714.67
00007564 00000014 837.88 228.03 491.37 651.27 879.66 536.55 1084.83 481.67 941.94 630.10 938.36 762.55 1100.67 716.94
00007565 00000015 838.00 226.96 493.82 649.63 881.53 534.16 1086.60 479.95 943.54 626.82 940.30 758.95 1102.65 713.64
00007566 00000016 838.95 225.08 494.65 650.68 883.14 531.97 1088.39 478.51 943.44 624.44 940.88 757.61 1104.79 712.86
00007567 00000017 833.44 225.62 497.54 641.30 879.04 517.57 1093.56 472.33 950.35 619.08 937.41 755.38 1107.28 717.60
00007568 00000018 835.04 224.31 498.72 643.13 881.37 514.36 1098.01 470.12 953.97 616.36 938.09 754.45 1108.68 717.54
00007569 00000019 836.32 219.49 498.86 644.97 882.30 513.11 1100.85 470.52 956.81 617.42 938.89 753.16 1110.90 717.76
00007570 00000020 839.53 219.73 498.67 644.27 884.82 511.60 1103.42 471.70 959.56 620.19 940.25 753.16 1111.91 720.28
00007571 00000021 844.08 216.72 496.57 646.26 887.54 511.42 1107.12 472.62 962.72 622.65 942.84 754.07 1115.50 722.24
00007572 00000022 849.78 220.80 495.60 640.19 892.22 511.71 1113.40 474.69 968.04 625.17 945.05 754.56 1117.40 724.26
00007573 00000023 852.75 221.20 493.76 638.89 894.90 510.84 1115.48 474.50 970.15 623.85 946.77 754.49 1117.42 724.48
00007574 00000024 847.51 225.19 496.53 638.85 899.74 503.52 1126.65 472.58 975.43 617.00 950.10 747.39 1116.96 720.27
00007575 00000025 855.13 214.62 492.36 645.86 901.75 502.84 1120.89 468.09 972.90 608.81 946.68 746.83 1115.62 718.66
00007576 00000026 851.94 213.89 491.89 647.46 902.78 498.26 1120.78 464.18 973.61 603.01 944.50 740.15 1114.45 713.38
00007577 00000027 844.68 219.23 493.19 623.62 895.66 488.88 1123.84 455.89 975.29 594.26 943.13 726.79 1111.85 699.15
00007578 00000028 843.72 219.95 494.10 617.93 893.25 488.46 1123.00 454.69 974.43 594.11 940.73 723.75 1115.28 694.99
00007579 00000029 838.30 220.81 496.43 627.67 892.06 491.69 1120.66 460.00 971.96 598.38 939.40 725.87 1114.86 698.52
00007580 00000030 838.14 222.22 496.68 642.32 893.38 494.25 1119.42 463.70 969.83 603.54 943.07 732.44 1112.47 706.29
00007581 00000031 839.61 218.65 493.36 652.20 895.96 496.41 1116.33 465.81 968.74 603.17 938.20 742.17 1106.10 717.41
00007582 00000032 834.42 219.82 490.91 652.79 890.82 493.43 1115.79 465.48 966.87 602.82 939.98 740.84 1098.90 717.79
00007583 00000033 837.60 219.83 489.97 645.92 892.91 490.03 1117.07 458.44 969.02 592.21 942.33 732.26 1103.67 706.24
00007584 00000034 839.58 214.35 490.33 645.16 893.70 487.85 1118.85 453.84 969.49 584.51 941.29 729.87 1103.34 702.11
00007585 00000035 840.49 213.28 489.53 639.34 893.27 486.38 1118.03 453.15 969.32 582.95 939.63 725.82 1104.15 698.55
00007586 00000036 840.30 212.76 489.48 638.60 893.82 485.75 1118.21 453.35 968.41 581.38 938.49 721.94 1106.62 695.13
00007587 00000037 838.28 212.13 490.25 640.78 893.04 485.33 1118.21 455.83 968.01 584.35 935.96 722.42 1104.75 698.15
00007588 00000038 837.95 210.37 490.10 643.37 893.55 485.31 1118.24 457.52 968.88 586.53 935.62 722.05 1104.77 699.10
00007589 00000039 839.03 208.27 490.87 643.11 893.26 484.82 1119.81 456.77 970.08 586.47 934.45 720.48 1108.81 697.06
00007590 00000040 839.52 206.92 489.68 644.02 893.08 485.46 1120.86 457.71 970.52 587.42 932.76 719.36 1111.00 696.17
00007591 00000041 841.43 210.93 488.66 637.15 895.04 484.84 1122.88 457.62 972.35 587.17 934.21 718.75 1111.42 695.90
00007592 00000042 853.27 216.29 488.85 641.57 902.79 488.96 1122.66 462.96 969.25 587.49 933.37 716.68 1112.30 695.02
00007593 00000043 846.37 213.52 487.98 639.70 898.00 484.78 1124.02 458.69 973.71 586.60 936.26 719.38 1111.38 697.76
00007594 00000044 845.89 210.41 488.28 639.26 898.66 483.14 1124.61 458.72 974.16 585.94 933.52 717.91 1109.55 697.66
00007595 00000045 848.77 209.55 489.20 634.52 899.71 481.97 1126.15 459.09 973.88 585.19 933.71 715.99 1108.12 697.16
00007596 00000046 849.00 203.65 485.84 639.66 898.65 480.32 1123.25 459.33 970.53 584.25 931.03 716.67 1102.85 699.68
00007597 00000047 850.53 209.16 483.63 634.18 899.58 479.08 1122.46 461.79 967.94 583.43 929.36 715.40 1099.39 701.43
00007598 00000048 852.84 206.91 485.24 643.12 900.51 477.78 1120.33 462.13 962.07 580.99 927.80 717.03 1095.99 704.33
00007599 00000049 854.62 205.42 486.58 649.43 901.22 476.31 1115.88 463.83 953.89 579.04 926.05 718.28 1084.33 708.45
00007600 00000050 861.82 201.18 481.42 648.98 894.65 481.21 1105.70 465.68 943.53 573.35 912.02 724.26 1092.39 714.14
00007601 00000051 857.92 187.34 484.05 674.77 904.22 473.35 1112.86 462.61 945.26 574.05 920.54 718.95 1075.57 710.88
00007602 00000052 858.61 185.33 480.72 676.98 904.74 472.45 1111.95 463.79 943.83 573.28 917.93 718.66 1071.37 712.35
00007603 00000053 866.38 191.18 476.98 659.44 899.83 473.14 1105.72 465.95 937.81 566.05 909.29 717.79 1083.78 714.45
00007604 00000054 867.00 184.51 479.20 665.51 901.63 467.98 1105.20 464.80 934.93 566.12 907.99 714.94 1079.32 714.65
00007605 00000055 866.72 186.03 478.45 662.45 901.72 467.71 1105.20 466.49 934.51 564.70 904.68 713.73 1075.13 715.17
00007606 00000056 868.89 186.45 479.27 660.09 905.79 464.35 1107.70 466.89 936.97 561.20 905.93 709.71 1074.91 714.18
00007607 00000057 868.25 177.41 478.70 683.02 914.18 465.55 1111.89 466.39 939.70 560.04 915.29 708.03 1061.95 710.16
00007608 00000058 873.66 179.18 483.06 672.52 915.83 466.10 1118.76 468.74 943.69 567.84 916.50 710.20 1071.09 713.48
00007609 00000059 875.36 180.67 484.17 670.87 918.90 465.23 1121.56 468.92 946.40 568.44 918.83 708.82 1071.67 713.20
00007610 00000060 876.27 183.17 485.17 666.83 920.96 466.40 1121.13 469.87 948.05 568.70 921.05 707.59 1072.20 711.92
00007611 00000061 876.53 182.33 486.81 669.22 921.51 465.37 1120.97 471.28 949.06 570.18 921.60 707.27 1071.86 713.52
00007612 00000062 876.62 183.42 485.35 668.07 921.56 466.22 1120.75 471.86 950.63 571.13 922.65 707.17 1072.83 713.20
00007613 00000063 874.97 179.90 488.88 672.32 921.21 465.61 1120.81 472.29 949.33 570.04 920.49 705.60 1072.64 712.59
00007614 00000064 874.69 184.25 486.75 667.07 922.26 465.32 1120.14 472.36 950.80 569.90 921.25 703.62 1071.86 710.96
00007615 00000065 877.52 183.66 480.81 668.13 922.36 466.04 1120.56 473.35 950.62 569.00 920.38 703.43 1071.86 711.00
00007616 00000066 876.67 184.33 480.99 668.97 921.92 465.85 1121.10 473.46 950.31 569.64 919.23 704.32 1072.28 712.14
00007617 00000067 877.12 184.35 480.94 669.85 921.97 464.82 1121.46 473.44 950.36 569.44 918.66 703.13 1071.59 711.88
00007618 00000068 878.70 177.78 481.23 675.39 923.15 464.23 1123.89 473.51 951.45 568.58 918.56 701.88 1072.57 711.40
00007619 00000069 879.20 174.29 479.98 677.72 923.62 463.46 1124.74 473.86 952.35 569.28 918.32 701.38 1072.61 711.90
00007620 00000070 881.55 177.21 478.69 673.78 924.34 462.92 1125.17 474.23 952.94 569.36 918.50 700.08 1072.06 711.46
00007621 00000071 885.13 176.27 475.67 676.70 925.95 461.43 1127.09 472.28 954.42 568.07 919.67 700.41 1073.09 711.66
00007622 00000072 887.08 173.99 476.12 679.75 926.83 460.30 1129.17 473.01 955.33 568.08 919.39 699.67 1073.15 712.48
00007623 00000073 887.75 171.95 477.51 682.06 926.72 461.25 1129.44 473.13 954.59 566.66 918.96 699.57 1072.79 711.75
00007624 00000074 889.78 174.77 478.36 678.80 928.72 459.02 1132.58 471.52 957.76 565.08 920.76 697.83 1075.68 710.48
00007625 00000075 890.95 172.78 475.60 679.96 929.59 459.58 1133.82 470.54 959.09 564.43 922.29 698.45 1077.18 709.87
00007626 00000076 890.92 171.65 477.34 683.32 930.01 460.10 1132.91 470.59 959.64 564.15 922.41 699.14 1075.66 710.23
00007627 00000077 894.72 170.81 474.49 682.67 931.23 457.87 1136.08 467.98 961.55 563.34 924.56 699.72 1078.13 710.54
00007628 00000078 896.91 174.17 467.16 674.20 935.71 456.43 1144.55 466.29 964.04 561.94 927.73 699.62 1087.04 709.44
00007629 00000079 896.49 173.63 468.89 675.03 934.98 458.98 1144.09 467.52 964.43 562.83 927.95 700.79 1086.84 709.34
00007630 00000080 898.50 166.82 471.72 687.99 933.15 457.13 1138.19 467.14 963.79 563.10 926.37 700.19 1078.69 711.12
00007631 00000081 899.45 164.68 472.67 690.83 934.92 456.13 1139.80 465.94 965.20 561.69 927.58 700.05 1080.27 711.09
00007632 00000082 899.62 167.61 472.44 688.30 934.04 458.94 1138.85 467.14 965.00 563.80 928.00 702.73 1079.62 712.31
00007633 00000083 899.79 166.51 472.81 688.80 934.27 458.66 1139.02 466.56 964.93 563.17 928.32 702.44 1079.95 711.80
00007634 00000084 900.64 166.08 472.30 689.29 934.46 457.06 1140.58 465.33 965.12 561.78 928.11 701.91 1080.63 711.63
00007635 00000085 900.57 167.45 469.31 687.73 935.49 457.83 1140.68 466.44 965.46 562.31 927.99 701.87 1080.58 711.91
00007636 00000086 901.03 168.73 471.45 686.17 936.70 457.12 1141.00 466.64 965.69 561.67 928.94 701.10 1080.61 711.80
00007637 00000087 901.44 169.43 473.28 684.76 937.30 456.61 1141.85 466.23 966.02 561.28 929.53 701.21 1080.98 711.94
00007638 00000088 901.46 168.77 477.91 685.30 937.84 455.94 1142.45 466.23 965.87 561.02 930.26 700.85 1081.53 712.12
00007639 00000089 902.27 173.96 474.64 679.81 937.07 456.31 1141.84 466.06 967.35 560.68 930.09 700.94 1081.33 711.76
00007640 00000090 902.46 172.55 477.38 680.43 938.66 454.32 1143.63 465.75 968.17 559.00 930.84 698.15 1082.36 710.31
00007641 00000091 902.94 171.50 476.28 681.59 939.48 454.27 1144.90 465.89 967.96 558.20 930.83 697.07 1083.14 709.40
00007642 00000092 903.47 170.98 478.09 680.99 940.23 453.51 1145.54 465.79 968.38 558.06 931.62 695.42 1084.78 708.10
00007643 00000093 903.85 174.12 476.28 677.22 942.33 452.98 1146.57 465.52 970.08 556.53 933.57 693.64 1086.71 706.34
00007644 00000094 903.81 177.12 480.31 669.89 943.80 453.51 1148.51 468.22 970.85 555.79 934.61 689.70 1089.66 703.74
00007645 00000095 905.90 180.04 475.20 663.74 943.92 454.91 1148.76 468.48 971.88 555.86 934.90 690.06 1089.64 703.29
00007646 00000096 905.88 189.56 470.74 645.71 944.06 453.34 1155.17 467.54 970.88 558.74 932.80 689.58 1096.33 702.40
00007647 00000097 906.88 187.93 470.02 645.34 946.85 453.98 1156.88 467.68 972.83 557.08 934.14 688.14 1096.12 700.78
00007648 00000098 907.45 184.67 471.91 648.02 945.07 454.71 1156.62 468.41 971.29 557.05 933.03 689.39 1095.84 701.96
00007649 00000099 907.62 185.51 471.13 646.93 947.03 454.96 1158.14 468.63 973.47 556.78 935.34 688.86 1099.20 701.35
00007650 00000100 908.67 186.34 471.16 644.23 948.35 454.97 1158.42 468.29 973.85 556.86 936.87 687.73 1100.01 699.94
00007651 00000101 908.20 185.62 472.03 645.72 948.69 455.78 1158.69 469.37 974.33 557.46 936.70 688.14 1099.79 700.68
00007652 00000102 908.80 183.80 471.17 645.86 947.95 455.27 1157.60 468.82 972.86 557.57 935.84 686.88 1099.27 699.39
00007653 00000103 908.57 181.85 472.76 648.05 946.99 455.56 1157.22 469.16 972.53 557.12 935.64 687.22 1099.97 699.66
00007654 00000104 908.85 179.49 472.40 650.96 947.31 456.19 1156.63 470.34 971.77 556.26 935.08 685.98 1099.49 698.81
00007655 00000105 909.38 179.56 472.29 650.76 946.56 455.27 1156.38 468.78 971.00 555.73 933.89 685.93 1098.99 698.38
00007656 00000106 909.27 180.20 471.94 645.17 947.34 454.13 1156.92 468.93 972.08 554.22 933.55 681.93 1098.37 695.57
00007657 00000107 907.97 178.16 471.41 654.11 945.77 454.51 1155.60 467.82 971.49 554.67 933.43 685.62 1098.65 697.81
00007658 00000108 905.21 176.63 479.44 676.75 946.72 452.81 1151.22 466.34 970.16 553.71 933.84 689.16 1088.24 702.99
00007659 00000109 906.74 179.35 479.72 680.90 950.50 454.22 1148.84 465.39 968.59 550.44 937.04 691.19 1082.55 703.41
00007660 00000110 909.11 178.52 476.06 683.59 952.80 453.51 1150.65 464.20 969.93 548.13 938.63 693.70 1079.48 705.73
00007661 00000111 909.54 176.98 474.57 685.79 951.73 454.65 1150.83 464.24 971.27 548.65 937.99 696.87 1079.32 708.14
00007662 00000112 910.12 179.87 472.63 684.46 951.94 463.11 1149.64 470.39 971.18 550.05 939.56 700.17 1083.09 709.01
00007663 00000113 911.04 171.58 478.45 697.10 952.49 463.34 1148.89 470.78 971.31 552.43 941.38 701.64 1084.86 710.47
00007664 00000114 911.14 177.76 479.33 685.67 954.95 461.48 1155.00 468.51 977.53 549.74 943.15 700.36 1084.86 709.35
00007665 00000115 913.01 186.71 476.24 660.35 954.38 453.97 1160.57 467.72 979.01 550.63 935.45 698.20 1091.64 713.32
00007666 00000116 918.07 174.94 472.47 689.79 958.01 454.62 1158.56 461.80 981.83 548.34 947.26 698.96 1091.50 708.15
00007667 00000117 918.24 171.90 470.88 693.97 958.64 453.17 1160.97 460.49 984.38 549.32 950.01 699.07 1097.27 708.19
00007668 00000118 913.30 177.95 472.64 679.44 959.97 451.91 1164.49 462.30 981.70 553.01 948.38 696.56 1105.81 706.50
00007669 00000119 912.46 172.52 473.68 677.23 957.48 449.91 1163.96 462.13 979.02 552.72 944.85 692.57 1104.17 703.99
00007670 00000120 913.10 174.94 472.06 668.94 957.25 449.10 1163.42 462.33 978.34 552.51 944.63 688.71 1103.97 701.00
00007671 00000121 913.88 169.78 480.13 677.46 957.33 448.17 1160.53 461.22 982.91 546.98 947.31 682.98 1098.29 696.32
00007672 00000122 912.70 172.94 474.12 666.00 954.36 447.64 1160.91 460.61 974.98 549.92 941.56 683.86 1101.18 696.13
00007673 00000123 911.19 168.09 478.25 680.49 954.39 445.93 1158.29 458.40 980.60 546.85 943.46 682.06 1096.48 695.05
00007674 00000124 911.09 167.70 481.30 681.22 954.81 447.50 1157.61 459.64 979.25 546.74 943.84 682.33 1095.78 694.97
00007675 00000125 911.72 168.75 482.29 682.24 955.38 447.37 1158.53 459.66 978.99 546.23 943.79 683.49 1094.95 696.32
00007676 00000126 910.91 170.91 475.12 674.78 952.48 446.58 1159.55 458.70 973.89 548.57 939.73 685.86 1099.66 697.64
00007677 00000127 908.79 169.52 478.17 674.53 950.59 445.40 1160.73 458.43 975.04 550.25 938.81 686.82 1101.23 699.28
00007678 00000128 908.84 170.40 477.48 672.76 950.34 446.06 1160.44 458.16 974.98 550.58 939.08 687.34 1100.72 699.07
00007679 00000129 910.00 171.35 476.12 669.06 950.37 445.24 1159.86 457.46 974.43 549.69 938.69 685.55 1099.65 697.53
00007680 00000130 909.87 170.51 471.90 668.58 951.39 445.69 1159.61 458.22 976.14 546.91 938.41 683.23 1099.78 695.42
00007681 00000131 909.58 174.20 472.47 662.58 950.33 445.86 1158.73 458.01 975.82 547.10 937.87 682.70 1098.98 694.55
00007682 00000132 910.72 173.26 472.91 664.44 952.20 445.92 1158.77 457.51 976.16 545.32 939.98 682.62 1099.33 694.00
00007683 00000133 910.66 172.80 472.67 662.62 952.08 445.41 1159.81 457.30 975.71 544.20 938.77 682.02 1099.18 693.65
00007684 00000134 911.48 171.13 470.78 659.72 952.63 445.24 1160.67 456.21 975.51 544.09 939.55 681.66 1100.26 692.53
00007685 00000135 912.93 168.38 471.91 659.52 952.25 445.07 1161.49 456.41 974.82 543.67 939.27 681.48 1101.63 692.54
00007686 00000136 912.48 169.02 471.68 656.95 952.30 445.41 1162.85 456.03 975.32 543.26 937.92 682.27 1100.98 692.92
00007687 00000137 912.19 168.01 472.03 656.65 951.92 445.62 1162.60 456.00 975.20 543.57 938.11 682.42 1101.13 692.93
00007688 00000138 911.46 172.76 470.78 650.75 950.91 447.06 1162.10 456.33 976.05 545.48 937.90 682.87 1101.45 692.57
00007689 00000139 910.62 172.52 473.43 652.82 950.16 446.50 1161.92 457.22 975.55 545.43 937.46 682.16 1102.25 692.95
00007690 00000140 910.68 170.62 474.10 652.99 950.11 444.88 1161.65 456.03 975.02 544.54 937.28 679.47 1103.20 690.56
00007691 00000141 910.64 170.10 473.91 654.03 949.68 444.62 1162.32 455.70 975.03 544.63 936.97 680.01 1104.26 691.13
00007692 00000142 909.55 172.61 471.70 653.26 951.02 447.48 1162.33 458.50 977.36 544.95 936.88 681.06 1101.95 692.07
00007693 00000143 910.19 174.25 471.25 659.58 953.71 448.96 1162.50 458.09 978.75 544.70 941.18 684.81 1104.15 694.08
00007694 00000144 915.73 167.90 474.26 687.97 957.56 447.79 1162.99 453.67 983.51 543.18 949.70 690.34 1103.85 697.76
00007695 00000145 921.53 175.38 464.57 682.96 958.77 448.81 1162.64 452.42 988.05 542.70 952.83 695.90 1097.91 701.98
00007696 00000146 916.99 182.26 469.49 669.64 961.56 448.93 1168.42 455.63 986.68 548.21 951.81 694.74 1108.92 701.66
00007697 00000147 922.15 166.85 468.90 682.63 958.97 447.43 1165.25 452.81 989.93 543.08 952.59 687.29 1104.77 694.51
00007698 00000148 922.64 172.07 471.72 673.55 963.07 445.89 1167.10 454.63 992.72 542.41 954.72 683.47 1103.56 693.26
00007699 00000149 923.70 182.65 472.05 655.55 965.08 438.31 1176.12 459.22 994.69 545.26 941.88 682.59 1111.33 703.08
00007700 00000150 922.19 184.33 469.59 663.49 973.54 446.53 1180.23 465.37 998.06 549.31 955.12 684.28 1113.51 700.94
00007701 00000151 922.84 184.33 474.29 669.79 973.61 449.57 1181.05 465.69 995.88 550.95 956.27 690.67 1115.19 705.10
00007702 00000152 925.14 184.87 476.01 672.21 977.82 450.27 1182.88 466.86 999.13 551.89 960.82 692.53 1115.81 707.39
00007703 00000153 923.47 189.52 474.29 669.96 979.89 447.82 1184.51 465.05 1002.23 550.53 961.49 691.08 1116.75 706.45
00007704 00000154 922.46 186.42 470.28 664.75 978.00 446.58 1182.95 463.42 1003.67 547.02 960.17 685.25 1114.81 700.63
00007705 00000155 921.64 186.33 472.37 663.63 974.99 445.93 1181.96 459.91 1002.73 545.90 959.96 684.01 1118.49 697.24
00007706 00000156 920.30 185.09 469.09 659.36 972.81 443.61 1183.07 456.83 1005.14 546.03 958.87 682.85 1122.32 695.40
00007707 00000157 921.88 168.16 470.80 658.30 963.28 441.07 1189.00 458.52 1003.91 541.49 953.30 674.57 1129.94 690.98
00007708 00000158 918.15 176.06 469.74 645.72 965.24 442.06 1181.79 454.99 1004.25 544.88 953.01 676.25 1126.19 688.32
00007709 00000159 920.13 167.18 465.21 649.27 964.02 437.89 1186.09 454.08 1002.14 539.28 953.19 668.65 1125.85 684.17
00007710 00000160 918.60 167.26 462.78 651.78 962.10 439.18 1182.46 454.93 998.96 539.32 951.86 669.04 1124.35 683.68
00007711 00000161 916.77 165.92 464.99 650.48 960.99 438.93 1182.45 454.18 998.17 537.04 950.50 667.52 1122.30 681.68
00007712 00000162 918.63 174.32 461.01 640.08 966.83 440.36 1176.15 451.55 1001.43 538.91 954.04 669.58 1119.88 680.60
00007713 00000163 916.36 172.22 461.10 643.18 968.99 438.72 1178.74 449.00 1006.61 535.96 957.72 671.61 1123.41 681.84
00007714 00000164 919.28 167.97 458.16 665.99 965.34 431.01 1186.87 446.01 1006.32 528.85 956.11 667.18 1134.40 681.33
00007715 00000165 918.23 163.24 462.41 677.94 968.92 425.83 1188.89 443.32 1007.30 523.81 957.37 665.09 1135.59 680.82
00007716 00000166 919.81 164.42 467.72 665.28 970.80 423.21 1194.11 444.68 1009.79 522.23 954.79 662.01 1132.05 681.62
00007717 00000167 917.22 166.13 472.33 652.69 973.25 421.99 1196.68 445.25 1013.13 520.08 955.93 654.53 1127.86 675.55
