Video ID: 	h0C2LPXaEW4
H: 	2160
W: 	3840
FPS: 	23.976023976023978

FRAME INDEX X0 Y0 W H [Landmarks (5 Points)]

00003197 00000000 1949.72 258.81 436.61 580.36 2138.53 485.21 2315.39 491.69 2263.03 601.34 2148.17 701.92 2290.84 702.20
00003198 DELETE   1955.51 255.37 434.22 572.68 2143.90 484.22 2320.16 489.10 2268.53 601.29 2152.48 696.20 2296.23 695.49
00003199 00000002 1956.86 255.25 434.44 571.43 2147.82 484.05 2323.72 488.05 2273.75 599.21 2159.21 696.54 2301.30 694.90
00003200 00000003 1958.41 253.76 435.55 573.64 2152.89 485.30 2328.78 486.40 2281.34 600.19 2160.49 695.20 2307.03 692.17
00003201 00000004 1959.24 255.71 435.05 575.34 2156.70 486.35 2331.39 487.24 2286.75 601.18 2165.06 697.66 2309.84 694.34
00003202 00000005 1961.64 257.23 432.60 574.30 2158.99 488.68 2331.88 489.41 2289.00 601.20 2169.58 699.90 2311.04 696.23
00003203 00000006 1963.31 257.18 433.13 576.20 2160.70 490.20 2334.57 489.65 2292.37 602.82 2167.22 698.94 2314.37 695.20
00003204 00000007 1967.08 256.89 431.08 580.70 2162.57 491.54 2336.86 488.89 2296.58 601.19 2168.14 698.14 2319.99 693.49
00003205 00000008 1971.19 254.69 428.95 579.11 2166.53 489.26 2342.11 491.51 2297.67 600.06 2177.17 699.44 2322.22 697.35
00003206 00000009 1975.47 254.80 427.95 577.65 2170.48 488.38 2346.89 490.97 2303.26 600.30 2179.77 695.63 2328.50 694.11
00003207 00000010 1978.20 254.63 427.89 580.23 2174.95 487.01 2350.83 489.70 2308.59 598.54 2189.79 697.08 2332.78 694.94
00003208 00000011 1981.01 259.98 424.28 584.82 2178.68 490.29 2349.12 494.73 2313.26 603.62 2193.99 704.93 2331.50 706.16
00003209 00000012 1982.70 259.75 421.06 599.76 2176.41 490.34 2348.97 495.70 2315.16 601.76 2194.23 713.62 2329.68 715.44
00003210 00000013 1985.40 258.99 417.15 610.82 2174.21 491.34 2348.57 496.90 2316.08 603.38 2188.72 718.07 2328.74 720.47
00003211 00000014 1983.93 259.91 419.93 607.58 2174.41 490.96 2349.35 498.18 2316.57 604.64 2183.55 715.11 2329.04 718.96
00003212 00000015 1988.17 253.88 414.78 605.86 2177.86 493.37 2352.25 498.20 2313.26 606.42 2186.24 709.94 2330.94 712.62
00003213 00000016 1990.31 264.77 416.00 589.18 2177.08 494.85 2350.44 501.89 2313.99 612.39 2179.23 705.73 2329.40 709.74
00003214 00000017 1989.55 257.94 416.39 599.88 2174.84 497.89 2353.31 500.11 2312.32 611.02 2181.48 712.26 2332.68 713.24
00003215 00000018 1989.37 257.80 417.25 602.83 2173.78 495.76 2352.69 500.81 2309.15 607.37 2181.55 715.11 2331.70 718.36
00003216 00000019 1989.03 259.65 420.65 603.57 2172.95 497.24 2353.81 500.34 2309.95 609.77 2175.50 713.04 2334.38 715.11
00003217 00000020 1993.45 269.10 419.27 591.81 2173.41 498.03 2350.01 501.34 2310.97 615.49 2162.78 701.93 2332.53 705.13
00003218 00000021 1994.09 271.27 419.46 590.43 2173.15 498.49 2349.72 500.44 2310.63 617.01 2160.25 700.86 2332.25 703.39
00003219 00000022 1989.27 261.23 425.41 603.64 2172.53 502.11 2352.98 499.10 2310.53 617.69 2165.97 707.25 2336.27 705.44
00003220 00000023 1994.54 270.78 421.15 592.60 2171.21 499.56 2349.33 499.71 2308.27 617.25 2159.35 700.84 2333.05 701.96
00003221 00000024 1994.08 270.80 423.89 592.97 2171.13 499.95 2350.39 499.64 2308.80 616.17 2159.51 699.12 2336.35 699.82
00003222 00000025 1994.11 271.34 426.67 590.29 2171.50 500.41 2351.49 499.18 2308.29 616.19 2160.23 698.51 2337.26 698.58
00003223 00000026 1994.85 273.61 427.66 584.98 2172.06 501.00 2352.25 499.81 2308.74 616.66 2161.03 697.76 2339.11 697.76
00003224 00000027 1996.38 276.27 427.13 577.15 2171.67 504.32 2352.86 501.15 2307.51 618.56 2164.63 699.24 2340.76 697.28
00003225 00000028 1995.49 268.93 429.28 587.31 2170.57 508.18 2356.23 498.20 2306.02 623.68 2180.37 713.46 2345.06 704.55
00003226 00000029 1998.96 277.80 424.66 575.51 2169.16 513.70 2352.57 504.85 2302.66 625.89 2176.62 711.82 2342.04 703.79
00003227 00000030 1999.37 276.97 424.16 578.93 2169.03 516.51 2352.35 507.24 2303.10 627.14 2177.94 714.75 2342.91 706.18
00003228 00000031 2000.11 277.10 422.88 581.48 2167.56 518.14 2351.75 507.72 2301.82 629.57 2176.02 716.43 2342.23 707.29
00003229 00000032 1999.98 280.36 424.24 579.13 2167.67 518.61 2351.94 507.58 2300.90 630.27 2174.85 715.02 2342.76 705.63
00003230 00000033 1999.71 282.10 425.46 577.59 2166.79 519.81 2351.86 508.59 2299.06 631.96 2170.21 713.48 2342.21 704.36
00003231 00000034 2000.66 283.56 424.54 577.50 2165.65 521.98 2351.14 509.99 2297.87 634.29 2167.35 714.01 2342.37 704.46
00003232 00000035 1998.60 286.04 426.11 577.00 2164.07 523.70 2350.93 509.96 2296.99 638.27 2165.48 716.21 2341.64 705.51
00003233 00000036 1993.78 279.83 432.31 594.44 2163.27 523.46 2353.09 509.37 2295.88 644.65 2166.89 724.24 2342.05 712.87
00003234 00000037 1993.04 281.97 426.75 601.06 2161.33 523.62 2348.65 509.37 2293.65 647.43 2164.74 729.98 2337.28 718.60
00003235 00000038 1989.73 288.96 419.60 588.93 2160.80 527.49 2338.02 511.53 2293.58 639.61 2173.25 734.37 2330.14 722.37
00003236 00000039 1992.12 283.86 422.38 584.75 2156.93 526.35 2347.33 511.91 2290.41 646.86 2169.98 730.88 2337.00 718.86
00003237 00000040 1989.33 285.23 426.68 575.76 2153.59 527.96 2346.82 512.03 2287.88 647.89 2167.56 730.10 2337.87 716.94
00003238 00000041 1985.72 292.77 425.27 568.67 2153.43 528.14 2337.59 511.50 2286.00 642.76 2166.42 732.39 2332.55 719.40
00003239 00000042 1984.07 290.38 424.95 572.16 2151.70 525.32 2335.31 509.79 2284.36 638.81 2162.32 728.44 2330.75 716.50
00003240 00000043 1982.34 282.03 428.95 575.74 2149.28 517.23 2336.92 506.56 2281.39 634.53 2154.19 719.04 2328.25 710.17
00003241 00000044 1981.49 289.84 426.06 580.45 2150.20 522.61 2332.16 507.05 2282.64 636.37 2153.75 724.54 2327.28 712.80
00003242 00000045 1981.96 285.80 423.77 589.28 2148.80 522.24 2330.43 504.19 2280.91 635.67 2158.70 729.36 2325.33 715.41
00003243 00000046 1981.46 279.82 425.60 582.50 2147.93 511.43 2332.24 502.78 2276.79 628.67 2162.29 722.02 2323.33 713.16
00003244 00000047 1978.57 273.79 428.92 579.61 2146.65 508.15 2330.45 499.80 2272.91 623.27 2163.12 717.48 2320.94 708.30
00003245 00000048 1974.23 272.37 434.70 576.43 2143.74 504.48 2329.87 497.17 2269.28 620.70 2159.11 713.97 2318.41 705.49
00003246 00000049 1970.56 267.24 438.02 573.16 2140.39 501.29 2328.28 495.55 2264.80 614.40 2159.44 710.97 2313.76 703.06
00003247 00000050 1967.15 262.18 442.10 570.17 2137.88 496.84 2327.13 491.49 2262.18 609.35 2163.85 708.79 2311.10 700.43
00003248 00000051 1966.50 257.87 444.63 573.68 2138.09 491.23 2327.43 486.50 2261.80 604.67 2163.45 703.76 2312.25 695.61
00003249 00000052 1965.25 251.48 446.40 581.50 2138.73 486.97 2328.02 482.76 2263.00 601.53 2161.25 698.90 2312.38 691.60
00003250 00000053 1966.73 243.07 445.61 590.88 2138.78 483.52 2327.71 481.25 2262.72 597.89 2159.67 695.55 2310.44 690.11
00003251 00000054 1968.16 242.19 444.81 597.44 2138.29 481.39 2327.57 480.98 2263.14 596.95 2155.96 697.90 2309.53 694.13
00003252 00000055 1968.87 243.52 443.40 601.65 2138.17 480.97 2327.27 481.54 2261.52 595.54 2156.98 704.14 2307.50 700.87
00003253 00000056 1968.96 245.53 446.21 605.95 2139.25 483.65 2328.39 481.86 2266.15 600.70 2149.11 703.27 2311.72 699.61
00003254 00000057 1971.33 248.97 444.93 597.57 2141.37 485.39 2330.64 481.31 2268.13 602.91 2147.99 700.37 2314.69 695.71
00003255 00000058 1972.05 253.52 445.45 588.73 2143.01 486.22 2332.24 480.08 2270.16 603.06 2147.22 697.95 2318.04 692.20
00003256 00000059 1972.10 254.42 446.19 586.41 2142.84 487.60 2332.52 479.11 2271.32 602.46 2148.21 696.96 2320.73 689.67
00003257 00000060 1973.92 252.27 444.27 589.13 2142.59 488.82 2332.10 479.44 2270.80 602.14 2151.35 696.84 2322.94 688.73
00003258 00000061 1973.68 253.68 443.57 585.77 2141.22 489.57 2331.45 479.91 2268.86 602.63 2155.40 697.71 2321.84 688.69
00003259 00000062 1973.15 251.29 444.53 580.05 2139.72 489.18 2330.21 480.30 2263.96 600.52 2163.92 697.83 2318.94 687.85
00003260 00000063 1972.46 253.39 445.34 573.91 2137.22 490.84 2329.24 480.51 2262.28 599.92 2164.39 695.74 2317.85 684.59
00003261 00000064 1969.74 252.23 446.73 572.83 2133.76 490.34 2326.66 480.86 2257.97 599.89 2162.57 697.32 2313.25 686.45
00003262 00000065 1967.38 252.86 446.22 574.88 2128.90 490.89 2322.56 481.09 2253.88 598.81 2155.51 698.53 2310.85 687.73
00003263 00000066 1963.04 252.11 446.27 576.56 2122.93 490.81 2317.93 480.41 2248.40 598.35 2149.44 697.64 2307.93 686.19
00003264 00000067 1957.89 248.90 447.14 580.02 2114.87 491.20 2311.90 480.14 2240.94 598.42 2141.65 696.80 2302.71 684.89
00003265 00000068 1954.48 250.81 445.12 579.95 2106.04 492.93 2303.18 481.64 2231.89 600.66 2130.73 697.83 2295.78 685.85
00003266 00000069 1948.60 253.59 445.87 576.82 2093.54 496.87 2294.40 482.70 2219.33 601.20 2117.34 698.49 2290.40 684.34
00003267 00000070 1942.15 259.23 445.67 572.27 2083.43 499.65 2286.42 482.91 2208.40 602.76 2113.15 700.19 2280.50 683.82
00003268 00000071 1934.50 263.29 446.10 567.07 2073.63 501.66 2276.62 482.37 2198.87 604.44 2108.03 702.37 2273.26 684.17
00003269 00000072 1928.00 259.53 445.94 576.37 2066.93 510.19 2269.60 489.66 2190.41 603.98 2103.00 707.14 2264.48 688.29
00003270 00000073 1924.68 259.74 441.47 587.14 2061.85 512.32 2263.07 495.27 2182.29 600.33 2093.64 710.80 2255.31 694.84
00003271 00000074 1915.91 254.26 445.10 588.86 2056.96 507.72 2255.40 487.63 2182.09 594.60 2088.51 704.50 2258.47 687.44
00003272 00000075 1904.20 253.11 453.29 583.27 2050.59 499.56 2248.52 477.16 2176.47 594.02 2082.91 700.58 2254.83 681.19
00003273 00000076 1898.79 252.85 453.14 574.62 2045.34 493.25 2243.77 472.78 2170.23 590.80 2080.16 695.53 2247.07 677.14
00003274 00000077 1893.78 252.89 451.78 572.99 2039.08 488.69 2237.65 469.78 2162.18 590.22 2072.63 693.14 2237.94 675.90
00003275 00000078 1887.36 254.72 452.57 573.58 2028.92 488.07 2228.93 470.66 2150.31 593.02 2062.90 692.41 2225.56 676.08
00003276 00000079 1881.40 252.72 453.39 577.42 2020.83 489.12 2223.12 473.57 2141.68 594.02 2055.13 693.66 2215.13 678.78
00003277 00000080 1873.77 255.22 453.92 576.10 2013.87 487.94 2218.01 474.63 2134.27 596.28 2045.78 693.94 2205.33 680.96
00003278 00000081 1867.52 256.62 457.04 574.20 2008.14 488.77 2212.46 477.52 2126.25 599.91 2039.25 694.73 2195.96 683.65
00003279 00000082 1863.91 260.95 452.04 574.97 2002.15 491.73 2204.01 480.90 2118.02 605.81 2031.26 700.48 2189.18 689.93
00003280 00000083 1860.51 262.11 445.82 580.62 1996.65 494.23 2196.02 484.47 2110.68 607.63 2024.97 705.96 2180.03 696.64
00003281 00000084 1853.88 259.35 445.10 582.76 1992.55 496.56 2190.35 487.85 2106.49 609.64 2022.76 710.84 2176.42 702.24
00003282 00000085 1851.34 263.98 440.50 579.22 1988.08 498.51 2183.76 490.36 2101.34 613.41 2012.34 711.00 2173.43 703.01
00003283 00000086 1841.57 266.24 442.34 573.62 1981.13 498.91 2179.15 493.21 2094.30 614.50 2003.85 707.73 2166.31 701.48
00003284 00000087 1830.76 265.35 448.07 573.56 1971.87 500.94 2173.75 495.14 2085.56 616.06 1996.16 708.57 2159.05 701.65
00003285 00000088 1823.22 265.79 450.53 572.09 1965.47 502.78 2166.65 496.87 2077.22 615.26 1992.08 708.78 2149.76 701.19
00003286 00000089 1817.88 271.67 452.63 566.76 1961.25 503.08 2162.19 498.55 2071.86 619.26 1985.78 706.40 2144.63 699.49
00003287 00000090 1813.01 273.05 452.35 569.81 1955.26 504.65 2157.54 499.70 2067.90 621.40 1976.89 708.39 2140.89 701.32
00003288 00000091 1810.51 274.72 452.57 577.85 1953.97 505.16 2155.71 501.53 2066.82 622.85 1973.88 713.89 2138.46 707.80
00003289 00000092 1809.24 277.67 452.59 577.35 1954.06 504.71 2154.35 502.35 2065.55 627.15 1972.93 719.19 2133.86 713.92
00003290 00000093 1809.81 282.80 448.35 582.50 1951.62 507.21 2154.07 504.48 2068.15 629.57 1964.70 721.29 2140.51 716.32
00003291 00000094 1810.45 283.95 448.80 580.90 1950.92 510.44 2155.03 506.26 2068.69 632.11 1962.88 720.91 2145.69 715.11
00003292 00000095 1811.31 283.45 448.03 581.61 1952.73 511.02 2156.49 507.49 2071.52 632.38 1962.65 721.88 2146.93 716.87
00003293 00000096 1811.73 285.21 447.90 578.08 1954.81 512.02 2157.96 509.34 2073.30 633.32 1964.31 722.09 2147.04 717.66
00003294 00000097 1813.89 282.37 449.20 577.52 1958.01 513.15 2160.77 510.46 2074.92 631.17 1970.01 718.91 2147.99 714.33
00003295 00000098 1815.27 281.89 449.84 578.05 1961.68 515.18 2164.80 512.92 2079.96 630.08 1974.46 715.68 2151.65 711.58
00003296 DELETE   1821.25 278.31 447.58 576.61 1971.17 520.10 2172.49 516.80 2092.22 625.57 1983.01 712.44 2160.61 707.99
00003297 DELETE   1830.63 276.06 443.45 573.43 1985.30 518.02 2183.61 515.73 2104.99 624.19 1996.97 713.10 2168.94 709.61
00003298 00000101 1844.22 272.82 435.64 574.59 2003.82 507.58 2197.43 505.50 2126.04 620.16 2013.30 710.20 2181.22 707.85
00003299 DELETE   1856.68 279.47 438.65 577.23 2020.52 509.88 2212.38 507.20 2146.52 627.04 2020.94 708.13 2196.55 705.09
00003300 DELETE   1866.71 273.93 439.10 587.09 2036.84 507.06 2223.18 505.33 2166.13 620.58 2032.54 705.70 2210.99 704.44
00003301 DELETE   1874.93 271.36 442.70 592.68 2055.28 508.62 2235.31 503.09 2185.99 621.89 2046.28 708.05 2223.25 704.62
00003302 00000105 1885.61 267.76 437.45 593.04 2072.31 505.61 2248.94 498.55 2202.49 619.16 2062.41 704.90 2234.67 700.41
00003303 00000106 1895.84 269.29 430.93 590.00 2084.43 506.47 2257.61 497.55 2215.78 619.09 2074.12 704.26 2243.48 698.53
00003304 DELETE   1903.26 268.77 425.20 586.36 2092.24 505.18 2264.03 498.24 2223.65 617.64 2082.41 703.52 2247.21 699.55
00003305 00000108 1912.76 275.81 419.14 583.10 2099.97 507.84 2272.99 505.61 2232.86 624.51 2088.25 705.01 2248.55 704.38
00003306 DELETE   1921.45 276.32 415.36 577.53 2108.27 508.85 2278.31 504.94 2238.93 624.12 2098.31 704.42 2253.92 702.27
00003307 00000110 1928.28 277.81 411.93 572.29 2113.98 509.25 2282.49 504.42 2244.90 621.81 2108.51 706.94 2260.23 703.53
00003308 DELETE   1927.38 264.94 418.07 588.05 2118.74 509.84 2290.86 503.17 2252.47 619.96 2121.92 713.49 2270.65 708.51
00003309 DELETE   1934.30 260.66 418.97 591.95 2127.45 508.40 2299.79 502.76 2262.60 616.86 2135.80 715.16 2279.49 710.57
00003310 00000113 1940.21 257.15 420.07 594.81 2136.00 507.12 2307.74 501.55 2273.23 617.49 2145.27 714.85 2287.40 710.03
00003311 00000114 1954.20 266.83 415.26 584.01 2148.96 511.01 2310.89 502.63 2276.68 622.27 2152.76 715.39 2291.55 707.14
00003312 00000115 1959.30 267.16 412.13 593.16 2156.98 512.20 2321.69 502.86 2286.10 626.46 2160.58 721.69 2294.55 714.19
00003313 00000116 1963.53 271.90 411.94 591.82 2162.67 518.27 2327.05 503.17 2296.11 632.72 2160.71 724.51 2299.89 714.24
00003314 00000117 1973.86 275.31 404.68 589.44 2167.85 526.31 2330.49 507.18 2302.19 636.72 2163.19 723.89 2306.00 712.31
00003315 DELETE   1978.63 276.35 404.53 588.91 2173.47 531.91 2335.14 510.55 2308.67 639.19 2169.88 726.24 2312.67 713.28
00003316 00000119 1982.69 277.21 403.75 589.68 2178.58 535.38 2338.41 510.22 2317.22 638.62 2174.56 729.62 2316.68 714.12
00003317 00000120 1988.81 277.83 403.39 589.53 2176.75 533.68 2347.60 513.95 2325.64 641.60 2177.24 730.90 2327.87 718.40
00003318 00000121 1995.28 275.50 403.43 591.57 2191.36 537.06 2350.33 513.95 2334.73 636.17 2192.13 730.92 2332.37 717.56
00003319 00000122 2001.62 274.17 399.02 590.56 2203.06 539.12 2355.33 514.32 2345.18 635.07 2207.80 734.16 2338.60 719.49
00003320 00000123 2004.90 277.33 399.12 594.24 2209.25 541.53 2358.44 514.98 2352.13 636.34 2219.01 738.39 2343.31 721.74
00003321 00000124 2005.41 274.59 400.85 604.64 2210.54 539.44 2357.76 520.30 2353.46 640.63 2222.02 740.10 2345.34 728.27
00003322 00000125 2007.51 278.92 396.61 597.14 2210.52 543.17 2356.80 521.44 2352.42 646.91 2217.66 741.18 2341.72 727.47
00003323 DELETE   2004.19 281.78 397.48 591.20 2209.94 545.53 2357.08 525.23 2348.71 651.65 2212.43 742.16 2337.22 729.40
CROP_BBOX: 1513 0 2578 1117
