Video ID: 	dkKdK1V0Xqk
H: 	1080
W: 	1920
FPS: 	23.9760770849485

FRAME INDEX X0 Y0 W H [Landmarks (5 Points)]

00017379 00000000 658.77 180.65 352.79 531.85 789.76 430.04 944.35 392.47 909.56 523.81 838.81 606.30 961.17 574.76
00017380 00000001 655.78 180.50 353.54 533.38 784.31 430.64 939.46 393.71 904.48 523.93 834.24 606.81 958.89 575.77
00017381 00000002 651.69 184.25 353.98 533.02 781.59 430.69 935.94 395.72 901.29 525.19 831.19 608.13 954.55 578.85
00017382 00000003 647.65 186.30 355.01 534.22 779.26 431.51 933.91 396.94 899.17 526.80 826.67 608.42 951.82 579.49
00017383 DELETE   646.06 186.84 354.65 533.81 776.81 431.59 932.46 397.59 897.07 527.82 825.20 609.82 949.72 581.24
00017384 00000005 644.25 188.50 355.88 533.90 774.95 432.27 932.21 398.69 895.71 529.63 823.51 611.37 949.45 583.00
00017385 00000006 644.34 190.85 355.42 531.89 775.05 432.16 932.79 400.01 894.78 531.38 823.32 612.49 947.87 585.30
00017386 00000007 644.17 193.57 356.31 530.27 775.10 433.38 933.67 402.57 893.66 535.40 823.24 614.91 946.79 588.68
00017387 00000008 644.54 193.41 355.73 530.77 775.32 433.70 934.83 404.49 894.34 536.61 823.21 615.42 947.49 590.47
00017388 00000009 645.38 193.78 355.62 531.89 777.06 433.75 936.41 405.93 895.32 538.12 823.84 616.55 947.23 592.72
00017389 00000010 646.61 194.01 355.20 532.40 779.03 433.82 938.19 406.24 897.37 538.82 824.02 616.64 947.58 593.09
00017390 00000011 648.98 196.44 353.95 529.96 779.76 434.96 939.61 407.30 898.31 538.63 823.82 616.00 949.04 592.50
00017391 00000012 650.38 197.18 353.90 528.98 780.72 434.93 940.06 407.69 898.69 538.25 825.08 615.82 949.89 592.67
00017392 00000013 651.33 197.01 353.58 529.08 781.68 434.52 941.57 407.47 899.79 537.77 825.56 615.74 950.36 592.85
00017393 00000014 653.24 198.10 353.01 527.06 783.67 434.07 942.74 406.39 901.67 537.14 827.13 614.75 951.33 591.48
00017394 00000015 654.92 198.77 352.28 525.94 785.01 434.12 944.17 406.11 902.90 537.61 828.32 615.08 952.13 591.60
00017395 00000016 656.98 198.16 351.49 525.31 786.14 434.03 945.80 406.11 903.60 537.55 828.42 614.40 952.53 591.08
00017396 00000017 660.38 198.03 349.99 523.56 787.68 432.48 948.25 405.24 905.18 536.82 829.18 614.28 953.36 591.58
00017397 00000018 662.48 196.70 349.96 526.73 790.76 432.66 950.10 406.06 907.28 536.07 829.10 613.63 954.41 591.41
00017398 00000019 665.59 195.45 351.14 531.02 793.87 432.95 952.63 406.70 910.24 535.02 832.38 613.65 959.08 591.38
00017399 00000020 668.78 195.60 350.44 530.23 798.81 430.35 957.41 406.30 915.18 534.19 834.96 612.65 961.40 592.24
00017400 00000021 672.38 199.68 349.36 528.09 802.96 429.88 961.03 405.91 919.27 535.76 836.60 612.18 964.91 592.23
00017401 00000022 676.55 201.36 349.99 527.28 806.51 429.24 965.88 406.21 923.52 535.01 839.19 612.13 969.45 593.07
00017402 00000023 679.21 203.94 349.89 526.15 809.27 427.46 968.27 405.65 926.12 535.19 841.05 612.38 971.09 594.44
00017403 00000024 681.69 202.64 350.33 527.93 813.00 426.73 970.34 406.02 929.16 536.07 843.39 612.69 971.81 595.81
00017404 00000025 683.32 203.49 351.09 527.35 815.16 426.13 972.95 406.27 931.36 535.17 845.13 613.08 973.60 596.80
00017405 00000026 684.34 202.83 351.66 526.74 816.06 426.17 974.29 405.87 932.45 534.36 848.50 613.93 975.91 597.05
00017406 00000027 685.61 203.80 351.72 526.03 818.06 426.60 976.16 405.79 934.89 534.42 850.45 613.98 977.60 596.61
00017407 00000028 686.38 204.66 352.38 524.44 820.10 426.52 978.24 405.25 937.15 534.38 852.09 613.41 979.28 595.62
00017408 00000029 687.41 204.98 352.46 523.69 821.93 426.92 980.46 405.09 939.88 534.17 853.67 612.98 981.77 594.85
00017409 00000030 689.31 204.91 351.53 524.14 824.07 426.66 981.66 404.49 941.41 533.73 855.06 612.56 983.13 594.33
00017410 00000031 691.27 204.02 350.83 525.68 825.97 426.54 983.29 403.87 943.50 533.82 855.81 612.59 984.58 594.11
00017411 00000032 691.31 203.60 350.96 525.82 826.78 426.60 983.59 403.78 944.03 533.17 856.44 612.32 984.87 593.74
00017412 00000033 691.83 203.96 351.15 524.95 827.80 425.90 984.66 403.09 945.23 532.64 857.50 611.97 985.51 593.44
00017413 00000034 692.13 203.59 351.53 524.89 829.08 425.60 986.02 402.83 946.45 532.66 858.08 610.93 986.91 592.52
00017414 00000035 692.81 202.71 351.09 525.28 829.15 424.78 987.04 402.38 946.91 532.72 857.61 609.99 988.02 592.03
00017415 00000036 692.36 202.21 351.88 525.05 829.48 424.48 987.66 402.60 947.65 531.93 857.46 608.68 988.59 591.22
00017416 00000037 692.20 202.91 352.04 524.74 829.86 423.97 987.81 402.17 948.44 531.78 857.12 607.73 989.08 590.39
00017417 00000038 691.94 202.03 352.03 524.15 829.43 424.36 987.75 402.03 948.15 531.72 857.43 607.89 988.82 590.13
00017418 00000039 691.71 201.86 352.16 524.97 829.57 424.32 987.34 402.20 948.03 531.61 857.29 607.91 988.39 590.28
00017419 00000040 691.71 202.55 351.74 524.14 828.90 424.09 986.53 402.37 947.22 531.74 856.28 607.57 987.38 590.30
00017420 00000041 691.10 203.58 351.87 522.89 827.40 424.55 985.39 402.10 945.74 531.59 855.63 607.92 986.55 589.98
00017421 00000042 690.64 202.74 351.73 522.38 825.86 424.65 984.38 401.96 944.47 531.58 855.55 608.69 985.32 590.45
00017422 00000043 690.15 200.99 351.55 521.47 824.81 422.85 985.83 401.20 944.73 529.74 858.20 611.52 984.88 593.87
00017423 00000044 690.16 199.36 351.82 521.00 823.93 422.28 986.49 400.81 943.82 528.92 860.21 613.44 985.08 595.67
00017424 00000045 690.72 198.37 351.73 521.25 823.99 422.27 987.20 399.61 944.32 528.88 862.98 615.28 986.19 596.30
00017425 00000046 690.55 198.09 353.15 524.61 823.96 421.54 987.46 399.28 945.06 527.75 863.02 616.52 986.40 597.82
00017426 00000047 692.46 197.02 352.46 533.59 830.75 417.93 986.04 395.47 951.42 524.16 868.88 618.49 985.81 600.03
00017427 00000048 696.65 188.97 350.15 544.19 835.46 416.47 989.74 392.67 956.20 518.71 871.05 616.47 991.01 597.39
00017428 00000049 698.36 182.22 349.36 538.55 839.83 417.52 995.88 390.08 962.95 514.71 873.96 607.65 1000.59 585.87
00017429 00000050 698.91 176.33 346.40 534.46 836.91 413.61 997.58 386.52 960.32 510.26 869.26 600.31 1002.58 579.00
00017430 00000051 696.26 176.83 346.30 534.00 833.44 412.58 993.78 384.77 958.30 508.95 865.77 597.91 1000.69 576.04
00017431 00000052 694.11 178.01 346.34 532.43 828.25 411.69 989.21 384.03 954.07 510.70 861.69 598.40 996.49 576.83
00017432 00000053 690.82 178.76 348.42 536.29 827.77 410.61 985.55 385.84 951.83 510.36 862.79 601.59 990.32 582.05
00017433 00000054 690.37 178.38 348.66 538.41 829.53 409.95 984.83 385.80 952.69 510.59 866.86 605.89 987.53 586.72
00017434 00000055 696.90 175.12 342.83 535.79 841.90 410.34 994.94 383.45 966.59 506.21 878.30 604.60 997.28 583.13
00017435 DELETE   704.57 168.80 338.86 532.13 855.65 406.33 1004.58 378.00 979.91 490.83 891.08 596.00 1009.10 573.24
00017436 00000057 706.09 151.90 345.53 543.30 865.78 395.40 995.53 366.15 990.71 472.14 920.69 577.63 1013.63 553.82
00017437 00000058 708.59 148.28 349.10 538.06 875.44 387.70 998.60 359.46 1000.85 462.43 929.57 570.42 1017.82 548.01
00017438 00000059 706.38 149.47 348.64 534.58 872.13 387.41 999.75 359.50 999.64 463.66 922.25 569.25 1016.60 547.54
00017439 00000060 698.11 148.64 351.54 532.82 869.07 390.12 1004.66 360.60 997.62 466.42 916.51 569.45 1014.05 549.10
00017440 00000061 695.42 151.02 350.80 535.87 864.88 389.34 1001.15 361.68 991.33 473.23 910.88 571.02 1009.60 552.08
00017441 00000062 694.28 152.19 349.45 537.48 863.13 389.63 999.44 361.92 988.71 475.86 910.10 573.08 1007.94 554.04
00017442 00000063 695.67 153.43 348.97 540.08 862.47 392.18 999.81 365.33 986.70 477.31 906.89 574.22 1008.63 555.74
00017443 00000064 696.38 153.54 347.53 542.61 861.50 391.96 1000.97 366.71 985.95 480.32 902.41 575.80 1010.34 558.44
00017444 00000065 703.61 159.54 341.98 539.17 858.26 397.44 1006.22 370.50 986.55 482.24 886.63 584.89 1011.18 563.98
00017445 00000066 702.60 161.26 343.01 536.12 856.16 394.97 1003.20 367.79 985.37 479.36 883.88 581.30 1009.69 560.28
00017446 00000067 701.59 159.24 343.62 533.78 854.66 390.48 1001.14 364.30 983.68 473.41 884.49 578.13 1008.44 557.69
00017447 00000068 694.38 154.08 348.36 537.17 856.09 379.48 993.96 357.39 981.18 469.46 905.10 567.54 1006.34 551.88
00017448 00000069 693.41 150.35 347.53 537.75 856.13 376.76 993.43 354.86 982.20 467.88 908.51 566.72 1005.91 551.21
00017449 00000070 692.93 151.40 348.58 536.98 858.32 376.21 995.64 355.01 983.48 468.82 911.23 567.94 1004.85 553.32
00017450 00000071 693.63 153.35 349.49 535.96 861.18 377.12 998.28 356.41 984.84 471.61 912.89 570.07 1005.05 556.28
00017451 00000072 694.58 155.39 349.26 536.10 864.29 377.89 1000.33 358.02 987.24 471.68 913.86 570.87 1004.58 558.27
00017452 00000073 695.66 153.56 348.91 538.80 865.30 376.92 1001.30 358.03 988.97 469.00 913.53 569.98 1005.81 558.00
00017453 00000074 696.16 147.71 348.79 544.11 865.68 371.72 1002.12 351.66 992.65 466.57 908.06 564.70 1008.21 551.19
00017454 00000075 698.72 143.36 349.92 551.25 869.06 364.58 999.05 346.58 996.91 455.55 901.04 560.09 1007.31 546.61
00017455 00000076 701.11 140.62 347.32 554.84 869.99 358.15 999.78 342.67 999.29 450.08 904.53 559.69 1005.99 548.05
00017456 00000077 702.65 135.08 346.95 558.25 873.08 358.28 1001.90 342.33 1001.99 449.36 911.59 560.53 1008.35 548.45
00017457 00000078 704.94 135.40 347.93 554.86 875.63 361.37 1003.46 345.00 1003.02 449.89 920.60 561.65 1011.23 549.06
00017458 00000079 711.69 139.45 347.81 549.64 877.90 364.06 1009.21 348.92 1006.48 452.17 925.65 564.12 1018.93 552.16
00017459 00000080 716.15 141.95 346.57 545.51 882.29 369.10 1012.82 352.97 1013.15 455.17 932.58 566.05 1025.57 553.14
00017460 00000081 721.23 141.41 346.00 546.13 886.66 372.69 1017.68 355.46 1019.07 456.18 936.05 566.00 1030.97 552.12
00017461 00000082 724.36 138.13 347.16 549.17 889.25 373.95 1022.64 354.45 1025.39 454.98 937.09 565.31 1035.87 549.75
00017462 00000083 725.58 137.70 351.08 547.87 890.87 373.17 1029.83 350.06 1032.16 452.03 934.29 562.02 1041.64 543.48
00017463 00000084 724.85 138.97 351.62 544.60 891.93 371.02 1030.35 349.42 1031.47 450.72 929.82 558.54 1037.38 541.49
00017464 00000085 725.73 142.31 349.05 542.88 892.49 375.45 1028.43 354.42 1030.09 455.39 930.79 561.08 1035.92 544.57
00017465 00000086 725.11 147.51 346.76 547.81 893.35 383.33 1023.31 366.75 1021.64 467.61 927.83 568.17 1028.71 555.31
00017466 00000087 725.31 154.40 348.76 553.52 894.98 393.55 1024.24 377.06 1019.19 483.89 921.29 578.80 1021.90 566.05
00017467 00000088 723.86 159.73 350.72 553.39 897.93 400.20 1028.97 380.33 1023.01 497.03 919.96 588.33 1019.61 573.03
00017468 00000089 723.47 162.97 355.29 552.60 902.08 405.20 1034.56 382.84 1027.15 507.71 916.73 590.74 1021.14 573.96
00017469 00000090 725.39 167.32 357.02 549.00 903.68 408.12 1039.28 385.07 1030.50 512.06 913.68 589.72 1024.96 573.02
00017470 00000091 725.88 167.88 358.09 547.35 905.41 408.39 1041.84 384.75 1032.01 512.66 914.81 589.16 1027.21 572.13
00017471 00000092 728.37 164.47 355.55 548.74 905.24 406.17 1043.46 382.87 1033.89 507.57 920.64 591.37 1030.09 574.10
00017472 00000093 729.88 162.21 353.66 548.55 905.37 403.30 1041.64 380.61 1033.83 502.50 923.11 589.22 1030.63 572.25
00017473 00000094 731.82 158.69 351.11 547.98 905.51 399.80 1040.27 379.78 1033.13 497.90 924.19 584.87 1030.28 570.10
00017474 00000095 732.78 156.79 350.28 546.83 905.71 397.74 1039.62 378.83 1034.40 492.58 924.17 581.04 1030.77 567.51
00017475 00000096 733.84 155.51 349.84 547.67 908.05 396.64 1040.67 379.41 1036.94 490.85 924.75 578.91 1031.63 566.93
00017476 00000097 732.82 156.99 350.42 548.45 908.57 395.26 1039.45 380.24 1033.76 491.82 923.41 579.22 1026.94 568.77
00017477 00000098 730.90 159.04 353.05 555.28 909.20 397.53 1039.71 382.32 1034.44 495.28 918.74 582.62 1025.26 572.19
00017478 00000099 730.85 159.80 354.81 560.86 910.92 398.99 1042.09 384.02 1037.40 499.20 916.33 586.37 1024.93 576.54
00017479 00000100 731.56 160.74 355.57 561.05 912.17 401.05 1044.15 385.38 1039.74 501.31 916.74 587.50 1026.69 577.16
00017480 00000101 733.08 160.78 355.25 562.86 914.28 402.37 1046.48 387.31 1043.03 503.60 916.56 588.43 1028.33 578.81
00017481 00000102 733.86 159.49 354.63 557.46 915.28 401.16 1046.53 388.10 1042.13 499.97 919.38 583.74 1029.04 575.60
00017482 00000103 735.67 157.42 353.71 556.77 918.33 400.32 1049.33 386.99 1047.61 499.13 919.68 579.61 1032.38 571.90
00017483 00000104 737.85 156.34 352.62 557.07 920.53 399.64 1051.39 385.81 1051.54 497.50 920.36 577.68 1034.88 569.97
00017484 00000105 739.13 155.30 353.30 557.59 921.77 398.65 1053.59 385.28 1053.63 495.52 921.47 576.61 1038.24 569.37
00017485 00000106 740.94 155.76 353.26 556.25 923.24 398.72 1056.36 387.16 1055.30 494.19 923.10 576.42 1041.16 570.53
00017486 00000107 742.60 158.62 353.09 553.99 924.04 398.31 1059.38 388.53 1055.56 495.01 923.37 576.80 1043.27 572.29
00017487 00000108 742.83 161.66 355.13 552.65 925.28 399.37 1062.50 389.56 1057.12 496.81 924.73 578.65 1046.60 573.78
00017488 00000109 744.21 160.81 355.69 553.18 926.24 399.53 1065.51 389.97 1057.94 498.71 926.81 580.15 1048.66 575.30
00017489 00000110 744.96 163.26 355.17 550.11 926.79 399.47 1066.17 391.02 1057.26 498.85 927.72 580.34 1048.81 576.31
00017490 00000111 745.51 162.41 354.84 550.60 927.20 400.34 1066.14 389.84 1058.29 498.79 928.53 579.99 1050.42 574.39
00017491 00000112 746.49 162.70 353.69 549.26 927.52 399.36 1066.40 389.69 1057.86 497.52 928.50 579.34 1050.23 574.40
00017492 00000113 746.64 162.54 353.01 547.38 926.41 397.96 1066.11 390.29 1055.75 496.78 927.63 579.33 1047.62 576.06
00017493 00000114 746.37 163.31 352.89 550.43 927.93 396.34 1064.54 390.28 1054.89 495.97 928.30 579.40 1045.57 577.28
00017494 00000115 745.12 164.52 352.18 549.97 926.92 397.07 1062.83 391.16 1054.19 496.08 924.69 577.68 1043.54 575.91
00017495 00000116 744.75 164.17 352.46 550.49 927.13 396.14 1062.17 390.64 1053.63 496.38 923.17 576.88 1042.27 575.50
00017496 00000117 743.94 163.08 352.44 551.11 927.47 395.80 1060.38 390.32 1053.30 495.43 922.18 575.93 1039.81 574.71
00017497 00000118 743.25 162.64 353.02 552.36 928.12 395.25 1059.19 389.33 1053.86 495.25 921.26 574.82 1038.67 573.44
00017498 00000119 742.58 163.72 353.59 551.49 927.62 394.63 1059.11 389.29 1053.23 494.58 920.22 574.43 1037.95 573.52
00017499 00000120 742.95 163.56 353.06 551.12 927.55 394.72 1059.39 389.17 1053.37 494.42 920.41 574.44 1038.28 573.36
00017500 00000121 743.25 163.10 353.22 551.43 927.68 394.34 1060.19 389.86 1053.14 494.93 920.71 574.54 1038.74 574.26
00017501 00000122 743.26 162.09 353.96 551.51 928.52 394.26 1061.39 390.37 1053.27 494.18 923.96 575.24 1040.18 575.12
00017502 00000123 744.60 162.12 353.63 547.27 930.51 395.38 1064.89 389.61 1057.55 495.60 930.18 577.31 1043.42 575.63
00017503 00000124 745.71 158.85 355.00 548.60 930.32 397.63 1066.63 390.37 1058.13 498.82 933.47 579.44 1047.38 576.18
00017504 00000125 744.24 161.68 355.19 547.26 926.41 398.01 1063.30 392.36 1050.50 503.68 930.15 581.76 1043.05 579.39
00017505 00000126 739.88 165.22 357.89 546.18 920.79 395.14 1057.56 392.92 1039.70 506.04 922.34 581.00 1036.56 581.16
00017506 00000127 738.63 166.02 357.92 543.05 916.06 390.94 1052.20 391.08 1032.20 504.96 917.17 578.17 1029.21 580.22
00017507 00000128 737.28 160.63 359.70 546.90 913.68 388.04 1051.54 385.68 1031.92 500.58 918.00 576.86 1030.32 576.70
00017508 00000129 738.33 156.87 358.61 546.72 913.37 385.12 1052.62 383.74 1032.82 495.17 920.22 575.19 1030.98 575.87
00017509 00000130 741.94 156.95 356.51 545.74 917.58 384.78 1055.25 384.72 1037.16 492.04 924.25 573.42 1034.38 575.30
00017510 00000131 746.38 158.23 353.99 543.88 924.71 383.17 1058.63 384.64 1042.26 489.76 928.02 572.27 1035.66 575.91
00017511 00000132 747.83 161.17 353.78 541.89 930.34 382.48 1062.37 385.12 1048.72 489.16 929.41 570.30 1037.59 575.49
00017512 00000133 748.87 160.03 354.32 542.60 934.68 382.01 1065.51 388.01 1052.63 488.52 930.24 566.94 1039.17 575.20
00017513 00000134 752.24 158.55 354.26 542.20 936.67 382.72 1070.84 388.34 1057.88 486.82 930.61 563.47 1046.38 571.84
00017514 00000135 753.10 159.71 354.99 543.05 939.15 382.99 1073.38 390.15 1060.43 487.56 932.55 564.03 1048.42 573.45
00017515 00000136 754.89 159.20 354.35 543.19 942.83 383.20 1076.54 390.57 1063.53 491.14 935.11 566.17 1048.33 575.86
00017516 00000137 757.42 158.72 354.96 546.64 946.29 384.79 1080.26 391.87 1066.51 495.50 937.60 568.26 1052.40 577.50
00017517 00000138 758.04 158.49 355.59 547.10 947.64 386.46 1082.54 393.29 1068.44 499.87 938.40 569.67 1054.41 578.82
00017518 00000139 760.19 160.49 354.14 544.16 948.84 387.29 1085.59 393.38 1070.74 502.34 938.31 570.34 1055.92 579.23
00017519 00000140 759.76 162.04 354.83 544.64 950.12 387.61 1087.18 394.17 1071.69 503.07 937.94 570.25 1056.72 579.45
00017520 00000141 759.48 161.71 354.30 545.14 949.74 388.10 1086.35 393.96 1071.05 502.64 937.09 569.42 1057.24 578.17
00017521 00000142 759.72 161.65 354.65 545.30 950.65 388.62 1087.04 394.33 1072.00 503.32 937.51 569.52 1057.41 578.11
00017522 00000143 759.59 163.65 355.64 549.03 953.06 389.62 1087.97 395.17 1073.49 503.53 939.68 572.60 1057.81 580.71
00017523 00000144 757.68 163.38 358.60 560.68 956.52 388.58 1087.40 394.59 1078.12 504.55 939.20 579.70 1052.55 588.39
00017524 00000145 758.17 165.33 359.72 558.49 959.36 388.46 1090.40 396.71 1080.33 506.60 940.48 579.36 1053.65 589.94
00017525 00000146 759.03 164.06 355.47 549.65 956.90 388.33 1083.46 395.74 1068.23 507.20 946.96 580.48 1041.51 587.57
00017526 00000147 759.60 165.00 357.95 548.18 961.33 388.39 1085.42 397.19 1071.74 506.36 951.42 580.23 1041.65 588.39
00017527 00000148 762.49 163.96 357.82 549.50 968.97 389.03 1084.97 399.00 1075.64 506.35 958.56 580.46 1040.45 589.76
00017528 00000149 763.96 163.42 356.92 550.96 975.31 393.74 1084.77 402.09 1080.58 507.35 967.06 582.15 1042.00 590.22
00017529 00000150 762.14 167.10 357.68 549.17 973.69 401.35 1085.62 407.66 1078.84 514.18 966.46 587.83 1041.47 594.01
00017530 00000151 761.61 173.31 359.34 543.83 967.75 406.91 1086.24 412.60 1072.40 519.04 961.21 592.90 1038.69 598.07
00017531 00000152 757.01 174.67 363.21 544.59 962.33 408.98 1085.65 413.02 1069.14 524.57 953.68 596.83 1035.59 600.63
00017532 00000153 755.04 172.41 363.17 545.34 957.30 407.18 1084.50 409.68 1065.39 529.47 941.60 594.96 1033.60 598.17
00017533 00000154 755.15 173.69 360.02 543.24 951.43 402.54 1080.01 406.11 1058.50 526.78 934.36 590.04 1031.82 594.24
00017534 00000155 754.86 173.21 359.24 541.10 948.55 399.82 1079.76 404.94 1057.26 523.16 931.72 586.53 1033.51 591.99
00017535 00000156 753.90 173.21 361.36 539.48 951.56 399.78 1080.80 403.81 1060.40 521.62 934.65 585.61 1034.60 590.16
00017536 00000157 756.30 173.41 361.94 540.66 956.54 401.47 1084.72 405.72 1065.70 521.51 939.35 585.41 1037.10 590.35
00017537 00000158 759.47 171.75 361.57 549.93 960.88 398.13 1085.92 406.09 1070.84 519.73 940.85 586.08 1036.31 594.60
00017538 00000159 764.18 170.13 358.83 551.25 966.59 397.99 1087.67 406.37 1075.28 518.83 947.96 586.17 1038.39 595.06
00017539 00000160 764.24 170.77 358.09 550.68 970.00 402.39 1087.09 407.77 1078.30 518.26 954.88 587.42 1040.22 593.86
CROP_BBOX: 464 0 1302 852
