Video ID: 	sD_wIAAoAoU
H: 	1080
W: 	1920
FPS: 	25.0

FRAME INDEX X0 Y0 W H [Landmarks (5 Points)]

00001905 00000000 945.82 266.55 399.32 539.19 1051.53 472.15 1220.74 511.43 1102.63 590.77 1027.82 660.73 1165.96 694.64
00001906 00000001 947.28 259.16 398.74 542.14 1051.64 468.66 1221.70 507.93 1103.61 588.52 1026.39 658.33 1168.93 691.83
00001907 00000002 952.75 252.75 399.48 543.37 1056.58 469.12 1229.48 504.40 1113.58 588.44 1038.26 656.63 1182.74 686.69
00001908 00000003 963.88 256.63 394.05 539.76 1068.04 473.07 1238.22 501.12 1131.74 591.08 1058.90 661.50 1196.88 685.83
00001909 00000004 973.40 254.38 389.33 551.25 1082.92 475.08 1252.59 504.82 1154.39 593.74 1071.60 671.23 1200.27 696.71
00001910 DELETE   968.11 263.12 392.92 552.89 1074.02 490.73 1237.13 516.50 1138.88 596.24 1072.62 678.95 1191.38 700.69
00001911 DELETE   969.86 254.86 388.59 567.93 1052.58 485.16 1221.18 510.08 1112.99 603.85 1055.91 687.89 1168.90 709.27
00001912 DELETE   953.21 280.08 394.65 560.33 1029.01 502.22 1192.06 524.39 1077.73 611.44 1035.30 703.87 1140.32 721.79
00001913 00000008 955.63 294.14 386.83 543.23 1026.04 509.24 1191.96 532.37 1072.44 621.70 1030.46 707.33 1139.93 725.99
00001914 00000009 959.08 287.36 392.45 552.67 1032.04 507.94 1199.45 529.15 1083.69 620.84 1038.77 704.87 1154.46 721.83
00001915 00000010 969.74 278.35 390.43 552.52 1051.27 497.06 1224.10 518.90 1114.67 616.12 1056.39 694.96 1188.96 713.60
00001916 00000011 977.08 271.46 390.22 556.52 1063.35 498.47 1235.92 516.48 1129.65 611.79 1070.60 694.54 1203.39 709.70
00001917 00000012 980.42 266.94 389.14 556.45 1062.40 491.07 1238.78 510.07 1130.23 606.00 1069.95 682.70 1213.70 698.41
00001918 00000013 977.55 262.04 385.34 553.07 1057.30 480.15 1228.37 498.01 1119.47 598.76 1064.94 676.22 1203.87 690.39
00001919 00000014 980.46 254.96 386.27 548.99 1056.48 470.24 1228.74 490.39 1113.65 588.46 1062.11 670.64 1195.36 687.54
00001920 00000015 986.62 249.26 385.83 547.97 1070.27 468.86 1239.51 489.95 1132.20 586.16 1067.29 662.38 1202.11 680.47
00001921 00000016 989.60 252.96 393.56 540.59 1089.71 464.21 1259.47 486.39 1159.38 576.10 1084.60 657.58 1223.45 676.87
00001922 00000017 1006.73 245.91 391.89 540.46 1110.28 460.60 1275.22 484.03 1180.25 571.42 1107.06 652.42 1239.48 672.80
00001923 00000018 1024.43 233.58 381.42 542.68 1120.45 448.33 1284.97 475.60 1186.40 566.48 1115.26 643.14 1246.70 666.15
00001924 00000019 1027.17 217.09 385.57 551.51 1118.08 431.65 1290.03 458.88 1182.65 545.27 1111.58 627.09 1247.66 649.85
00001925 00000020 1027.38 206.33 390.28 550.89 1112.05 413.70 1288.01 443.18 1171.64 530.66 1103.55 605.41 1238.96 630.45
00001926 00000021 1029.85 183.94 392.66 553.00 1116.50 409.20 1284.56 428.50 1172.56 524.32 1115.36 601.42 1248.32 618.72
00001927 00000022 1039.20 185.23 388.04 550.55 1122.21 405.24 1291.97 423.34 1181.53 510.38 1126.04 599.38 1257.52 614.85
00001928 00000023 1049.20 176.11 389.09 553.66 1129.93 398.07 1298.36 408.51 1189.74 500.10 1141.76 593.39 1273.02 601.84
00001929 00000024 1058.07 163.42 385.46 553.19 1138.92 392.77 1303.88 401.09 1206.01 491.40 1149.32 580.85 1287.48 588.53
00001930 00000025 1062.00 152.35 390.97 558.22 1131.15 387.66 1298.12 390.16 1187.02 485.23 1148.86 567.08 1295.17 569.58
00001931 00000026 1061.87 158.23 388.16 549.14 1127.22 387.85 1282.63 387.62 1174.40 483.56 1147.00 561.28 1287.67 560.26
00001932 00000027 1061.70 158.98 388.45 548.99 1116.90 395.38 1272.17 386.49 1169.61 487.83 1141.60 565.40 1283.66 557.74
00001933 00000028 1055.60 168.30 386.76 541.92 1114.82 392.97 1272.22 389.65 1165.95 492.20 1134.07 567.37 1281.93 563.92
00001934 00000029 1054.99 175.92 387.58 538.70 1115.69 397.44 1275.64 398.80 1164.07 496.71 1129.66 576.84 1275.51 577.27
00001935 00000030 1047.85 189.74 392.66 542.22 1119.12 408.02 1279.08 419.81 1167.59 511.40 1125.87 587.02 1268.51 595.83
00001936 00000031 1048.81 194.67 385.67 548.35 1116.29 417.77 1290.63 439.23 1173.26 531.48 1116.27 598.85 1270.31 615.16
00001937 00000032 1039.12 219.08 384.37 546.44 1111.17 439.18 1275.84 453.50 1165.68 543.71 1108.89 615.16 1262.77 626.91
00001938 00000033 1035.81 227.99 377.85 551.64 1108.99 448.27 1268.78 468.72 1156.59 552.73 1100.53 623.92 1253.19 640.94
00001939 00000034 1029.36 236.67 373.83 554.60 1108.27 449.35 1266.23 472.33 1155.57 552.82 1098.25 630.42 1247.24 650.08
00001940 00000035 1023.91 238.90 370.57 553.30 1103.17 443.50 1262.15 466.42 1150.62 548.46 1093.29 629.02 1241.60 649.34
00001941 00000036 1018.73 238.18 369.58 548.10 1097.96 438.17 1257.74 458.14 1147.94 537.87 1089.44 619.80 1240.10 637.59
00001942 00000037 1014.14 235.10 370.05 541.95 1091.81 431.18 1250.52 449.63 1143.79 530.84 1087.28 608.24 1238.35 624.59
00001943 00000038 1013.06 219.11 372.71 547.78 1088.77 426.74 1251.01 440.39 1146.07 527.41 1090.23 604.03 1240.57 615.94
00001944 00000039 1005.48 205.76 379.16 538.69 1085.60 426.60 1252.62 437.29 1147.48 530.73 1094.30 601.84 1243.60 610.84
00001945 00000040 1008.99 210.01 378.77 530.29 1087.71 428.14 1250.22 435.49 1146.85 529.73 1100.49 601.44 1241.36 607.91
00001946 00000041 1014.16 215.10 377.42 524.88 1091.82 428.61 1250.56 434.53 1148.59 530.48 1105.49 602.34 1240.96 608.11
00001947 00000042 1025.65 216.68 369.90 524.52 1101.45 435.79 1257.90 442.54 1156.39 533.23 1112.55 606.24 1245.27 613.55
00001948 00000043 1032.83 220.92 367.93 521.66 1108.89 441.85 1263.19 448.50 1163.82 537.75 1119.36 611.06 1248.94 618.34
00001949 00000044 1037.99 213.78 372.66 527.55 1106.57 436.20 1272.81 439.22 1173.44 535.75 1124.06 617.68 1256.93 620.50
00001950 00000045 1037.13 212.81 373.54 526.16 1114.35 431.27 1280.15 437.44 1177.01 536.72 1126.80 609.96 1264.12 616.69
00001951 00000046 1041.29 219.43 373.49 528.38 1118.22 428.37 1287.68 438.70 1190.28 534.41 1129.51 614.57 1271.65 623.87
00001952 00000047 1043.26 217.13 376.25 533.93 1116.27 432.25 1288.94 437.02 1187.86 533.57 1128.02 616.84 1274.61 621.27
00001953 00000048 1047.29 216.90 375.45 546.98 1122.57 433.73 1291.91 438.02 1193.62 533.29 1131.76 620.40 1278.23 624.30
00001954 00000049 1050.34 218.19 374.09 550.93 1126.58 435.21 1294.81 438.58 1197.13 532.10 1135.16 621.81 1283.94 625.17
00001955 00000050 1050.92 219.99 373.68 548.54 1128.63 434.74 1296.84 438.90 1200.31 531.30 1136.29 619.65 1287.17 623.74
00001956 00000051 1051.11 219.15 373.49 541.09 1127.29 432.40 1298.13 437.21 1200.42 531.25 1136.70 617.12 1286.34 621.87
00001957 00000052 1051.61 223.34 369.51 534.60 1131.01 425.62 1300.50 440.11 1200.58 527.73 1135.69 611.17 1282.63 622.73
00001958 00000053 1052.06 215.70 373.90 544.55 1126.57 429.47 1296.92 436.23 1194.59 528.53 1133.36 616.23 1280.85 622.35
00001959 00000054 1049.44 212.22 374.90 545.67 1121.73 427.27 1292.28 437.60 1185.26 529.52 1125.76 614.21 1271.53 623.13
00001960 00000055 1046.07 215.65 378.00 539.35 1121.13 419.21 1290.95 445.45 1172.42 528.93 1112.62 605.19 1253.58 627.13
00001961 00000056 1043.27 214.43 379.66 538.24 1117.06 416.25 1283.16 444.15 1163.73 526.52 1106.42 602.81 1242.63 626.01
00001962 00000057 1045.08 216.27 378.20 539.79 1118.11 417.58 1282.73 446.31 1161.94 526.62 1106.25 604.05 1241.37 627.87
00001963 00000058 1047.51 216.36 378.86 542.58 1121.17 418.98 1286.34 448.64 1165.24 529.13 1108.91 605.65 1246.75 630.20
00001964 00000059 1051.15 215.89 376.85 544.87 1125.96 421.40 1290.34 451.43 1170.05 529.87 1112.65 607.52 1250.54 632.37
00001965 00000060 1051.38 216.33 377.24 544.43 1126.14 421.65 1291.20 451.75 1170.11 530.18 1112.76 607.95 1251.39 632.88
00001966 00000061 1050.34 214.79 378.20 543.82 1124.17 419.93 1289.49 449.88 1168.05 529.17 1111.42 606.76 1250.21 631.39
00001967 00000062 1049.31 215.86 378.62 540.94 1122.89 418.94 1288.39 448.80 1167.44 529.36 1110.57 605.75 1248.81 630.35
00001968 00000063 1048.26 214.95 378.56 542.75 1121.76 420.00 1287.21 449.06 1167.23 529.50 1110.57 606.39 1247.90 630.46
00001969 00000064 1046.57 214.99 378.02 541.86 1120.19 419.83 1286.67 448.64 1167.48 529.42 1109.47 606.51 1247.45 630.36
00001970 00000065 1045.47 216.12 378.34 539.41 1118.71 419.45 1284.76 447.91 1166.15 529.40 1108.84 606.06 1245.64 629.60
00001971 00000066 1044.91 214.98 378.03 538.16 1117.36 418.89 1283.42 447.20 1165.03 528.78 1107.88 605.10 1244.55 628.37
00001972 00000067 1044.23 212.81 377.95 537.84 1116.22 418.18 1282.64 446.37 1164.90 528.52 1107.43 604.41 1244.01 627.44
00001973 00000068 1042.99 222.19 374.04 530.41 1121.54 416.76 1283.48 449.07 1169.33 525.30 1112.59 603.90 1249.23 630.69
00001974 00000069 1043.44 224.09 374.35 525.16 1122.41 416.75 1284.16 449.53 1170.89 526.22 1114.15 602.23 1250.57 629.45
00001975 00000070 1042.98 221.40 374.78 523.56 1121.17 417.52 1283.82 449.25 1171.81 527.30 1113.40 602.15 1250.68 628.79
00001976 00000071 1047.39 216.06 367.56 523.21 1122.12 430.25 1280.19 456.69 1170.78 524.00 1111.57 602.15 1250.44 624.96
00001977 00000072 1047.45 217.83 368.11 519.00 1122.92 431.78 1280.99 458.79 1171.97 524.92 1111.66 600.04 1252.15 623.49
00001978 00000073 1046.45 217.29 369.44 522.21 1122.82 431.32 1281.14 460.08 1170.46 525.98 1111.09 597.97 1253.09 622.49
00001979 00000074 1045.01 218.33 369.83 523.25 1121.23 428.03 1282.00 457.23 1171.45 525.11 1108.52 597.95 1252.72 622.55
00001980 00000075 1045.14 222.11 371.41 520.94 1121.66 422.69 1282.93 455.79 1171.48 526.89 1109.63 602.66 1247.67 630.88
00001981 00000076 1044.06 226.20 373.10 517.94 1122.72 419.65 1284.39 455.98 1172.03 527.32 1108.86 603.58 1244.67 634.69
00001982 00000077 1043.72 227.46 372.13 518.44 1122.30 419.59 1284.62 456.26 1171.98 529.86 1108.33 605.16 1244.89 636.51
00001983 00000078 1040.51 224.84 372.89 523.75 1119.02 420.20 1283.30 456.18 1169.20 528.89 1105.41 606.78 1242.11 637.60
00001984 00000079 1038.67 224.90 373.76 524.99 1115.75 421.13 1281.33 455.95 1165.85 528.72 1103.82 608.75 1239.90 638.82
00001985 00000080 1037.73 226.16 373.55 525.58 1115.33 421.44 1280.56 455.95 1165.86 530.41 1104.21 610.02 1241.30 639.77
00001986 00000081 1035.78 227.02 374.32 528.21 1114.48 421.11 1279.76 457.29 1164.53 531.32 1101.91 608.68 1241.67 639.45
00001987 00000082 1034.80 227.29 375.81 530.35 1114.18 421.71 1279.85 457.47 1164.55 531.31 1101.40 610.18 1241.25 640.62
00001988 00000083 1034.83 224.24 374.20 534.37 1111.47 422.80 1278.87 457.60 1162.88 532.34 1098.78 614.07 1237.42 644.12
00001989 00000084 1029.73 220.55 383.86 542.51 1110.60 428.76 1277.76 463.22 1157.79 536.90 1094.96 619.24 1224.47 647.64
00001990 00000085 1036.47 218.71 378.50 551.46 1112.48 430.49 1272.43 461.74 1158.92 537.63 1099.80 618.75 1228.81 644.76
00001991 00000086 1040.85 217.93 373.43 549.16 1110.65 437.61 1276.32 461.43 1156.21 541.96 1100.96 626.10 1239.85 646.93
00001992 00000087 1040.16 217.81 374.80 549.64 1110.23 438.44 1275.95 462.82 1155.80 542.07 1099.88 625.09 1241.42 646.14
00001993 00000088 1039.15 219.89 375.66 547.27 1109.21 438.64 1275.03 462.88 1154.45 542.56 1099.27 626.81 1238.43 647.89
00001994 00000089 1039.59 220.63 374.82 545.44 1108.87 439.94 1274.38 463.58 1153.84 543.81 1100.38 628.11 1238.22 648.63
00001995 00000090 1038.88 221.56 375.20 542.55 1108.30 441.12 1274.69 465.41 1153.36 544.26 1099.06 628.73 1238.58 649.78
00001996 00000091 1038.29 220.86 376.57 544.06 1107.92 442.05 1274.85 466.48 1153.08 545.19 1099.14 629.85 1238.99 650.88
00001997 00000092 1038.41 221.95 376.42 547.97 1108.94 443.19 1273.79 468.28 1153.10 546.50 1098.65 629.88 1239.30 651.40
00001998 00000093 1038.66 225.81 375.93 549.46 1110.14 443.79 1272.91 469.21 1153.64 548.83 1098.69 630.31 1240.34 652.12
00001999 00000094 1038.26 223.53 376.88 551.23 1109.71 445.27 1273.56 471.38 1153.96 550.73 1098.84 631.49 1241.09 653.65
00002000 00000095 1037.34 225.83 377.72 545.58 1108.49 446.42 1273.29 472.33 1151.75 550.62 1098.41 631.57 1240.56 653.61
00002001 00000096 1036.88 225.02 377.49 545.82 1108.04 446.45 1272.80 472.61 1151.78 550.71 1097.88 630.81 1240.55 653.07
00002002 00000097 1037.74 225.19 377.32 549.03 1109.26 445.92 1272.78 473.43 1152.17 551.70 1098.20 630.64 1240.11 653.92
00002003 00000098 1037.15 228.52 377.94 549.07 1109.62 446.58 1272.18 473.93 1151.98 553.65 1098.63 632.48 1239.52 655.62
00002004 00000099 1036.10 228.56 377.56 548.08 1108.31 447.02 1271.10 475.11 1151.31 553.17 1097.60 632.00 1238.87 655.65
00002005 00000100 1035.17 229.46 378.46 543.51 1107.43 447.23 1272.15 475.88 1151.30 552.86 1096.41 631.51 1238.98 655.61
00002006 00000101 1033.75 231.88 378.32 538.32 1106.67 447.67 1272.75 477.05 1150.96 552.26 1095.14 631.62 1238.88 656.31
00002007 00000102 1034.14 230.20 378.29 538.16 1106.43 447.60 1272.47 476.93 1150.48 551.78 1095.22 630.59 1239.37 655.15
00002008 00000103 1033.94 231.97 377.97 535.16 1106.37 447.57 1272.31 477.23 1149.89 552.04 1095.16 629.89 1239.02 654.83
00002009 00000104 1032.33 232.61 378.80 535.53 1105.23 448.31 1270.84 478.50 1148.08 552.10 1093.65 628.98 1238.03 654.13
CROP_BBOX: 717 0 1681 978
