Video ID: 	q2x6m2Lctk4
H: 	1080
W: 	1920
FPS: 	25.0

FRAME INDEX X0 Y0 W H [Landmarks (5 Points)]

00003732 00000000 764.21 398.70 391.91 588.41 821.58 642.51 1017.85 721.83 850.24 814.86 818.47 847.19 967.62 911.24
00003733 DELETE   758.92 408.67 397.67 578.11 813.29 643.65 1006.99 723.35 841.38 814.45 811.38 844.39 960.16 908.59
00003734 DELETE   747.03 400.33 398.43 586.37 800.18 639.74 988.77 711.98 823.29 819.90 799.79 846.39 952.55 902.58
00003735 00000003 735.33 403.28 407.48 582.55 793.02 624.42 981.24 709.75 804.93 812.19 787.45 832.89 941.18 900.37
00003736 DELETE   739.74 388.63 401.63 591.97 784.84 624.50 982.20 719.04 806.20 808.88 773.37 831.91 922.63 905.71
00003737 DELETE   739.71 390.99 400.03 585.19 783.36 618.16 977.80 715.54 801.35 802.51 770.28 826.33 910.95 902.80
00003738 DELETE   741.19 383.39 398.10 594.71 785.24 613.06 972.21 713.87 796.45 795.11 769.23 820.45 904.67 899.90
00003739 00000007 738.81 376.36 402.27 601.20 786.80 609.03 973.20 709.49 797.54 788.79 768.68 818.07 903.30 897.61
00003740 00000008 737.96 382.77 407.06 592.45 786.87 608.39 977.66 704.78 802.99 785.84 772.82 816.90 907.64 893.41
00003741 00000009 736.13 381.54 418.90 588.88 788.62 601.27 982.01 702.91 805.10 784.94 775.89 811.94 911.07 892.51
00003742 00000010 729.34 367.39 431.25 604.05 784.95 595.82 983.72 694.45 806.12 786.15 772.74 813.04 913.82 891.03
00003743 00000011 726.25 367.82 433.78 602.57 785.32 593.67 985.13 688.95 809.93 784.22 774.93 810.66 916.62 886.14
00003744 DELETE   726.35 371.71 440.92 595.41 784.86 590.95 987.32 685.06 812.16 782.09 775.51 808.55 918.32 883.62
00003745 00000013 728.24 368.82 440.83 593.57 784.93 591.03 982.18 677.56 811.55 779.67 778.67 808.79 919.76 878.10
00003746 00000014 725.27 353.36 447.96 607.71 780.21 592.12 979.47 672.16 807.24 777.70 774.41 812.06 918.22 875.85
00003747 00000015 716.20 352.22 453.76 615.32 772.15 592.49 965.65 662.90 795.57 770.14 768.95 812.49 918.91 868.81
00003748 DELETE   709.67 349.63 451.13 614.49 763.22 590.85 958.77 656.14 791.14 772.37 765.20 812.48 917.12 864.29
00003749 00000017 698.51 357.31 445.42 601.04 756.05 586.30 953.03 652.76 788.75 770.77 763.09 807.67 912.24 859.97
00003750 DELETE   686.63 353.21 443.76 599.06 745.19 582.07 939.85 646.63 778.61 766.18 751.59 802.91 898.98 854.20
00003751 00000019 678.43 349.80 437.81 600.82 736.12 580.71 926.34 641.47 768.65 760.40 741.77 801.91 883.46 850.11
00003752 00000020 670.70 347.64 433.99 605.35 722.24 580.55 919.27 632.79 762.78 756.88 730.88 802.25 880.15 843.93
00003753 DELETE   663.70 336.54 430.46 615.93 712.48 573.96 909.63 618.74 756.12 749.44 728.85 801.04 875.59 836.92
00003754 00000022 652.07 333.36 444.88 618.29 703.61 582.47 901.12 616.84 750.48 744.01 723.77 803.51 872.48 831.62
00003755 00000023 648.44 327.93 448.83 613.59 700.35 575.69 896.24 605.81 749.56 735.48 726.25 798.59 869.25 822.97
00003756 00000024 649.16 315.46 449.10 619.61 701.15 565.14 892.61 593.07 747.59 723.39 728.78 792.65 867.96 814.98
00003757 00000025 649.86 303.63 446.60 629.36 702.68 557.36 892.41 582.75 750.06 713.83 730.59 786.22 870.48 806.76
00003758 00000026 655.54 297.19 445.07 631.26 710.15 554.48 895.48 578.24 754.66 706.02 736.65 782.27 873.54 801.71
00003759 00000027 661.81 292.83 445.84 629.50 714.77 550.66 900.13 573.18 761.80 703.28 744.03 780.80 880.36 799.22
00003760 00000028 669.62 284.43 444.21 632.54 719.87 549.92 905.26 573.49 770.71 705.33 749.04 778.95 886.96 798.48
00003761 00000029 682.91 279.23 435.46 638.45 726.66 545.59 910.84 571.08 774.51 703.29 753.09 777.81 891.73 799.41
00003762 00000030 689.37 276.93 438.88 642.51 738.67 544.96 927.31 570.78 782.90 701.38 763.73 778.49 906.54 797.79
00003763 00000031 695.51 284.22 443.83 633.36 744.11 543.17 932.81 572.41 786.49 699.51 767.69 775.23 911.17 796.82
00003764 00000032 695.56 275.02 452.53 638.75 750.25 530.60 948.18 569.89 789.42 698.16 776.35 768.98 919.37 800.15
00003765 00000033 700.49 276.20 458.32 638.38 757.62 533.23 955.08 571.90 796.89 699.56 783.95 771.65 926.68 802.03
00003766 00000034 710.59 278.92 455.18 643.53 768.63 544.92 959.03 569.71 814.13 698.86 797.92 775.10 941.16 794.50
00003767 DELETE   723.07 283.82 451.95 643.07 782.72 551.31 970.02 571.86 830.65 701.36 817.28 777.40 961.57 793.71
00003768 00000036 740.34 286.51 444.90 640.56 794.23 550.66 977.12 572.65 841.53 710.47 831.25 777.05 976.39 795.02
00003769 DELETE   748.04 286.10 445.43 638.05 798.96 551.76 980.98 567.52 848.68 709.91 842.76 776.46 985.20 789.38
00003770 00000038 754.46 270.60 446.44 649.39 804.99 546.36 985.43 557.94 855.54 701.63 853.86 774.33 990.99 783.56
00003771 00000039 757.96 269.90 448.84 651.01 810.60 544.29 992.94 556.85 861.54 699.28 859.26 776.52 992.93 786.28
00003772 00000040 758.52 265.25 447.38 648.13 808.52 540.81 990.82 556.90 857.31 697.88 854.09 772.00 987.76 785.08
00003773 00000041 754.05 270.22 448.63 640.34 805.28 538.76 987.23 558.05 852.73 695.29 847.90 769.97 980.70 785.85
00003774 00000042 750.86 271.34 450.80 636.85 801.07 536.09 986.13 557.13 848.81 693.80 841.73 769.90 976.04 787.02
00003775 00000043 747.23 271.54 450.57 634.52 797.08 535.50 982.06 553.92 845.25 689.15 837.75 769.69 970.91 784.68
00003776 00000044 740.64 268.43 454.27 637.78 791.61 533.62 978.10 551.01 839.64 687.12 832.55 769.54 966.59 783.76
00003777 00000045 746.29 259.60 441.80 646.12 792.77 537.01 972.38 550.23 836.25 679.19 832.69 765.35 967.68 775.79
00003778 00000046 738.08 268.07 442.87 639.85 785.86 537.43 964.37 552.83 828.12 681.89 826.37 763.14 961.32 775.33
00003779 00000047 728.27 269.98 451.34 640.80 775.69 537.81 962.06 551.70 819.94 687.33 818.15 772.85 951.64 783.95
00003780 00000048 715.52 269.50 455.64 638.92 766.48 532.96 960.41 546.96 816.26 685.01 809.26 771.46 947.14 782.35
00003781 00000049 703.06 261.05 459.57 649.98 758.41 529.33 940.87 548.02 804.77 686.52 802.41 761.83 932.05 776.90
00003782 00000050 697.17 262.98 461.38 651.28 750.80 531.20 934.14 549.32 798.35 689.41 796.75 765.73 927.34 780.50
00003783 00000051 694.20 272.98 457.52 641.21 742.85 534.12 928.30 552.68 793.08 694.62 790.98 770.14 922.00 785.42
00003784 00000052 691.95 271.22 454.07 643.30 739.39 537.55 922.95 554.00 789.93 698.21 790.59 774.09 919.24 787.58
00003785 00000053 690.23 272.41 450.58 648.73 738.90 542.21 921.70 553.64 790.46 700.41 793.34 781.58 919.22 790.84
00003786 00000054 690.74 282.42 442.84 637.50 739.28 546.92 923.86 550.38 794.21 696.30 788.37 787.97 923.77 789.11
00003787 00000055 690.54 281.01 443.13 643.15 739.34 549.88 923.69 552.15 793.50 697.24 789.24 790.19 926.13 790.32
00003788 00000056 691.53 275.62 444.22 651.24 740.72 550.39 925.64 552.91 795.37 697.08 790.34 791.18 928.24 791.40
00003789 00000057 691.20 267.90 448.87 661.03 741.29 550.06 926.63 550.91 798.94 702.83 796.81 788.05 928.37 788.77
00003790 00000058 691.97 267.57 450.08 662.09 743.83 551.14 930.43 550.78 802.65 700.99 799.10 788.00 930.79 787.75
00003791 00000059 698.47 268.56 448.64 664.46 749.88 548.56 937.77 555.15 807.90 699.82 800.66 785.86 934.15 791.56
00003792 00000060 697.25 267.92 451.04 663.53 749.93 545.87 944.04 550.65 815.92 698.53 801.54 783.76 939.77 788.01
00003793 00000061 693.12 266.83 458.59 662.49 751.07 542.71 948.46 544.66 820.73 697.20 804.55 781.79 944.68 783.53
00003794 00000062 693.23 256.78 460.00 668.79 752.59 539.90 950.26 537.69 823.14 693.60 807.58 781.35 945.34 779.76
00003795 00000063 692.60 256.51 460.71 663.41 751.76 536.78 953.28 533.49 825.41 690.55 807.93 777.69 947.40 775.29
00003796 00000064 693.74 255.16 460.28 661.15 752.80 532.55 956.97 531.28 828.05 688.72 808.15 772.39 951.85 771.52
00003797 00000065 696.93 252.01 456.46 661.70 755.48 530.33 960.16 528.21 832.23 685.52 810.08 768.75 956.13 767.13
00003798 00000066 699.63 250.00 452.94 660.35 757.03 524.25 962.22 521.62 833.99 679.04 811.21 764.07 956.99 762.25
00003799 00000067 699.95 244.24 451.49 662.25 757.46 519.80 965.38 517.76 835.51 674.49 811.04 761.11 957.72 759.93
00003800 00000068 698.87 248.67 451.88 654.53 757.69 517.06 968.42 516.19 836.52 671.05 807.96 757.65 958.28 757.58
00003801 00000069 699.05 249.52 451.90 653.08 759.01 515.47 969.97 514.82 838.52 669.30 809.15 755.81 960.36 755.85
00003802 00000070 697.46 246.12 454.63 654.67 760.12 515.25 972.47 514.11 841.37 667.30 810.18 756.33 961.21 755.95
00003803 00000071 697.65 244.76 454.04 653.78 760.07 513.06 973.57 511.82 841.96 665.26 809.23 754.04 961.69 753.61
00003804 00000072 698.48 242.97 452.20 653.38 759.96 511.73 973.09 510.24 841.06 663.88 808.91 751.67 961.34 751.07
00003805 00000073 697.33 247.18 446.87 653.38 761.68 510.02 963.80 503.59 835.28 652.68 805.42 756.80 963.61 750.68
00003806 00000074 694.14 245.01 447.18 654.77 758.23 506.14 960.36 499.83 831.92 649.94 801.65 752.26 963.51 746.24
00003807 00000075 692.34 245.48 444.60 650.95 755.47 505.08 958.37 499.48 829.40 646.97 796.03 749.09 958.67 743.97
00003808 00000076 690.47 247.42 442.80 645.59 752.53 504.12 955.80 500.23 825.90 645.71 790.52 746.83 953.09 743.26
00003809 00000077 686.18 248.98 445.30 643.90 747.94 504.11 953.71 500.54 823.08 647.36 785.88 746.14 950.45 742.96
00003810 00000078 683.23 244.63 444.44 647.65 744.62 503.84 950.74 501.68 818.21 647.40 779.04 742.53 947.11 740.44
00003811 00000079 680.23 237.63 447.05 652.36 740.56 504.36 945.17 505.11 814.09 656.76 780.63 738.54 939.98 739.44
00003812 00000080 678.23 239.13 447.40 651.35 738.27 505.68 942.85 505.96 811.89 657.34 778.97 738.88 938.41 739.32
00003813 00000081 678.21 239.77 445.91 651.27 736.34 505.63 941.43 505.84 809.84 658.80 778.37 740.33 937.03 740.71
00003814 00000082 686.27 247.13 435.90 642.13 742.85 516.99 940.56 513.44 813.35 649.98 776.79 743.05 942.60 739.81
00003815 00000083 685.99 243.98 436.46 647.16 744.30 520.91 938.75 515.62 814.90 650.80 780.08 744.19 943.73 739.03
00003816 00000084 685.09 242.83 436.29 647.05 744.06 521.49 938.13 514.69 813.92 649.44 780.47 744.51 942.49 738.15
00003817 00000085 684.74 240.47 436.59 653.45 741.85 521.01 936.20 512.23 811.75 648.64 780.06 747.04 942.01 739.14
00003818 00000086 683.45 242.68 435.13 649.31 738.66 519.33 932.81 512.12 806.56 648.34 776.69 746.55 935.89 740.17
00003819 00000087 680.33 242.29 441.81 651.30 733.03 520.84 924.69 517.27 794.90 653.81 774.86 744.87 920.61 742.35
00003820 00000088 685.04 245.59 431.51 643.66 736.02 517.03 925.89 515.94 794.28 648.41 769.92 744.49 923.74 743.36
00003821 00000089 675.33 245.72 444.17 644.65 727.31 517.04 919.33 519.54 786.37 657.03 767.94 744.58 911.89 747.29
00003822 00000090 671.00 247.13 446.75 642.99 724.05 515.17 915.44 520.78 781.29 660.91 764.84 744.62 908.81 749.74
00003823 00000091 668.52 246.95 446.15 645.05 720.13 515.94 912.61 524.44 777.37 666.02 759.84 746.79 905.47 754.34
00003824 00000092 676.57 249.57 433.23 637.97 727.10 516.39 914.09 520.29 782.26 655.31 764.32 745.69 908.21 748.86
00003825 00000093 680.50 248.85 427.21 638.28 730.91 525.18 911.08 531.16 782.72 656.89 765.91 746.62 906.79 750.89
00003826 00000094 680.85 247.40 428.84 639.03 732.43 525.48 912.50 535.39 783.56 658.91 766.39 745.99 906.07 753.36
00003827 00000095 681.62 249.27 429.33 639.84 732.52 527.42 909.96 538.72 781.73 663.79 767.70 748.59 905.77 757.08
00003828 00000096 680.76 245.65 431.83 649.27 731.36 527.91 909.76 540.58 780.74 668.48 767.29 751.30 907.06 760.95
00003829 00000097 681.46 251.78 430.36 646.61 731.62 532.77 907.38 543.80 780.40 671.13 769.83 755.73 906.06 764.13
00003830 00000098 681.49 258.51 430.86 637.00 731.72 533.43 907.66 545.71 779.33 672.43 770.27 756.04 905.43 765.58
00003831 00000099 682.26 264.79 430.88 630.68 733.40 537.53 907.53 548.81 778.79 674.54 772.15 758.31 904.63 767.09
00003832 00000100 683.22 277.50 431.35 620.24 732.76 541.19 909.24 553.97 779.88 679.25 771.95 761.84 904.44 771.79
00003833 00000101 676.85 273.73 442.33 626.19 728.76 540.81 909.00 552.08 781.41 687.95 771.27 762.35 906.19 771.15
00003834 00000102 678.53 272.06 444.00 631.11 730.84 541.55 912.28 554.61 782.80 692.82 775.83 764.70 910.79 775.08
00003835 00000103 687.71 282.89 438.04 620.27 740.42 546.16 918.41 563.12 785.90 693.21 784.86 767.84 919.97 780.31
00003836 00000104 691.26 282.33 439.31 621.25 738.79 540.91 917.13 562.80 784.49 699.13 785.09 764.10 915.87 781.80
00003837 00000105 693.00 278.37 439.94 626.52 741.05 535.40 930.14 554.58 790.14 694.76 785.12 769.13 924.25 783.29
00003838 00000106 697.00 277.18 450.37 629.02 747.35 535.67 926.74 559.58 791.25 693.28 791.80 761.97 921.58 781.24
00003839 00000107 702.01 275.78 451.48 631.85 754.04 533.38 931.65 559.74 795.65 689.73 795.68 759.25 923.98 780.62
00003840 00000108 702.19 280.60 452.40 630.19 757.74 533.85 950.80 556.57 805.04 693.11 798.99 772.05 936.78 789.00
00003841 00000109 705.91 283.15 454.44 628.96 760.67 535.50 960.08 558.78 812.53 697.77 802.58 777.01 941.73 794.73
00003842 00000110 711.20 280.66 454.59 632.15 765.03 538.00 968.11 563.24 820.86 703.40 806.61 779.53 949.25 799.27
00003843 00000111 719.16 288.64 447.00 626.25 775.05 550.18 965.59 566.23 830.38 701.54 811.57 777.32 955.54 789.73
00003844 00000112 721.86 286.31 447.19 627.81 777.51 551.65 967.15 567.34 832.95 701.94 813.47 776.83 958.86 789.08
00003845 DELETE   725.28 284.06 446.56 632.01 780.47 551.51 973.44 565.43 837.70 701.18 818.26 778.37 964.24 789.33
00003846 00000114 732.96 284.91 442.73 632.37 787.99 554.45 978.27 569.60 845.69 701.48 822.89 777.21 967.46 789.49
00003847 DELETE   738.65 277.86 437.07 638.01 790.87 555.40 982.99 569.64 852.62 701.98 823.83 776.66 972.30 788.37
00003848 DELETE   741.35 279.05 434.95 640.12 793.33 555.56 987.54 569.87 856.66 704.94 825.05 777.23 976.53 789.08
00003849 00000117 741.91 281.91 437.33 637.49 794.60 553.13 988.59 568.44 857.38 707.75 826.77 777.29 979.04 790.06
00003850 00000118 740.84 286.53 438.51 631.28 794.21 551.40 990.56 566.58 858.34 708.07 827.70 777.40 980.92 790.09
00003851 00000119 740.15 282.90 439.85 633.10 793.95 548.41 989.56 564.56 856.92 704.70 827.44 775.00 978.46 788.46
00003852 00000120 741.93 279.33 437.47 632.59 793.58 545.51 988.75 562.55 855.30 702.30 826.80 772.55 976.83 786.67
00003853 00000121 744.05 280.91 434.82 626.12 792.62 542.72 986.73 559.39 853.05 699.03 824.97 771.13 972.63 784.92
00003854 00000122 742.61 280.14 434.59 624.17 791.27 541.28 984.07 556.10 850.27 695.00 824.86 769.83 969.11 781.96
00003855 00000123 740.49 289.34 435.76 611.68 786.57 536.21 986.07 556.26 847.23 693.09 821.59 768.32 963.94 784.82
00003856 00000124 738.66 284.12 437.00 616.64 785.45 537.53 985.34 556.16 846.63 692.26 820.96 768.21 963.79 783.63
00003857 00000125 740.74 279.23 432.78 623.06 786.82 541.42 981.60 558.62 847.17 690.75 823.77 768.60 962.07 783.04
00003858 00000126 740.67 279.00 433.49 623.21 787.55 543.82 981.14 559.58 846.40 688.64 823.67 768.02 961.22 781.39
00003859 00000127 738.62 276.09 435.06 623.86 785.78 544.16 982.15 559.04 847.08 690.33 822.11 767.55 962.52 780.22
00003860 00000128 736.77 275.11 436.57 624.77 784.95 544.27 985.03 559.81 849.54 694.01 820.81 768.54 965.71 781.77
00003861 00000129 734.94 278.17 440.40 623.65 785.22 542.63 987.99 558.54 850.92 697.71 821.51 770.14 969.07 783.60
00003862 00000130 734.31 275.55 442.23 629.61 785.93 542.04 990.42 556.34 853.85 698.88 823.79 773.52 971.68 785.73
00003863 00000131 737.19 277.75 440.05 629.84 787.92 541.40 991.12 554.10 855.92 695.49 826.24 773.28 973.61 784.14
00003864 00000132 737.98 276.78 441.96 630.70 789.46 538.78 993.11 550.81 858.70 694.13 829.87 773.68 975.82 783.98
00003865 00000133 738.31 280.62 444.22 625.44 791.02 534.84 993.71 545.76 860.17 690.79 833.84 773.07 976.04 782.51
00003866 00000134 740.68 282.29 443.90 620.68 793.32 532.60 994.79 543.87 862.36 688.87 835.25 769.29 976.93 779.08
00003867 00000135 742.99 274.38 444.28 626.33 798.04 531.84 996.42 543.98 864.95 685.53 838.87 766.66 977.96 777.13
00003868 00000136 747.12 272.14 444.26 628.38 800.66 531.50 998.74 542.11 866.94 685.78 842.73 765.90 984.08 775.24
00003869 00000137 751.43 271.90 442.85 625.56 802.57 531.04 1000.27 540.21 868.38 684.59 845.53 764.62 988.52 772.81
00003870 00000138 754.26 273.03 442.52 623.18 804.85 529.06 1003.43 539.09 871.55 684.70 848.45 764.45 990.33 773.26
00003871 00000139 756.08 270.51 443.03 623.98 808.76 527.72 1006.79 538.50 875.62 684.03 850.84 762.32 991.18 771.74
00003872 00000140 762.88 263.68 437.17 632.51 818.66 524.01 1010.34 536.03 878.01 674.11 853.70 759.13 1000.82 768.56
00003873 00000141 762.90 264.39 437.71 631.05 819.51 523.02 1011.29 535.96 879.02 674.43 854.80 758.83 1001.50 769.06
00003874 00000142 763.18 263.97 437.81 631.01 820.37 523.22 1011.80 535.75 879.81 674.21 855.42 758.55 1002.00 768.43
00003875 00000143 763.13 264.00 437.69 631.24 820.05 523.01 1011.69 535.97 879.56 674.73 855.45 758.57 1001.97 768.81
00003876 00000144 763.41 265.21 437.14 630.09 819.98 523.90 1011.22 535.93 879.54 674.87 856.45 759.47 1002.13 769.02
00003877 00000145 765.99 267.69 430.98 625.59 822.60 530.53 1010.59 541.25 880.71 673.85 856.40 758.12 1000.27 766.79
00003878 00000146 764.82 266.96 431.14 627.54 821.13 533.57 1008.31 540.83 880.99 676.17 858.06 760.93 1000.98 766.68
00003879 00000147 757.91 266.89 439.41 632.34 812.03 538.46 1008.03 545.58 878.61 689.94 858.71 766.81 995.91 772.96
00003880 00000148 758.45 269.85 440.40 634.23 813.74 544.72 1015.40 549.49 886.30 695.34 862.27 773.21 1003.61 777.48
00003881 00000149 753.09 276.23 447.08 632.00 815.60 547.15 1017.43 549.87 890.72 699.82 866.85 776.04 1009.97 778.55
00003882 00000150 749.32 278.34 450.13 631.12 813.41 548.09 1017.12 547.75 891.53 702.90 868.85 778.04 1014.83 777.73
00003883 00000151 746.24 280.15 450.81 626.96 810.81 548.06 1017.59 545.54 892.54 702.75 869.33 778.73 1016.13 776.45
00003884 00000152 744.66 278.97 452.31 628.46 809.84 548.96 1017.51 544.53 893.26 702.94 870.37 780.22 1016.68 776.29
00003885 00000153 743.93 280.24 451.80 627.02 809.62 550.14 1017.33 544.35 894.08 703.25 871.04 780.86 1016.77 775.76
00003886 00000154 745.07 282.09 450.77 629.81 810.01 552.43 1016.61 544.89 894.07 703.90 872.38 784.41 1016.26 777.87
00003887 00000155 743.90 282.19 448.99 633.02 809.16 555.67 1014.63 549.54 891.78 708.15 870.29 787.25 1015.04 781.69
00003888 00000156 740.46 281.87 450.09 633.65 805.69 555.52 1011.79 553.38 887.92 710.94 865.76 788.60 1009.39 786.09
00003889 00000157 735.67 292.53 448.90 621.77 801.40 557.74 1008.00 557.96 882.62 713.61 859.06 789.47 1001.76 789.06
00003890 00000158 732.70 289.91 446.71 625.21 796.12 558.91 1001.86 561.34 875.39 714.33 851.47 790.55 994.87 791.91
00003891 00000159 724.98 292.87 446.44 624.29 788.38 563.18 987.42 563.39 864.55 712.02 843.41 784.04 988.93 783.86
00003892 00000160 714.40 295.64 452.08 624.23 780.21 563.55 979.40 562.11 857.28 710.85 835.59 784.32 982.44 782.64
00003893 00000161 705.20 288.78 454.14 627.09 771.17 559.19 984.55 558.35 854.32 715.06 829.55 793.64 974.95 791.99
00003894 00000162 696.92 295.22 449.44 622.60 766.63 560.58 956.10 557.37 838.96 706.27 824.14 787.92 968.37 783.30
00003895 00000163 691.43 291.80 450.08 622.77 760.15 559.40 950.71 556.90 832.09 704.11 815.75 785.52 961.79 781.30
00003896 00000164 689.03 298.35 448.37 616.34 756.46 560.00 947.72 559.24 828.09 704.08 809.13 785.17 956.94 782.34
00003897 00000165 685.89 300.18 448.83 615.73 753.83 559.79 947.00 559.62 827.11 705.03 805.08 785.61 953.52 783.56
00003898 00000166 684.99 296.76 449.18 619.14 752.35 559.53 945.45 559.52 825.10 703.98 802.93 783.21 953.19 781.21
00003899 00000167 684.46 299.01 449.21 614.02 750.82 555.93 943.83 558.02 823.06 703.53 801.46 780.68 950.00 780.36
00003900 00000168 684.87 299.59 448.58 612.40 750.84 554.45 943.29 558.68 821.17 703.94 799.90 777.98 948.51 779.36
00003901 00000169 685.25 300.34 447.38 613.54 751.93 554.92 944.11 558.90 822.55 702.91 799.88 778.95 948.77 780.21
00003902 00000170 685.72 299.31 449.61 618.91 753.91 556.21 947.58 560.60 824.69 703.83 800.17 781.27 950.17 782.93
