Video ID: 	DXXJWmI0fiw
H: 	1080
W: 	1920
FPS: 	25.0

FRAME INDEX X0 Y0 W H [Landmarks (5 Points)]

00000868 00000000 1240.53 335.79 354.39 508.28 1390.94 569.52 1547.43 552.27 1520.95 631.86 1436.90 743.70 1560.76 729.17
00000869 DELETE   1251.87 338.42 351.48 510.69 1401.61 568.31 1560.40 548.46 1533.42 633.72 1447.51 748.04 1573.91 731.53
00000870 00000002 1262.71 339.17 346.20 515.51 1413.85 567.28 1569.76 548.14 1543.41 639.09 1459.62 752.97 1581.84 737.10
00000871 00000003 1270.36 344.97 346.76 517.34 1427.34 568.09 1577.21 552.61 1553.32 644.93 1467.95 755.18 1585.33 742.06
00000872 00000004 1274.82 347.70 347.07 509.65 1426.67 576.02 1574.95 559.77 1556.83 645.18 1484.35 753.77 1596.95 739.47
00000873 00000005 1284.63 352.93 346.74 506.48 1434.59 581.18 1583.08 561.68 1565.51 648.36 1492.58 756.20 1605.18 739.38
00000874 00000006 1293.74 352.67 344.06 509.13 1443.02 582.90 1591.84 563.18 1575.17 651.25 1497.05 758.68 1612.14 741.76
00000875 00000007 1300.73 354.44 344.55 507.86 1447.38 582.31 1599.91 561.89 1580.52 651.55 1500.55 760.48 1618.37 742.88
00000876 00000008 1305.57 356.31 344.82 507.12 1451.95 582.12 1605.47 561.21 1584.13 651.04 1503.76 760.50 1622.34 742.51
00000877 00000009 1307.80 357.79 345.51 507.60 1453.74 582.72 1608.17 561.40 1585.98 652.31 1504.07 761.83 1624.14 743.52
00000878 00000010 1307.86 357.97 344.90 506.67 1453.14 583.31 1607.53 561.80 1584.90 651.94 1503.29 761.55 1623.60 743.09
00000879 00000011 1305.88 356.10 344.45 507.24 1449.53 581.76 1604.06 561.76 1580.21 650.40 1500.08 759.50 1620.80 742.25
00000880 00000012 1300.65 354.04 345.44 508.29 1445.35 580.51 1598.21 559.29 1575.88 649.42 1496.61 756.60 1615.99 738.32
00000881 00000013 1295.49 352.59 344.27 506.66 1438.49 582.12 1589.72 560.24 1567.17 649.20 1491.78 755.57 1609.98 736.85
00000882 00000014 1288.05 353.94 344.37 503.64 1430.89 581.42 1580.01 559.92 1558.02 647.18 1486.44 753.04 1602.25 734.80
00000883 00000015 1280.73 349.52 343.65 501.37 1435.24 570.16 1574.36 553.09 1553.93 641.58 1480.21 746.17 1587.67 734.49
00000884 00000016 1272.96 349.54 342.11 500.86 1426.08 567.85 1565.33 549.33 1544.23 641.95 1469.83 745.63 1577.43 732.53
00000885 00000017 1264.53 344.11 346.27 506.31 1405.92 562.69 1569.30 542.44 1533.94 638.14 1448.97 748.75 1576.98 731.86
00000886 00000018 1256.79 337.09 346.32 506.58 1396.45 562.14 1557.91 543.04 1523.64 634.77 1439.82 744.96 1566.87 729.28
00000887 00000019 1246.94 335.39 348.43 504.31 1384.07 560.41 1544.05 545.45 1509.31 631.78 1428.65 740.50 1552.83 728.24
00000888 00000020 1230.97 334.81 353.50 509.17 1372.33 560.63 1525.72 545.26 1498.50 631.21 1421.87 741.09 1536.37 728.46
00000889 00000021 1221.90 332.49 348.20 510.56 1361.85 558.09 1510.82 541.58 1487.39 627.52 1414.19 738.26 1526.80 724.80
00000890 00000022 1213.10 329.65 347.32 514.59 1352.09 554.71 1499.21 537.03 1475.60 626.50 1404.60 736.97 1518.71 722.64
00000891 00000023 1204.65 331.28 345.89 514.84 1342.72 549.08 1504.11 536.32 1464.08 628.38 1379.34 738.68 1506.50 728.65
00000892 00000024 1195.71 330.21 347.31 515.37 1332.86 550.14 1497.10 534.40 1458.96 627.62 1372.28 740.10 1503.46 727.43
00000893 00000025 1189.25 327.81 345.68 519.07 1325.22 551.14 1486.87 534.43 1452.29 627.20 1365.37 740.22 1495.55 726.75
00000894 00000026 1180.13 327.84 348.75 522.10 1316.64 552.83 1478.53 534.93 1446.25 628.46 1360.67 742.34 1489.72 727.66
00000895 00000027 1169.01 328.31 351.93 524.86 1306.89 554.69 1467.09 538.85 1437.64 628.50 1354.89 743.26 1479.77 730.02
00000896 00000028 1157.34 328.51 354.72 525.64 1299.85 557.23 1454.83 539.50 1431.76 627.74 1351.48 743.29 1471.06 728.65
00000897 00000029 1150.31 333.66 352.83 526.26 1292.40 560.69 1444.61 543.43 1423.97 630.99 1343.49 747.29 1462.08 732.97
00000898 00000030 1143.25 332.30 352.08 534.11 1285.83 562.02 1438.28 543.77 1417.03 634.60 1336.47 750.12 1456.42 734.82
00000899 00000031 1136.05 332.85 351.94 534.81 1281.30 560.62 1431.18 542.78 1410.51 635.39 1333.19 749.93 1450.18 734.81
00000900 00000032 1130.94 332.23 352.10 536.65 1277.31 559.11 1427.47 542.59 1407.81 635.52 1330.24 749.91 1447.43 735.67
00000901 00000033 1125.82 334.66 354.10 535.48 1273.92 556.99 1425.18 541.79 1404.66 635.15 1326.81 752.13 1443.74 738.90
00000902 00000034 1127.12 337.62 351.90 533.25 1276.76 556.51 1433.20 547.73 1403.01 637.75 1313.67 752.49 1438.23 745.70
00000903 00000035 1121.90 334.38 352.99 537.30 1272.45 565.59 1431.03 554.68 1398.67 639.04 1308.42 755.66 1437.53 746.96
00000904 00000036 1119.68 335.41 353.35 538.07 1269.47 567.69 1429.81 556.35 1396.64 640.73 1306.59 758.80 1436.32 749.47
00000905 00000037 1118.99 338.11 353.61 537.22 1267.68 565.86 1427.86 554.32 1395.43 641.75 1303.95 757.63 1434.21 748.26
00000906 00000038 1117.77 337.04 353.97 534.49 1265.14 565.09 1424.94 552.24 1393.43 642.64 1303.44 756.95 1431.78 746.65
00000907 00000039 1116.65 336.91 354.80 532.06 1263.17 563.92 1423.31 548.88 1391.73 642.78 1302.61 756.14 1430.81 743.97
00000908 00000040 1116.01 338.69 355.14 528.14 1262.23 564.70 1423.09 548.48 1392.19 642.23 1302.62 755.29 1431.61 742.03
00000909 00000041 1115.13 337.46 354.33 524.95 1261.14 564.29 1424.19 547.15 1391.88 641.22 1300.62 753.28 1431.12 739.26
00000910 00000042 1113.86 336.17 353.76 521.91 1259.82 564.21 1423.18 545.78 1391.29 639.84 1298.60 750.01 1430.79 735.04
00000911 00000043 1114.28 333.91 353.28 517.54 1259.02 562.25 1422.68 543.00 1389.67 637.33 1298.87 747.00 1431.18 731.21
00000912 00000044 1114.18 333.41 353.04 510.57 1257.06 561.14 1422.58 540.41 1387.82 635.59 1298.64 745.09 1432.33 727.94
00000913 00000045 1114.17 330.69 351.46 506.30 1256.30 559.82 1420.59 537.04 1386.66 632.04 1298.36 740.88 1431.69 722.16
00000914 00000046 1115.44 329.32 348.59 505.11 1256.27 558.21 1417.36 534.81 1383.97 629.00 1297.53 737.03 1428.18 718.21
00000915 00000047 1115.81 325.97 348.61 503.12 1253.61 555.70 1415.25 532.24 1381.00 623.72 1296.11 733.72 1427.29 714.92
00000916 00000048 1114.62 322.05 349.97 502.94 1253.02 554.01 1414.10 529.29 1381.25 619.08 1295.66 729.07 1426.93 709.32
00000917 00000049 1114.20 321.21 350.70 500.39 1252.73 551.52 1412.62 525.11 1382.03 613.92 1297.59 725.05 1428.22 703.84
00000918 00000050 1112.61 319.06 352.36 498.96 1251.51 550.06 1411.08 524.15 1381.69 610.13 1297.65 721.75 1428.18 700.84
00000919 00000051 1112.45 318.42 352.74 497.68 1251.10 548.63 1410.18 522.52 1381.79 607.97 1297.81 720.06 1427.87 698.99
00000920 00000052 1113.23 318.27 351.98 498.19 1251.09 548.65 1410.43 522.71 1380.97 608.72 1297.24 720.50 1427.23 699.68
00000921 00000053 1113.79 318.43 351.62 499.05 1251.23 550.06 1410.88 524.09 1380.76 610.20 1297.31 722.05 1427.60 701.17
00000922 00000054 1113.33 320.94 351.69 499.94 1250.65 552.24 1410.43 525.41 1379.75 613.72 1297.06 725.03 1427.06 703.46
00000923 00000055 1111.96 323.00 352.63 499.72 1249.32 553.94 1409.99 527.28 1377.77 617.46 1295.50 728.03 1425.68 706.52
00000924 00000056 1109.56 323.81 352.80 500.37 1250.49 560.26 1408.44 535.76 1377.08 621.40 1294.75 730.87 1423.20 711.18
00000925 00000057 1107.08 322.53 355.36 502.09 1249.98 564.49 1408.68 540.91 1375.28 623.60 1293.93 733.17 1422.18 714.00
00000926 00000058 1106.37 322.41 353.39 501.40 1248.40 563.32 1406.92 538.85 1374.55 623.60 1294.17 733.43 1421.38 713.64
00000927 00000059 1105.04 323.72 352.97 503.45 1247.24 561.81 1405.03 537.26 1374.61 624.42 1294.61 733.77 1420.99 713.75
00000928 00000060 1103.42 323.64 352.58 503.72 1246.02 560.53 1402.64 535.90 1374.02 624.02 1294.15 732.87 1418.88 712.78
00000929 00000061 1101.92 323.85 352.36 503.57 1244.18 559.99 1399.87 534.90 1371.93 623.44 1293.32 732.83 1416.27 712.32
00000930 00000062 1099.28 322.78 353.98 505.33 1243.02 559.14 1397.72 533.78 1371.25 622.66 1292.37 732.27 1414.80 711.37
00000931 00000063 1098.43 322.44 354.37 505.12 1242.24 558.05 1395.98 531.98 1370.34 621.18 1292.20 731.36 1413.71 709.89
00000932 00000064 1096.75 321.54 354.81 505.56 1241.05 557.74 1394.11 531.01 1369.50 619.97 1292.36 730.72 1412.79 708.63
00000933 00000065 1096.13 321.27 355.60 505.19 1240.73 557.37 1393.09 531.52 1369.23 620.63 1292.32 731.20 1411.61 709.83
00000934 00000066 1094.13 322.89 355.91 503.69 1240.27 557.49 1392.58 531.88 1368.67 621.98 1292.32 731.90 1409.86 710.67
00000935 00000067 1092.78 323.75 356.07 503.08 1240.24 556.78 1391.56 532.89 1367.75 622.14 1291.96 731.62 1407.92 711.76
00000936 00000068 1093.04 323.50 355.56 504.00 1240.96 556.20 1392.13 532.33 1368.01 622.52 1291.75 731.70 1407.82 711.95
00000937 00000069 1092.83 323.76 354.96 502.87 1241.43 555.38 1391.30 532.23 1368.48 621.81 1292.07 730.80 1406.57 711.80
00000938 00000070 1092.58 323.44 354.73 503.65 1241.39 554.45 1390.95 531.04 1368.74 619.64 1291.51 729.06 1406.92 709.90
00000939 00000071 1095.75 320.92 353.11 505.84 1242.42 552.12 1391.93 529.23 1369.88 617.24 1291.81 727.11 1408.75 708.40
00000940 00000072 1098.40 318.79 351.24 506.44 1242.66 550.86 1393.38 527.85 1370.44 615.42 1291.49 724.90 1410.18 706.17
00000941 00000073 1099.16 318.83 351.14 506.25 1242.89 550.43 1394.88 527.83 1370.58 615.57 1290.89 724.76 1410.42 706.34
00000942 00000074 1099.39 320.52 350.44 504.78 1243.30 550.19 1395.79 528.35 1370.87 615.47 1289.94 723.97 1410.18 706.26
00000943 00000075 1099.16 319.98 350.32 504.47 1243.29 548.65 1395.16 527.96 1370.31 614.68 1289.48 722.83 1408.92 706.10
00000944 00000076 1099.62 319.91 348.79 505.52 1244.98 551.78 1396.34 534.57 1370.26 616.62 1287.61 723.77 1407.52 710.04
00000945 00000077 1097.65 321.10 352.11 504.46 1245.02 558.64 1394.70 542.04 1367.95 618.28 1286.83 726.13 1405.55 712.73
00000946 00000078 1096.24 321.73 351.61 504.03 1244.24 557.28 1393.35 540.71 1367.05 617.95 1287.09 725.53 1404.21 712.08
00000947 00000079 1096.51 322.85 349.92 504.58 1243.90 555.15 1393.90 539.36 1367.45 618.41 1285.45 725.09 1403.66 712.46
00000948 00000080 1096.69 324.41 350.25 504.22 1243.62 554.54 1395.07 537.11 1368.29 619.95 1285.69 726.64 1404.50 712.62
00000949 00000081 1096.37 325.09 350.67 504.30 1242.85 553.61 1395.07 536.19 1367.56 620.60 1284.84 727.09 1403.67 713.08
00000950 00000082 1097.67 325.72 349.12 503.99 1243.26 553.90 1395.60 536.27 1367.77 622.01 1285.51 728.53 1403.82 714.36
00000951 00000083 1097.95 325.97 349.00 504.08 1244.60 553.69 1397.19 536.89 1368.72 622.79 1285.43 728.82 1403.86 715.40
00000952 00000084 1099.61 326.27 348.16 504.18 1245.77 553.22 1398.80 536.67 1369.75 623.20 1285.59 728.67 1405.12 715.47
00000953 00000085 1101.02 325.28 348.21 505.45 1246.66 553.09 1400.56 536.85 1370.81 623.36 1285.49 728.03 1406.51 715.08
00000954 00000086 1101.45 324.87 349.19 505.41 1248.10 552.61 1402.13 535.67 1372.48 623.42 1287.29 728.25 1408.15 714.65
00000955 00000087 1103.01 323.97 349.10 506.42 1249.32 552.83 1403.59 535.33 1373.47 625.00 1287.25 729.09 1409.08 715.13
00000956 00000088 1103.80 323.02 349.61 506.82 1250.17 553.23 1404.45 535.51 1373.92 625.41 1287.54 729.34 1409.53 715.28
00000957 00000089 1104.79 323.13 349.84 506.82 1251.04 553.30 1405.78 536.41 1374.77 625.45 1287.22 729.12 1410.19 715.83
00000958 00000090 1104.67 322.99 350.09 507.01 1251.64 552.76 1406.75 536.33 1375.60 625.26 1287.68 729.19 1410.58 716.24
00000959 00000091 1104.59 323.93 349.48 506.68 1251.80 552.73 1406.61 536.67 1375.36 625.83 1287.58 729.55 1410.06 716.92
00000960 00000092 1104.43 323.88 349.21 506.69 1251.54 552.80 1406.35 536.59 1375.09 626.07 1287.60 729.75 1409.67 716.98
00000961 00000093 1103.62 323.56 348.86 507.40 1251.08 553.01 1405.41 536.89 1374.79 626.22 1287.44 729.93 1408.73 717.24
00000962 00000094 1102.92 324.97 348.62 506.40 1250.29 553.10 1404.18 537.94 1373.33 625.80 1287.04 729.67 1407.73 717.65
00000963 00000095 1102.10 325.42 348.73 506.44 1249.10 553.33 1402.85 538.14 1372.49 625.52 1286.72 729.69 1407.14 717.61
00000964 00000096 1100.99 326.12 348.48 506.53 1248.14 553.51 1402.00 538.92 1371.65 625.45 1286.06 729.81 1405.84 718.13
00000965 00000097 1099.99 328.30 348.45 504.88 1247.58 554.63 1401.39 539.46 1371.24 625.89 1285.39 730.23 1405.27 718.18
00000966 00000098 1098.09 330.02 349.28 503.37 1246.97 554.81 1400.50 539.95 1369.89 625.94 1285.13 730.54 1403.45 718.64
00000967 00000099 1097.98 330.38 348.78 503.30 1246.96 555.19 1400.31 541.04 1369.70 625.76 1285.07 730.49 1403.48 719.15
00000968 00000100 1096.87 331.10 350.94 501.67 1248.16 563.41 1399.29 550.87 1368.17 627.38 1283.77 732.26 1401.86 722.34
00000969 00000101 1096.09 331.09 352.18 501.14 1247.37 564.90 1399.54 552.26 1367.79 626.94 1284.02 733.01 1402.65 722.86
00000970 00000102 1097.03 331.59 350.07 501.10 1246.29 562.85 1398.91 550.87 1366.66 626.68 1282.98 732.25 1401.67 722.79
00000971 00000103 1097.79 330.41 349.39 502.56 1247.13 560.71 1399.83 547.82 1369.33 625.49 1285.25 731.53 1404.31 721.27
00000972 00000104 1098.56 328.99 349.05 503.27 1246.85 558.93 1400.18 544.65 1369.85 625.18 1285.36 730.84 1404.98 719.40
00000973 00000105 1098.99 329.48 349.32 503.09 1246.55 557.73 1400.99 542.81 1370.10 625.32 1285.60 730.92 1406.16 718.94
00000974 00000106 1100.40 328.50 348.07 502.98 1247.24 557.20 1401.06 541.76 1370.67 625.96 1286.48 731.15 1406.49 718.86
00000975 00000107 1100.97 327.96 349.08 503.56 1247.94 557.81 1402.02 540.89 1371.82 626.42 1287.58 732.03 1408.15 718.51
00000976 00000108 1102.15 327.70 349.31 504.18 1248.08 557.75 1402.95 540.02 1372.28 627.94 1287.59 732.95 1409.30 718.84
00000977 00000109 1102.87 328.52 350.57 504.56 1248.92 559.02 1404.71 540.22 1373.42 629.83 1288.73 734.99 1411.30 719.97
00000978 00000110 1103.08 328.60 351.60 506.66 1249.45 559.93 1406.46 540.38 1375.05 630.73 1289.74 736.19 1413.61 720.46
00000979 00000111 1103.83 329.46 352.11 506.39 1250.42 561.18 1407.64 540.72 1376.47 632.29 1291.30 737.94 1414.95 721.39
00000980 00000112 1104.66 330.41 352.82 508.10 1252.04 561.91 1410.01 541.07 1378.71 634.08 1291.94 739.63 1416.89 722.71
00000981 00000113 1105.44 330.47 351.72 508.45 1253.76 561.93 1410.83 540.66 1379.99 634.83 1293.22 740.07 1417.23 722.83
00000982 00000114 1106.98 330.22 350.78 508.84 1254.73 561.81 1412.12 540.14 1381.25 635.20 1294.40 740.92 1418.83 723.32
00000983 00000115 1108.41 328.56 350.15 509.04 1255.83 560.80 1413.19 539.29 1382.50 634.78 1294.50 739.73 1419.55 722.38
00000984 00000116 1108.84 328.90 349.64 508.05 1256.26 560.26 1413.42 538.64 1382.61 634.26 1294.08 738.71 1419.36 721.30
00000985 00000117 1108.83 328.30 349.56 507.75 1255.73 559.30 1412.79 537.12 1381.79 633.33 1293.36 737.75 1418.84 719.96
00000986 00000118 1107.42 326.48 350.57 508.95 1255.59 557.66 1412.04 536.03 1381.32 631.10 1293.00 736.09 1417.52 718.69
00000987 00000119 1107.17 324.42 350.76 509.65 1253.65 555.96 1409.70 534.96 1378.69 628.87 1291.87 734.44 1415.97 717.55
00000988 00000120 1105.70 323.30 351.19 508.95 1252.36 553.48 1408.40 533.10 1377.68 625.89 1291.53 731.94 1415.08 715.53
00000989 00000121 1104.67 322.59 351.65 508.60 1250.08 551.47 1406.98 531.47 1376.52 624.67 1290.81 731.15 1414.61 714.92
00000990 00000122 1102.47 321.41 352.97 509.92 1247.85 551.17 1404.04 530.47 1375.01 622.65 1290.04 730.29 1413.09 713.51
00000991 00000123 1102.51 321.08 351.96 509.61 1246.45 550.98 1402.04 530.57 1373.32 621.66 1289.63 729.65 1411.79 713.13
00000992 00000124 1101.22 320.80 351.99 509.60 1245.86 551.11 1400.74 530.88 1372.86 621.29 1289.77 729.57 1410.83 713.14
00000993 00000125 1100.96 320.73 350.99 510.24 1245.94 553.15 1399.55 533.73 1372.61 621.37 1289.54 730.02 1410.02 714.32
00000994 00000126 1100.87 321.64 349.71 509.91 1246.89 556.11 1399.32 537.64 1372.22 622.58 1288.89 731.09 1409.01 716.24
00000995 00000127 1097.03 323.58 353.47 507.66 1245.68 564.60 1396.54 547.34 1369.18 624.46 1288.03 734.47 1406.06 720.39
00000996 00000128 1095.47 326.03 354.30 506.56 1243.78 564.96 1396.19 548.15 1367.23 625.07 1286.39 735.16 1405.22 721.39
00000997 00000129 1094.38 326.26 353.14 507.98 1243.18 560.99 1395.54 543.90 1367.86 624.13 1287.18 734.05 1405.38 720.09
00000998 00000130 1093.36 326.25 353.80 508.06 1241.08 558.34 1394.66 540.90 1367.24 624.13 1286.47 733.60 1404.61 719.25
00000999 00000131 1092.41 327.10 354.31 506.49 1239.33 557.17 1392.52 539.39 1365.01 623.73 1286.22 733.53 1403.08 718.92
00001000 00000132 1091.27 326.13 354.05 507.53 1238.11 555.63 1389.63 537.70 1363.89 622.97 1286.38 732.74 1400.85 717.91
00001001 00000133 1089.72 324.00 353.36 507.92 1237.32 552.87 1386.16 535.37 1362.84 620.26 1286.23 729.92 1398.60 715.52
00001002 00000134 1088.58 323.38 353.53 507.25 1237.72 550.40 1383.89 533.45 1362.31 617.43 1286.17 726.72 1396.88 712.85
00001003 00000135 1089.40 321.65 352.65 507.07 1237.43 546.70 1382.86 529.30 1363.08 613.26 1287.03 723.13 1397.33 708.90
00001004 00000136 1089.77 319.75 352.12 506.18 1237.16 543.61 1382.60 526.26 1363.57 608.97 1288.77 720.69 1398.60 706.45
00001005 00000137 1089.62 318.20 352.68 505.96 1237.29 541.56 1383.28 523.64 1365.31 605.48 1290.46 718.61 1400.92 703.84
00001006 00000138 1090.66 316.99 352.91 507.57 1237.53 540.29 1384.58 521.83 1366.95 602.44 1289.62 716.62 1403.17 701.53
00001007 00000139 1092.55 315.30 351.92 508.05 1237.54 537.86 1385.31 518.53 1368.16 598.41 1290.39 714.31 1405.37 698.58
00001008 00000140 1092.88 315.91 352.88 507.41 1238.79 536.05 1387.06 516.54 1369.97 596.53 1290.71 712.78 1407.34 696.73
00001009 00000141 1094.68 315.30 352.37 506.36 1239.68 535.61 1388.88 516.08 1370.92 595.78 1290.67 711.76 1408.68 695.72
00001010 00000142 1095.97 314.71 352.39 506.74 1240.87 535.06 1391.00 516.01 1372.67 595.59 1291.02 711.39 1410.33 695.74
00001011 00000143 1097.79 312.75 351.43 507.36 1242.48 535.96 1392.60 516.60 1374.07 596.98 1291.61 711.80 1411.29 696.08
00001012 00000144 1099.32 313.58 351.34 507.79 1243.08 537.28 1394.04 516.99 1374.73 598.91 1291.96 713.99 1412.29 697.63
00001013 00000145 1100.96 312.31 351.43 509.66 1244.61 539.20 1396.67 518.12 1375.52 601.75 1292.60 715.64 1413.82 698.56
00001014 00000146 1102.03 313.25 352.50 509.84 1245.02 541.68 1398.28 520.04 1375.05 604.78 1292.25 717.50 1415.04 699.88
00001015 00000147 1103.77 313.68 354.00 508.38 1246.15 543.46 1401.69 521.04 1375.58 606.72 1292.81 719.19 1417.17 700.98
00001016 00000148 1106.38 314.52 352.43 508.55 1248.06 544.98 1404.13 523.35 1376.80 609.09 1293.00 720.82 1417.96 703.42
00001017 00000149 1108.86 315.37 351.70 508.92 1249.43 546.36 1407.10 525.51 1377.99 611.97 1294.00 723.42 1419.93 706.72
00001018 00000150 1111.51 315.51 350.08 510.96 1250.71 547.64 1408.80 527.54 1378.41 614.58 1294.35 725.91 1420.72 710.00
00001019 00000151 1111.64 317.78 351.30 510.62 1252.54 548.40 1411.32 528.02 1380.12 616.66 1295.49 727.87 1422.38 711.58
00001020 00000152 1112.51 319.64 350.41 510.42 1257.10 555.91 1412.82 536.77 1382.66 620.34 1297.13 730.35 1423.87 715.21
00001021 00000153 1112.44 319.97 350.46 510.47 1258.93 557.62 1414.38 538.63 1384.08 621.72 1297.75 731.39 1424.33 716.33
00001022 00000154 1112.70 320.74 349.96 509.84 1256.62 553.99 1413.54 534.75 1383.21 620.51 1296.87 730.36 1424.21 715.06
00001023 00000155 1112.96 320.12 349.73 510.33 1257.09 552.62 1412.59 533.23 1383.47 620.14 1296.90 729.22 1423.06 713.85
00001024 00000156 1112.14 319.95 349.93 509.83 1255.62 551.35 1411.97 530.67 1382.50 619.34 1296.50 728.84 1422.51 712.37
00001025 00000157 1112.11 318.95 349.57 510.17 1254.97 549.99 1411.35 529.51 1381.92 618.72 1296.31 728.33 1421.87 712.08
00001026 00000158 1112.97 317.77 349.11 509.49 1254.74 547.71 1411.32 527.58 1381.69 615.92 1295.43 725.48 1421.38 709.72
00001027 00000159 1111.93 318.13 349.83 507.50 1253.14 547.00 1409.60 526.45 1380.64 613.86 1295.52 724.04 1421.07 707.85
00001028 00000160 1111.79 317.54 349.30 507.33 1252.67 546.50 1408.60 525.36 1380.16 612.68 1295.22 722.92 1420.49 706.35
00001029 00000161 1110.15 316.97 350.06 505.56 1252.47 546.07 1407.14 523.25 1380.16 610.35 1295.56 720.41 1420.18 702.39
00001030 00000162 1109.71 314.92 349.66 505.54 1251.97 545.32 1406.09 522.31 1380.53 608.66 1296.43 719.06 1420.66 700.79
