Video ID: 	sZgtlSDeh0M
H: 	1080
W: 	1920
FPS: 	25.0

FRAME INDEX X0 Y0 W H [Landmarks (5 Points)]

00005946 00000000 712.03 171.92 370.48 579.91 917.00 387.64 1048.11 393.04 1073.22 471.76 962.47 596.85 1075.24 601.39
00005947 00000001 716.05 171.48 365.35 583.58 920.88 389.50 1045.88 388.64 1075.04 476.75 974.97 615.52 1067.63 614.83
00005948 00000002 714.29 177.62 365.00 579.67 916.63 391.54 1046.96 390.46 1072.69 480.72 966.92 616.94 1062.20 616.30
00005949 00000003 711.48 184.48 365.35 573.05 914.47 389.29 1043.39 391.21 1069.71 481.12 958.13 613.45 1052.94 615.59
00005950 00000004 710.19 188.17 363.92 567.93 911.77 390.28 1038.67 391.87 1065.77 481.25 954.83 611.46 1048.66 613.33
00005951 00000005 708.79 187.44 364.92 568.51 909.62 389.70 1037.41 388.52 1063.66 480.61 956.07 612.43 1050.15 611.84
00005952 00000006 706.64 183.08 365.33 572.74 905.54 390.86 1037.42 385.33 1067.64 480.74 952.25 613.11 1051.32 609.40
00005953 00000007 695.96 183.06 364.70 566.39 890.43 402.86 1027.12 397.36 1052.57 479.72 935.26 603.46 1046.99 598.41
00005954 00000008 686.96 182.74 368.46 565.88 883.67 400.82 1021.08 401.53 1035.04 482.21 925.52 601.55 1037.55 600.94
00005955 DELETE   682.00 179.34 372.38 570.55 876.97 401.13 1015.68 403.65 1025.01 483.07 917.98 603.77 1029.19 604.75
00005956 00000010 680.78 178.15 373.83 571.91 875.84 399.84 1014.98 402.77 1024.26 482.04 918.20 602.80 1029.64 604.03
00005957 00000011 683.03 176.05 375.92 568.56 883.31 399.33 1021.20 400.75 1031.73 479.92 931.39 600.30 1042.30 600.21
00005958 00000012 687.04 175.99 373.63 563.54 890.33 394.68 1025.81 397.06 1039.10 478.48 941.44 597.56 1047.59 598.71
00005959 00000013 688.10 174.37 372.97 561.97 890.53 388.95 1025.43 393.11 1039.28 475.31 943.65 594.12 1048.77 596.82
00005960 00000014 683.53 170.02 372.97 563.11 887.02 385.43 1018.85 393.06 1031.12 473.80 940.59 592.49 1041.06 597.66
00005961 00000015 681.51 165.38 372.56 565.45 885.13 385.03 1017.49 391.41 1025.90 473.05 938.12 591.23 1036.10 594.93
00005962 00000016 682.66 163.96 370.80 558.84 886.82 378.94 1017.61 384.00 1025.86 468.42 940.48 585.56 1035.71 587.77
00005963 00000017 684.00 160.88 371.16 555.91 886.47 373.87 1018.07 376.75 1025.83 463.71 940.84 580.11 1036.21 580.46
00005964 00000018 681.14 151.25 368.00 561.11 885.51 368.28 1010.57 369.05 1016.25 460.00 934.87 574.37 1022.29 573.36
00005965 DELETE   684.56 146.93 357.06 569.60 879.88 374.72 1023.37 377.84 1016.35 458.50 906.95 583.38 1018.51 585.63
00005966 DELETE   662.01 151.00 369.64 558.95 851.64 374.84 1001.58 376.69 986.22 461.36 879.66 579.04 995.33 580.46
00005967 00000021 647.92 151.32 376.44 555.62 828.95 370.06 982.06 374.96 956.92 465.91 857.57 576.11 971.01 579.73
00005968 00000022 641.03 148.45 377.96 555.41 819.61 362.50 973.56 367.93 946.52 458.60 851.53 572.00 961.81 575.75
00005969 00000023 639.35 142.12 378.04 551.63 817.55 352.14 974.02 357.17 945.10 449.71 852.76 565.11 961.94 568.19
00005970 00000024 634.78 137.77 383.65 548.64 812.32 343.75 974.51 348.41 944.91 443.42 846.98 557.06 963.03 559.78
00005971 00000025 634.09 135.46 384.52 545.85 810.30 339.92 973.52 345.21 944.15 439.36 845.70 552.78 962.54 555.75
00005972 00000026 637.30 132.83 381.37 550.25 816.91 338.57 977.19 345.45 950.24 437.51 852.57 553.29 965.64 557.87
00005973 00000027 644.72 133.77 377.72 548.66 828.46 341.36 986.80 344.84 964.32 436.55 859.58 550.70 976.93 552.65
00005974 DELETE   660.35 119.09 372.05 559.85 862.37 334.76 1015.03 345.28 1002.77 430.45 879.03 539.29 1000.15 546.97
00005975 00000029 672.13 119.31 367.75 559.84 877.42 330.26 1028.48 343.36 1024.84 425.44 893.76 536.77 1016.00 546.49
00005976 00000030 676.31 108.73 365.61 577.72 881.13 323.72 1027.93 341.10 1032.07 415.46 902.93 536.85 1021.49 549.58
00005977 00000031 681.66 105.89 367.25 580.93 886.79 320.49 1028.77 338.60 1034.68 403.62 913.57 534.15 1028.05 547.28
00005978 00000032 686.10 105.48 370.71 579.93 892.26 320.04 1029.60 332.79 1038.60 401.99 927.10 537.55 1034.98 546.82
00005979 00000033 684.27 108.51 369.24 563.47 886.62 323.01 1008.22 331.60 1036.26 400.36 945.32 525.50 1044.85 532.06
00005980 00000034 684.67 107.47 368.16 564.07 887.22 323.86 1007.72 330.57 1034.58 402.56 945.04 526.80 1042.94 531.92
00005981 00000035 678.55 109.28 373.18 564.15 883.78 326.78 1009.17 333.12 1034.74 409.46 942.37 531.89 1042.07 536.63
00005982 00000036 679.08 110.22 373.19 560.58 884.51 327.33 1008.94 333.94 1032.56 410.17 942.43 531.55 1039.76 536.56
00005983 00000037 680.43 112.95 370.63 557.36 886.55 326.94 1007.31 335.16 1033.85 410.12 946.31 531.18 1039.47 537.76
00005984 00000038 689.51 111.33 368.79 571.97 895.48 325.61 1030.02 331.44 1039.23 410.23 932.03 543.68 1035.51 547.57
00005985 00000039 686.24 111.67 367.06 573.53 891.98 324.33 1028.79 335.93 1037.42 408.65 923.39 539.99 1031.08 548.34
00005986 00000040 685.47 112.01 365.49 572.00 890.90 325.38 1028.66 335.18 1037.74 409.11 926.12 543.21 1032.55 549.85
00005987 00000041 685.54 113.97 364.27 568.44 889.83 328.57 1027.67 336.32 1035.56 412.06 924.91 544.62 1030.91 549.56
00005988 00000042 681.93 115.20 363.30 563.82 886.96 328.93 1025.79 337.67 1031.87 412.32 922.07 542.18 1027.92 547.72
00005989 00000043 676.77 113.74 359.54 564.37 879.37 331.56 1020.24 339.49 1022.34 418.78 915.22 543.24 1022.74 547.79
00005990 00000044 668.35 118.51 359.15 559.66 869.11 336.01 1009.95 345.06 1011.86 423.75 902.60 543.28 1009.54 549.52
00005991 00000045 656.47 117.16 365.03 560.53 852.55 336.00 999.39 344.82 992.97 425.08 888.67 543.83 997.90 550.18
00005992 00000046 648.67 116.35 368.03 558.44 841.94 332.06 989.97 342.97 982.54 417.71 881.11 538.30 991.71 546.60
00005993 00000047 643.72 116.13 368.19 554.18 833.01 329.49 980.92 340.61 974.41 408.99 874.74 530.77 988.11 539.52
00005994 00000048 637.10 113.55 371.70 553.13 824.28 325.80 972.72 337.20 965.70 404.00 869.47 526.49 983.26 535.87
00005995 00000049 632.32 108.96 375.69 554.62 815.38 329.71 965.11 338.75 955.79 401.07 865.11 525.44 980.21 532.75
00005996 00000050 630.60 111.71 375.59 552.56 810.65 331.99 960.59 338.93 948.86 405.15 862.80 529.98 975.70 535.52
00005997 00000051 625.92 113.42 375.47 552.66 807.14 337.31 957.39 342.16 941.75 413.20 857.70 535.90 967.60 539.07
00005998 00000052 622.87 115.65 375.01 549.64 803.76 341.40 955.26 344.93 938.92 418.09 853.21 538.34 963.22 540.28
00005999 00000053 622.97 118.76 376.63 546.17 801.77 345.35 956.82 347.15 936.47 423.46 852.12 542.10 963.81 542.57
00006000 00000054 629.37 129.45 375.28 544.17 805.90 335.47 954.15 338.02 940.75 420.51 859.45 544.60 962.02 544.94
00006001 00000055 629.44 134.57 377.83 543.21 806.98 340.11 957.40 341.64 941.70 424.57 860.34 549.11 964.16 548.32
00006002 00000056 627.96 137.02 380.25 545.34 806.29 344.23 955.77 343.74 940.72 427.65 861.03 553.20 964.23 550.84
00006003 00000057 624.26 139.46 383.73 550.28 802.37 347.92 952.17 347.54 935.11 433.09 856.87 558.59 959.62 556.25
00006004 00000058 623.19 142.77 385.75 556.84 799.49 349.58 950.84 352.14 931.28 438.43 850.33 562.65 956.61 562.87
00006005 00000059 626.22 143.94 381.91 558.73 799.72 353.33 951.05 356.59 930.70 442.23 847.97 566.08 955.56 566.99
00006006 00000060 630.83 146.51 381.33 560.85 799.78 357.48 955.42 360.04 930.52 444.86 845.19 569.18 958.74 569.76
00006007 00000061 635.67 150.18 380.85 560.60 804.20 361.49 962.32 362.64 935.88 450.30 844.30 572.44 962.99 572.27
00006008 00000062 637.78 154.12 380.27 558.95 811.14 365.77 969.00 367.78 944.11 456.60 845.59 574.20 967.20 574.99
00006009 00000063 638.84 156.05 382.19 561.14 818.79 369.73 975.84 372.83 955.01 460.40 849.23 576.10 973.84 577.99
00006010 00000064 643.30 154.90 381.00 561.88 824.92 372.28 982.85 373.83 962.37 462.15 852.17 576.34 979.88 577.33
00006011 00000065 645.36 155.08 382.50 564.66 827.19 374.57 987.12 375.27 966.31 464.73 852.86 578.29 983.96 578.62
00006012 00000066 648.04 158.34 380.34 563.51 829.36 374.18 989.92 378.38 968.12 465.43 853.46 578.51 985.06 581.66
00006013 00000067 647.30 159.73 382.18 567.47 827.95 377.73 989.03 381.70 966.26 466.99 851.61 581.20 985.71 584.09
00006014 00000068 643.47 162.26 384.85 570.40 825.04 380.33 984.63 380.92 962.95 471.82 849.13 584.78 982.82 584.96
00006015 00000069 637.72 163.21 387.08 576.16 819.44 380.49 976.10 381.13 955.13 476.19 843.92 586.39 974.72 586.45
00006016 00000070 633.69 166.52 387.19 575.99 816.08 382.09 969.89 385.02 945.48 480.10 838.93 587.71 966.32 589.56
00006017 00000071 629.14 166.50 387.81 574.64 810.01 382.32 966.26 385.87 936.32 481.09 832.95 587.96 958.77 590.29
00006018 00000072 625.44 167.18 390.97 572.45 804.41 381.79 964.32 385.37 931.39 479.03 828.53 587.15 955.62 589.53
00006019 00000073 624.52 166.32 391.71 572.85 802.58 382.33 962.39 384.25 929.77 478.99 828.32 588.11 954.22 589.09
00006020 00000074 624.82 167.90 391.82 570.66 802.30 381.38 962.86 382.59 930.16 478.86 828.80 588.40 954.95 588.80
00006021 00000075 625.48 167.09 392.46 572.69 801.47 381.16 963.57 382.70 929.20 479.59 829.46 589.56 955.86 590.08
00006022 00000076 627.39 167.49 390.48 572.95 803.89 381.03 965.06 382.63 931.51 481.15 832.07 590.91 957.51 591.42
00006023 00000077 629.35 167.27 388.87 572.10 806.52 380.20 967.13 383.42 933.64 481.46 833.21 590.35 957.53 592.34
00006024 00000078 630.58 167.11 390.17 569.75 808.31 380.44 969.01 382.37 936.18 480.16 836.51 589.91 960.90 590.73
00006025 00000079 633.13 166.10 391.09 567.25 810.71 379.19 972.09 381.39 940.51 477.38 837.53 586.25 965.22 587.18
00006026 00000080 635.73 163.50 390.86 563.63 813.23 377.87 976.68 381.63 943.73 474.61 839.85 584.28 968.11 586.58
00006027 00000081 639.35 164.16 388.52 561.63 816.69 380.28 981.61 383.53 949.30 474.65 842.71 584.93 973.42 586.84
00006028 00000082 641.83 164.09 389.72 569.87 822.06 381.19 986.05 385.54 958.43 473.99 848.49 588.20 981.14 591.26
00006029 00000083 646.46 165.18 388.56 574.99 824.20 380.22 989.79 383.34 962.30 473.71 852.04 592.84 986.64 594.99
00006030 00000084 647.68 166.46 385.49 578.46 820.59 381.17 985.73 384.56 958.40 473.07 850.75 594.88 984.32 597.16
00006031 00000085 644.86 166.43 386.60 574.44 814.43 385.01 986.03 385.92 953.51 476.73 844.21 594.27 984.43 594.53
00006032 00000086 641.48 167.79 389.28 574.75 806.90 384.34 980.07 389.43 940.79 479.86 833.15 592.78 974.97 596.56
00006033 00000087 641.90 167.47 386.55 579.13 805.82 385.47 972.52 391.33 932.02 483.54 831.48 594.94 966.41 599.30
00006034 00000088 641.94 168.04 386.45 573.65 802.59 386.05 971.98 392.45 927.74 483.07 829.52 594.39 964.65 599.26
00006035 00000089 642.08 168.18 386.62 572.31 802.62 387.25 971.85 393.99 926.37 483.98 831.50 596.29 963.58 601.32
00006036 00000090 642.91 168.27 387.36 577.51 802.20 386.77 974.12 394.34 927.44 484.75 831.65 599.74 966.59 605.47
00006037 00000091 644.96 168.25 385.87 576.98 804.81 388.62 977.12 396.43 930.35 487.50 836.55 604.85 967.45 610.91
00006038 00000092 646.51 172.91 385.69 570.03 806.22 390.71 981.23 398.14 933.50 490.55 838.78 607.59 969.27 613.43
00006039 00000093 649.94 174.11 380.18 565.53 810.11 392.97 980.00 400.65 935.06 490.51 845.00 608.57 968.28 614.77
00006040 00000094 652.10 178.14 378.58 559.75 808.36 395.12 981.82 402.65 934.82 491.41 844.75 609.83 970.34 615.85
00006041 00000095 650.60 178.04 379.79 558.39 809.73 395.53 982.19 402.77 934.80 491.57 845.05 607.52 970.99 613.16
00006042 00000096 649.02 178.10 381.21 564.53 807.69 394.04 980.10 401.44 931.88 493.28 842.49 611.68 967.25 617.52
00006043 00000097 647.04 178.61 382.13 568.40 806.46 393.83 977.59 402.92 928.25 493.94 839.35 612.97 962.60 620.14
00006044 00000098 647.00 178.90 381.23 570.49 804.62 393.38 976.59 402.53 926.98 494.58 837.28 613.74 962.69 620.82
00006045 00000099 646.17 179.62 381.25 567.91 804.89 394.82 976.09 402.70 926.82 494.15 838.35 613.70 962.12 619.82
00006046 00000100 645.09 178.48 381.92 567.52 805.63 394.47 976.28 402.68 927.42 493.96 838.89 612.40 961.45 618.77
00006047 00000101 644.58 176.23 382.05 569.89 805.09 392.83 975.42 401.66 926.34 492.43 837.53 610.60 960.66 617.49
00006048 00000102 642.87 176.28 383.01 569.85 801.67 392.99 973.13 401.48 922.79 493.02 834.83 611.03 959.06 617.53
00006049 00000103 642.91 176.87 382.68 570.57 799.01 393.56 971.75 401.07 920.96 494.60 833.13 612.24 959.17 617.92
CROP_BBOX: 411 0 1327 890
