Video ID: 	7Ba_aJ7TvmI
H: 	2160
W: 	3840
FPS: 	25.0

FRAME INDEX X0 Y0 W H [Landmarks (5 Points)]

00004133 00000000 1798.03 403.46 595.50 893.20 1867.32 760.30 2109.37 719.02 1910.57 861.33 1895.02 1048.40 2143.99 1014.75
00004134 00000001 1784.60 428.47 602.90 876.10 1866.98 773.05 2102.33 728.47 1900.18 867.05 1897.73 1057.68 2132.52 1022.66
00004135 00000002 1779.91 435.63 608.44 871.23 1861.77 776.63 2094.93 736.66 1890.87 879.38 1895.80 1063.82 2125.30 1032.67
00004136 00000003 1777.36 434.39 610.35 876.02 1857.29 779.94 2093.20 742.01 1885.49 884.46 1887.33 1066.05 2125.48 1035.63
00004137 00000004 1775.38 433.94 609.24 876.51 1854.26 780.33 2094.31 744.44 1886.11 889.79 1882.31 1068.11 2127.11 1039.13
00004138 00000005 1777.90 432.17 607.92 887.17 1857.78 782.03 2098.58 748.30 1890.36 891.30 1884.16 1071.47 2124.62 1044.83
00004139 00000006 1782.20 431.76 602.62 887.19 1865.66 778.20 2100.97 748.31 1890.63 884.82 1884.21 1065.04 2123.63 1041.07
00004140 00000007 1780.92 432.31 606.05 885.50 1865.82 773.52 2101.50 747.94 1889.31 880.92 1881.72 1060.71 2120.27 1040.36
00004141 00000008 1777.41 429.73 610.68 886.91 1861.81 772.70 2097.03 746.14 1884.97 879.32 1878.87 1060.59 2115.52 1039.50
00004142 00000009 1776.90 433.36 611.65 883.92 1859.98 772.61 2087.20 744.19 1874.17 880.25 1879.63 1062.58 2106.38 1040.41
00004143 00000010 1776.65 431.13 609.63 881.67 1856.50 770.65 2086.37 744.28 1871.33 880.28 1874.85 1060.97 2107.29 1039.85
00004144 00000011 1778.55 429.10 606.64 882.89 1857.28 771.30 2086.84 745.18 1869.51 881.81 1873.66 1063.63 2105.74 1042.59
00004145 00000012 1779.27 431.48 602.78 885.25 1859.12 769.11 2087.83 744.38 1868.88 882.64 1877.71 1065.31 2107.28 1045.71
00004146 00000013 1782.59 430.03 597.14 876.33 1863.23 765.55 2087.92 741.76 1872.25 880.34 1881.73 1059.05 2109.04 1040.56
00004147 00000014 1784.20 427.89 598.73 861.89 1864.12 765.44 2094.59 742.75 1880.59 877.84 1880.29 1055.96 2110.30 1039.40
00004148 00000015 1785.20 424.96 595.85 860.94 1864.94 764.38 2100.75 743.88 1888.07 876.14 1879.31 1047.91 2116.84 1033.22
00004149 00000016 1787.55 421.40 599.33 861.05 1868.76 765.01 2109.32 743.68 1901.26 877.21 1883.77 1044.14 2125.38 1028.79
00004150 DELETE   1804.01 416.24 592.73 878.41 1878.91 766.58 2124.29 736.59 1924.82 875.93 1899.72 1049.86 2149.38 1025.67
00004151 DELETE   1798.13 427.74 613.07 864.33 1884.82 783.32 2138.33 738.65 1939.72 880.81 1912.72 1061.82 2167.73 1027.31
00004152 DELETE   1798.19 427.68 618.40 866.70 1891.71 792.47 2156.46 746.08 1972.13 894.14 1926.09 1067.84 2187.76 1032.02
00004153 00000020 1799.06 435.58 625.73 866.03 1896.53 803.15 2161.23 753.13 1983.52 912.57 1942.15 1077.44 2198.28 1038.64
00004154 00000021 1796.17 433.26 629.52 874.37 1900.23 799.24 2164.90 749.31 1988.33 911.57 1949.02 1079.09 2200.51 1040.85
00004155 00000022 1794.70 428.68 631.19 869.63 1901.75 789.13 2172.10 738.65 1994.24 894.71 1945.09 1071.85 2205.01 1033.12
00004156 00000023 1796.55 426.36 627.80 862.45 1897.56 779.45 2177.07 737.37 1998.55 878.73 1940.78 1056.47 2213.23 1022.57
00004157 00000024 1801.79 423.53 623.73 860.52 1897.80 767.48 2166.09 717.71 1995.59 862.35 1941.85 1051.79 2207.63 1006.79
00004158 00000025 1802.02 421.09 619.39 858.30 1899.45 761.52 2167.41 713.26 1996.65 852.97 1938.61 1043.82 2207.92 999.33
00004159 00000026 1800.55 423.82 616.64 846.77 1897.18 758.99 2163.91 709.84 1994.73 847.05 1936.59 1038.15 2205.42 992.45
00004160 00000027 1800.93 422.71 614.16 841.33 1895.82 756.72 2158.87 704.02 1987.80 840.39 1934.42 1033.49 2203.33 983.65
00004161 00000028 1797.25 417.98 614.98 842.69 1893.19 749.05 2156.69 697.29 1982.98 833.71 1934.43 1027.44 2199.32 977.53
00004162 00000029 1789.71 395.10 620.20 858.81 1891.49 744.41 2159.69 686.25 1981.93 834.67 1939.83 1022.65 2203.18 974.48
00004163 00000030 1787.95 387.60 619.17 859.80 1891.55 743.70 2157.49 685.32 1979.06 831.27 1936.61 1019.53 2199.95 971.47
00004164 00000031 1791.26 392.35 619.31 845.74 1886.01 744.44 2155.30 688.83 1977.13 827.88 1923.96 1023.50 2193.14 975.50
00004165 00000032 1793.74 401.21 620.17 835.31 1888.51 752.15 2160.60 696.82 1979.16 829.48 1917.48 1027.55 2197.78 980.14
00004166 00000033 1794.88 423.17 608.83 819.09 1900.13 758.47 2161.25 716.52 1992.11 838.15 1921.02 1026.45 2196.14 986.61
00004167 00000034 1795.40 421.46 612.87 837.28 1903.09 757.82 2174.92 718.39 2010.95 850.53 1931.50 1032.76 2207.52 996.30
00004168 00000035 1795.62 410.29 626.46 868.06 1911.72 757.52 2195.41 722.99 2030.04 860.69 1945.91 1040.93 2215.49 1010.54
00004169 00000036 1804.22 408.19 621.92 886.48 1917.83 763.92 2208.10 730.44 2039.63 866.91 1957.81 1052.01 2220.47 1023.45
00004170 00000037 1811.43 412.93 621.99 893.83 1936.29 773.01 2224.33 742.35 2053.51 867.87 1968.43 1055.49 2238.62 1033.05
00004171 00000038 1819.27 407.36 623.41 909.44 1947.21 772.62 2234.96 747.78 2063.63 878.13 1975.19 1057.70 2247.41 1041.32
00004172 DELETE   1827.44 428.62 623.17 901.45 1958.91 779.03 2249.25 753.62 2073.13 895.60 1988.91 1070.95 2250.03 1054.95
00004173 00000040 1825.84 444.06 639.31 895.52 1959.56 781.87 2264.77 764.17 2091.83 904.23 2000.88 1085.04 2259.33 1067.82
00004174 00000041 1833.15 441.55 634.97 890.54 1968.97 790.28 2271.51 774.19 2104.65 917.76 2006.08 1086.45 2268.17 1070.43
00004175 00000042 1845.71 425.21 625.93 907.74 1984.95 796.60 2278.66 784.16 2108.68 928.15 2006.88 1082.36 2277.74 1074.59
00004176 00000043 1851.73 424.13 622.64 909.19 1992.56 800.29 2286.20 789.20 2118.71 935.61 2013.74 1086.31 2284.06 1079.26
00004177 00000044 1855.71 421.86 620.53 919.93 2003.71 797.52 2292.82 791.93 2127.33 927.32 2019.80 1084.44 2288.75 1082.45
00004178 00000045 1864.27 421.89 618.96 914.89 2009.81 798.61 2297.38 793.02 2134.32 922.57 2029.19 1085.62 2288.93 1084.69
00004179 00000046 1866.79 423.00 617.58 913.38 2013.71 802.36 2299.59 797.30 2138.55 925.57 2035.06 1090.11 2287.87 1089.85
00004180 00000047 1866.05 424.63 617.11 909.86 2014.71 807.66 2306.00 803.07 2144.65 935.31 2038.75 1099.88 2288.19 1099.51
00004181 00000048 1864.67 431.69 619.93 907.78 2014.62 809.98 2308.65 806.76 2144.51 940.17 2037.07 1104.05 2287.41 1104.78
00004182 00000049 1863.35 432.26 620.20 910.95 2013.53 810.82 2308.31 807.37 2145.58 939.02 2038.38 1107.73 2285.17 1108.47
00004183 00000050 1858.89 431.63 625.05 912.14 2011.08 812.20 2305.80 807.20 2145.78 937.23 2038.26 1109.67 2284.62 1108.92
00004184 00000051 1857.03 430.66 626.50 911.88 2008.06 810.94 2300.27 802.44 2140.25 937.96 2037.44 1108.83 2284.92 1105.18
00004185 00000052 1855.15 428.27 626.94 911.39 2003.00 807.85 2297.70 797.94 2133.87 934.21 2033.39 1105.30 2284.91 1100.34
00004186 00000053 1853.12 425.91 628.61 916.21 1999.67 803.87 2295.10 791.72 2130.73 925.37 2033.43 1102.36 2280.79 1095.77
00004187 00000054 1845.06 436.27 641.27 917.05 1993.70 798.79 2291.63 791.21 2124.86 936.82 2032.68 1104.75 2268.54 1099.81
00004188 00000055 1853.46 426.32 623.85 926.79 1997.41 808.18 2290.32 795.89 2127.70 931.43 2033.47 1110.40 2277.06 1103.75
00004189 00000056 1852.85 436.95 625.89 916.72 1996.01 816.81 2289.50 805.49 2124.56 940.18 2033.70 1117.41 2276.73 1111.17
00004190 00000057 1853.82 440.65 621.01 912.90 1994.36 822.93 2291.55 812.17 2123.60 951.04 2030.84 1123.57 2274.70 1117.61
00004191 00000058 1853.00 443.06 618.90 905.37 1995.06 826.54 2294.04 819.18 2124.00 955.77 2025.33 1123.02 2271.17 1120.08
00004192 00000059 1854.22 440.23 618.25 898.86 1996.39 825.61 2297.61 821.92 2127.41 956.22 2028.77 1127.03 2265.81 1126.75
00004193 00000060 1854.37 438.50 616.82 889.76 1996.92 823.73 2300.03 821.29 2128.89 957.01 2031.17 1125.71 2264.94 1126.34
00004194 00000061 1857.29 440.29 614.92 894.78 2001.44 824.96 2302.11 823.21 2132.93 953.14 2034.18 1126.90 2265.69 1128.39
00004195 00000062 1855.80 435.70 620.35 900.41 2002.61 826.70 2302.25 823.87 2135.07 956.34 2041.76 1132.29 2267.80 1132.68
00004196 00000063 1857.52 439.38 622.14 895.34 2005.32 828.91 2304.23 826.10 2136.88 961.82 2040.62 1131.79 2273.44 1132.32
00004197 00000064 1859.64 440.70 622.19 903.99 2009.32 830.50 2306.74 826.32 2141.17 961.88 2042.35 1132.82 2278.74 1132.66
00004198 00000065 1862.17 441.26 621.75 909.80 2011.17 831.77 2309.48 828.93 2143.79 966.33 2044.29 1138.74 2278.98 1139.67
00004199 00000066 1867.30 444.88 622.50 919.10 2016.80 834.14 2313.32 831.63 2149.21 967.37 2046.65 1142.24 2282.34 1144.19
00004200 00000067 1871.60 449.46 618.54 916.83 2020.50 837.38 2318.20 836.12 2154.37 973.09 2047.82 1144.47 2287.18 1147.53
00004201 00000068 1873.90 452.76 621.87 913.25 2025.22 842.19 2322.78 842.43 2160.35 976.79 2051.15 1144.54 2292.83 1148.71
00004202 00000069 1872.94 463.60 629.87 909.05 2035.90 837.53 2330.66 839.36 2174.24 980.41 2064.56 1148.93 2296.64 1152.55
00004203 00000070 1892.24 471.87 610.87 898.50 2039.52 839.66 2340.61 842.22 2178.89 979.31 2062.72 1146.21 2307.13 1152.01
00004204 00000071 1894.53 471.20 614.81 897.12 2042.12 844.58 2347.63 844.82 2185.07 982.99 2072.29 1154.02 2312.72 1157.23
00004205 00000072 1895.91 466.81 616.88 907.85 2048.67 845.78 2353.94 850.20 2190.91 986.68 2076.32 1156.19 2314.61 1162.78
00004206 00000073 1894.31 464.67 623.62 919.92 2052.66 846.41 2358.82 849.76 2196.06 987.89 2080.49 1159.39 2320.24 1165.15
00004207 00000074 1899.78 467.24 620.05 919.16 2055.53 845.37 2359.25 849.65 2195.26 991.12 2082.69 1160.46 2319.70 1166.96
00004208 00000075 1901.25 466.89 619.08 913.59 2058.29 847.46 2360.98 851.71 2199.69 992.11 2087.69 1160.22 2321.71 1166.45
00004209 00000076 1902.14 467.11 621.15 912.80 2059.24 848.07 2363.70 849.48 2202.93 990.94 2094.40 1163.61 2324.34 1167.33
00004210 00000077 1903.39 467.71 621.99 914.87 2062.45 849.46 2365.82 850.07 2206.30 988.47 2096.81 1163.88 2328.55 1167.16
00004211 00000078 1906.31 466.97 619.32 907.86 2063.32 848.23 2368.41 849.73 2209.76 987.42 2096.41 1160.89 2330.01 1165.10
00004212 00000079 1907.39 466.22 618.89 901.67 2063.16 848.61 2369.18 850.13 2210.89 985.50 2095.36 1157.76 2332.07 1161.95
00004213 00000080 1910.19 466.64 619.28 900.55 2066.58 848.11 2370.65 848.54 2214.17 983.64 2100.51 1156.82 2334.01 1160.23
00004214 00000081 1910.12 464.87 620.15 906.17 2068.62 847.61 2371.06 847.58 2215.50 983.87 2101.27 1156.68 2335.17 1159.99
00004215 00000082 1909.08 465.84 621.69 908.12 2067.71 850.59 2371.07 849.15 2215.40 986.14 2100.81 1159.49 2336.61 1161.68
00004216 00000083 1909.34 469.35 621.31 907.44 2067.47 850.53 2371.78 849.69 2214.79 988.50 2099.14 1159.84 2338.33 1162.57
00004217 00000084 1908.76 468.88 621.43 907.52 2068.04 850.25 2371.70 851.11 2214.82 989.72 2098.75 1159.89 2336.22 1163.93
00004218 00000085 1906.38 471.76 623.24 908.09 2066.09 851.29 2370.94 852.83 2212.97 990.25 2096.63 1161.65 2334.48 1166.13
00004219 00000086 1904.12 470.69 623.13 910.28 2063.75 851.85 2368.20 853.90 2209.54 993.62 2093.99 1163.08 2330.94 1167.91
00004220 00000087 1903.48 470.99 622.00 911.90 2063.68 853.68 2363.01 854.74 2207.00 998.92 2094.31 1164.80 2327.21 1168.67
00004221 00000088 1899.12 466.04 621.95 916.78 2060.81 852.31 2361.36 855.43 2204.88 997.99 2094.17 1166.98 2321.69 1171.86
00004222 00000089 1897.95 466.08 619.35 916.18 2059.21 852.49 2358.76 857.39 2201.95 999.93 2092.68 1169.41 2315.62 1175.52
00004223 00000090 1896.20 469.95 619.93 912.42 2054.87 851.62 2357.08 856.75 2197.34 999.26 2087.91 1169.22 2313.95 1175.42
00004224 00000091 1890.94 472.08 622.36 911.62 2051.32 852.67 2357.63 858.03 2196.72 997.97 2081.20 1168.54 2316.56 1175.36
00004225 00000092 1888.18 474.47 624.73 914.54 2050.84 855.60 2354.58 861.95 2193.50 998.61 2077.19 1166.70 2314.45 1174.58
00004226 00000093 1891.62 474.26 619.84 915.84 2050.09 856.89 2351.26 861.95 2189.76 998.55 2080.47 1169.95 2310.53 1176.42
00004227 00000094 1892.94 474.74 617.45 909.77 2049.79 859.21 2350.26 863.54 2189.07 999.20 2083.98 1173.96 2307.84 1179.58
00004228 00000095 1893.63 477.06 616.83 901.22 2048.67 860.97 2348.84 864.45 2187.87 998.71 2085.63 1174.94 2306.60 1179.69
00004229 00000096 1895.69 478.11 616.29 898.10 2048.64 861.20 2350.20 863.48 2188.56 1000.98 2085.76 1174.51 2310.91 1178.37
00004230 00000097 1895.93 476.38 617.52 902.01 2052.01 859.81 2349.64 862.79 2190.13 1001.67 2088.66 1171.92 2311.42 1176.24
00004231 00000098 1900.68 477.76 615.64 896.46 2052.99 859.83 2354.00 861.07 2193.03 996.89 2088.78 1171.55 2315.90 1174.53
00004232 00000099 1902.33 474.72 615.97 904.59 2056.70 854.76 2357.25 857.46 2195.91 998.83 2092.60 1172.47 2315.48 1176.59
00004233 00000100 1902.54 466.21 620.41 927.60 2061.48 852.48 2360.64 855.66 2201.69 996.30 2097.22 1174.66 2317.30 1179.11
00004234 00000101 1903.11 467.58 623.31 948.01 2063.59 848.23 2362.88 851.76 2202.85 990.53 2096.92 1177.97 2318.94 1182.90
00004235 00000102 1907.26 466.36 621.92 968.97 2066.02 848.90 2363.30 852.52 2202.55 991.78 2099.45 1186.79 2318.52 1191.29
00004236 00000103 1906.98 474.75 625.17 953.64 2066.95 851.99 2366.77 855.69 2204.85 993.00 2098.00 1185.87 2323.27 1191.04
00004237 00000104 1906.62 478.88 630.14 941.25 2069.02 855.60 2367.67 856.77 2208.13 1000.28 2097.22 1177.91 2335.16 1181.86
00004238 00000105 1906.22 474.46 638.54 951.15 2070.24 855.86 2372.69 855.29 2211.70 1001.22 2097.98 1179.12 2342.12 1182.03
00004239 00000106 1915.21 477.23 627.69 935.97 2073.31 861.51 2375.84 860.21 2215.19 998.26 2105.87 1186.70 2337.44 1188.68
00004240 00000107 1919.48 476.27 623.06 938.98 2077.22 863.90 2375.05 861.79 2217.90 1000.02 2112.05 1192.24 2334.00 1193.36
00004241 00000108 1921.60 480.12 622.74 938.69 2081.46 865.78 2376.58 863.31 2222.51 1000.61 2113.50 1192.85 2336.82 1193.97
00004242 00000109 1920.36 476.03 629.82 938.73 2088.34 868.87 2381.45 869.76 2227.31 1009.19 2120.55 1188.05 2347.23 1190.85
00004243 00000110 1919.40 477.62 634.76 937.40 2090.56 869.85 2384.62 870.29 2228.33 1017.64 2115.23 1180.22 2356.88 1183.27
00004244 00000111 1921.31 475.94 638.19 936.07 2094.47 870.29 2388.70 869.75 2233.18 1017.24 2116.51 1174.75 2365.63 1177.47
00004245 00000112 1929.60 477.20 632.47 935.14 2098.77 869.98 2393.98 870.40 2239.71 1011.79 2125.89 1181.74 2366.31 1185.06
00004246 00000113 1932.70 481.65 630.84 934.27 2103.30 870.22 2395.86 870.43 2245.90 1012.57 2135.35 1189.19 2361.70 1192.26
00004247 00000114 1938.63 488.28 629.45 927.18 2106.26 875.27 2401.09 873.50 2251.50 1023.97 2136.29 1194.83 2370.02 1195.57
00004248 00000115 1942.42 498.19 624.77 908.29 2106.73 878.06 2407.49 880.08 2251.69 1035.90 2133.23 1194.43 2371.14 1198.45
00004249 00000116 1944.87 502.40 620.30 899.97 2108.93 882.39 2410.73 886.30 2255.15 1040.44 2132.36 1195.18 2372.45 1200.79
CROP_BBOX: 1391 0 3012 1666
