Video ID: 	3okEPfbGEWQ
H: 	1080
W: 	1920
FPS: 	25.0

FRAME INDEX X0 Y0 W H [Landmarks (5 Points)]

00002430 00000000 607.07 220.39 550.59 760.55 681.49 499.29 923.45 504.43 742.04 653.73 700.40 793.43 880.89 799.86
00002431 00000001 609.04 229.57 547.76 763.03 687.80 503.19 921.06 503.29 744.26 651.83 708.46 799.70 882.64 803.21
00002432 00000002 605.99 212.84 551.31 776.25 679.64 498.36 925.55 499.75 743.19 649.41 702.98 793.65 896.05 796.20
00002433 00000003 605.51 209.45 550.69 758.04 682.75 484.40 927.07 495.98 744.06 638.88 696.87 768.42 899.65 778.88
00002434 00000004 620.65 203.00 542.41 752.25 696.51 479.43 935.54 489.97 753.53 620.73 701.74 751.18 910.47 760.64
00002435 00000005 634.50 200.13 538.37 759.67 706.70 479.80 944.78 484.08 763.82 614.09 713.07 756.09 923.78 760.52
00002436 00000006 645.45 202.00 538.38 754.83 716.84 475.18 952.80 482.58 770.25 611.43 721.02 750.21 933.85 757.01
00002437 00000007 653.16 204.35 537.24 746.14 722.36 474.62 955.83 484.06 772.36 610.24 727.52 747.45 937.44 755.98
00002438 00000008 658.73 202.74 537.14 746.82 727.67 472.86 958.92 483.84 774.71 609.91 732.58 747.64 936.60 757.42
00002439 00000009 662.63 196.28 536.07 745.71 728.92 472.06 965.10 479.25 776.89 606.28 732.47 746.80 941.27 754.43
00002440 00000010 663.44 193.23 537.67 743.78 733.44 466.57 971.28 474.05 784.31 599.28 736.24 741.57 943.28 749.83
00002441 00000011 667.17 191.10 534.44 748.02 738.59 464.81 975.90 471.82 788.55 597.98 741.93 744.18 943.96 752.24
00002442 00000012 670.58 190.99 533.37 750.25 741.65 465.95 978.70 469.98 790.88 595.67 745.73 749.08 942.32 755.13
00002443 00000013 671.41 190.90 533.82 748.80 742.78 463.67 979.84 468.05 792.15 596.57 747.07 749.39 939.69 755.97
00002444 00000014 673.98 190.57 533.46 749.66 745.69 465.10 979.25 468.86 793.40 596.79 749.65 749.62 938.99 755.69
00002445 00000015 672.78 189.33 531.74 750.30 742.05 468.91 973.80 468.86 790.71 595.28 746.87 750.44 932.86 753.32
00002446 00000016 673.74 188.46 528.95 749.10 738.36 468.66 966.94 467.95 780.25 592.49 740.28 748.83 924.01 751.59
00002447 00000017 674.89 187.04 520.80 738.31 732.32 463.10 961.44 463.72 773.16 592.18 734.62 746.43 917.61 750.26
00002448 00000018 669.40 185.60 523.09 738.75 723.48 467.05 948.43 463.78 759.65 592.37 728.50 747.15 910.79 747.33
00002449 DELETE   667.94 183.01 520.57 742.80 713.87 467.42 935.10 456.66 743.96 588.00 725.68 751.92 902.87 745.77
00002450 00000020 661.09 175.41 518.67 747.93 702.45 464.58 919.02 455.95 724.32 581.19 709.25 744.17 879.74 739.87
00002451 00000021 649.21 177.87 522.96 732.80 689.04 466.67 904.92 459.60 709.04 580.77 700.22 735.92 872.11 732.91
00002452 00000022 644.47 180.29 523.64 721.80 690.18 467.10 900.95 466.68 709.34 580.32 698.04 725.79 873.94 726.35
00002453 00000023 651.86 184.01 516.00 708.06 689.07 462.36 900.71 463.84 707.59 583.31 697.99 724.52 872.79 728.17
00002454 00000024 657.61 191.76 515.83 707.86 693.20 468.89 902.77 469.46 709.98 592.42 703.86 732.55 879.93 734.99
00002455 00000025 661.09 198.55 509.98 703.11 694.79 470.09 900.60 472.32 704.79 597.32 711.09 735.86 878.85 736.67
00002456 00000026 659.69 194.62 510.25 705.92 691.82 467.39 892.94 473.83 699.68 594.14 700.93 730.84 868.16 738.21
00002457 00000027 655.00 187.30 517.24 725.65 694.28 463.09 883.04 476.32 686.78 594.46 704.54 727.50 867.83 737.83
00002458 00000028 652.90 187.47 517.83 728.00 693.00 458.28 876.38 476.40 677.87 595.44 703.47 724.34 865.83 738.04
00002459 00000029 652.07 189.19 517.70 734.18 692.74 459.38 873.00 475.71 675.96 594.74 705.31 727.39 867.21 739.26
00002460 00000030 645.12 189.45 511.25 733.04 687.46 461.08 871.94 471.20 676.07 593.04 699.26 732.11 862.49 740.94
00002461 00000031 648.72 183.02 513.56 742.86 689.63 455.87 872.33 469.06 676.30 589.06 699.61 728.88 861.70 738.35
00002462 00000032 643.11 182.98 511.72 736.36 685.26 452.48 875.15 464.17 677.54 586.08 692.29 728.69 858.72 739.60
00002463 00000033 643.31 179.66 511.72 729.72 682.83 451.91 879.61 463.15 683.70 585.51 690.32 724.93 856.44 736.28
00002464 00000034 641.49 178.50 514.55 729.68 680.60 458.22 881.62 463.23 688.55 586.91 689.48 732.23 854.24 739.12
00002465 00000035 635.41 178.23 521.23 740.02 678.33 463.96 882.47 463.60 690.19 588.89 690.40 740.93 856.98 743.38
00002466 00000036 631.86 177.67 525.93 749.41 677.84 465.67 884.38 464.71 690.19 589.26 690.14 745.35 858.56 747.09
00002467 00000037 628.18 179.25 529.00 746.77 678.25 466.14 889.09 468.41 697.38 593.92 691.27 742.41 865.70 746.54
00002468 00000038 632.83 188.37 533.15 735.71 685.07 470.40 901.92 470.18 711.77 596.99 698.02 744.48 872.00 746.53
00002469 00000039 632.98 194.86 535.17 739.99 691.03 474.25 908.19 473.66 721.51 603.13 703.61 750.04 877.26 751.71
00002470 00000040 635.00 204.83 534.35 734.80 695.95 479.25 914.26 478.06 731.58 610.55 709.14 756.83 877.58 758.13
00002471 00000041 636.06 203.58 538.21 746.01 700.73 483.04 919.92 481.27 735.86 608.71 711.60 762.89 878.08 763.90
00002472 00000042 635.06 199.54 540.19 755.71 701.07 487.68 923.29 482.56 739.09 603.45 712.71 765.40 885.86 763.41
00002473 00000043 637.41 200.16 537.76 751.21 702.63 485.22 926.36 477.51 743.76 600.00 715.66 763.14 894.42 758.83
00002474 00000044 642.02 194.00 537.29 739.29 704.27 481.63 931.82 474.71 748.69 598.59 714.69 758.13 890.79 755.08
00002475 00000045 640.97 191.39 536.90 732.41 702.45 477.43 931.71 472.75 748.43 596.84 711.26 752.42 887.20 751.33
00002476 00000046 642.87 190.06 535.91 737.84 705.51 476.92 933.41 470.61 750.75 595.55 716.15 754.67 891.07 752.15
00002477 00000047 642.20 190.19 536.80 743.52 707.57 476.88 937.50 471.17 757.23 597.36 719.40 757.18 898.37 754.98
00002478 00000048 644.66 195.90 533.33 729.86 705.08 478.39 941.27 476.52 764.31 606.10 717.11 754.30 909.76 754.59
00002479 00000049 643.00 197.52 536.64 732.57 707.20 487.23 938.46 483.85 763.17 610.59 720.12 756.98 910.54 756.02
00002480 00000050 643.49 194.64 535.52 737.59 707.86 484.21 937.64 481.17 762.29 609.08 720.38 757.15 909.34 756.53
00002481 00000051 644.47 183.74 527.51 747.03 703.62 473.67 939.08 473.58 756.92 603.17 712.44 748.92 906.84 750.63
00002482 00000052 647.58 177.32 528.27 750.06 707.12 467.24 945.10 468.95 761.56 600.79 715.16 744.13 910.78 747.35
00002483 00000053 650.94 177.69 532.38 756.15 712.99 465.86 950.52 468.77 766.60 604.66 723.47 745.33 921.04 749.26
00002484 00000054 651.74 187.17 540.91 753.90 720.64 467.88 958.06 468.34 777.08 603.89 733.21 752.54 936.88 753.61
00002485 00000055 651.42 179.71 542.04 762.91 718.63 462.52 960.84 467.91 773.07 603.81 728.84 741.55 941.40 746.77
00002486 00000056 652.94 178.44 539.22 760.54 719.75 463.03 959.89 468.88 773.45 602.04 728.22 738.28 938.88 744.24
00002487 00000057 653.35 180.57 537.99 750.25 725.88 463.51 963.53 464.03 779.95 600.68 736.22 747.08 929.73 749.98
00002488 00000058 649.22 178.95 538.45 752.31 719.63 468.62 952.82 466.57 773.15 593.56 729.86 752.23 906.22 753.31
00002489 00000059 647.24 181.47 533.16 745.51 720.21 460.90 954.01 462.38 770.57 596.04 726.07 748.98 901.54 753.58
00002490 00000060 645.72 180.47 537.49 756.08 716.66 467.54 948.94 466.47 769.44 592.57 725.05 752.60 898.78 754.57
00002491 00000061 641.97 180.85 540.92 761.45 716.08 471.23 947.90 464.44 770.23 595.63 732.03 759.68 908.35 756.35
00002492 00000062 637.26 177.42 529.93 758.84 699.47 469.76 939.33 470.46 755.73 605.10 710.88 747.81 910.83 749.92
00002493 00000063 632.54 183.33 533.65 750.33 694.54 470.72 934.37 472.18 750.08 606.20 706.03 743.85 911.94 746.77
00002494 00000064 632.17 185.68 536.40 754.50 695.16 474.00 932.50 473.39 748.01 606.51 710.81 749.94 914.44 750.54
00002495 00000065 634.38 186.29 536.60 756.39 696.15 474.63 933.41 474.41 747.81 605.89 711.08 749.95 916.50 750.83
00002496 00000066 635.46 187.65 536.85 752.85 696.90 473.96 933.62 474.75 747.75 606.61 711.39 748.52 915.86 750.24
00002497 00000067 634.93 189.93 535.25 746.38 696.79 475.21 930.30 477.40 746.17 608.28 710.70 746.00 912.04 748.83
00002498 00000068 632.43 194.77 538.03 742.00 696.05 477.93 924.89 475.60 743.15 607.18 711.00 750.18 909.91 749.33
00002499 00000069 631.01 194.31 538.83 740.28 695.42 476.39 923.63 475.05 741.94 606.46 709.28 748.94 907.46 748.95
00002500 00000070 629.47 189.04 539.01 745.04 693.90 474.14 927.27 475.68 742.95 604.11 706.70 744.95 906.39 747.03
00002501 00000071 630.45 191.38 537.74 746.49 694.94 475.46 928.50 476.45 745.33 606.66 709.46 749.19 906.51 750.87
00002502 00000072 633.49 197.41 537.11 745.27 700.37 479.74 931.42 477.15 751.89 609.63 716.71 758.38 911.34 757.37
00002503 00000073 636.20 199.67 536.40 743.19 703.04 479.04 933.63 476.64 755.87 610.60 719.02 757.76 910.31 757.10
00002504 00000074 637.08 199.56 536.31 741.42 703.71 478.04 934.31 475.44 756.97 610.44 720.13 756.72 909.32 756.08
00002505 00000075 638.76 188.22 530.43 746.61 700.06 474.28 932.52 473.77 750.57 605.92 714.34 749.48 906.38 750.42
00002506 00000076 639.74 184.48 529.43 747.54 699.14 472.51 931.35 469.42 749.54 600.75 714.31 747.80 906.43 746.56
00002507 00000077 641.14 182.73 528.78 747.06 700.47 470.72 931.56 467.30 749.80 597.03 714.82 744.68 907.40 743.09
00002508 00000078 640.42 178.45 530.39 747.34 699.84 468.41 932.16 464.45 750.44 595.11 714.39 742.14 907.71 740.21
00002509 00000079 641.98 178.83 527.93 740.81 699.83 466.75 931.78 462.73 750.36 593.62 714.59 739.50 906.65 737.51
00002510 00000080 641.23 178.49 528.89 735.49 699.92 465.34 931.52 461.33 750.94 592.60 715.61 737.60 904.85 735.70
00002511 00000081 644.84 176.26 526.84 735.44 702.26 464.32 932.68 460.97 751.60 591.51 716.80 735.59 904.33 734.49
00002512 00000082 650.56 175.76 524.14 735.01 706.11 463.34 935.49 460.47 754.60 591.39 721.69 734.59 908.68 733.99
00002513 00000083 655.87 175.98 521.42 733.89 710.45 463.14 939.38 460.50 759.30 590.83 725.46 733.46 910.44 733.11
00002514 00000084 659.35 176.38 520.96 734.03 713.61 465.05 941.38 460.24 761.77 588.53 728.52 734.14 912.53 731.94
00002515 00000085 660.80 175.43 520.98 735.49 715.64 465.05 942.43 460.47 763.10 588.02 730.32 733.78 914.04 731.82
00002516 00000086 661.77 175.41 522.11 736.35 716.88 464.76 944.54 461.23 764.59 590.32 732.09 734.64 916.29 733.42
00002517 00000087 656.19 178.29 530.43 728.76 719.74 461.01 955.56 460.91 768.34 592.03 739.18 732.83 923.60 733.29
00002518 00000088 659.44 177.64 530.58 727.55 722.88 460.56 957.98 460.68 771.06 592.30 742.63 732.87 925.87 733.34
00002519 00000089 663.71 181.67 528.22 721.07 726.51 460.08 959.76 460.84 773.28 592.40 746.26 731.23 927.20 732.17
00002520 00000090 666.63 181.41 526.99 719.66 729.42 458.64 960.94 461.25 776.11 592.95 749.74 728.33 930.19 730.70
00002521 00000091 669.96 181.66 525.19 717.38 731.68 457.55 962.28 461.85 777.09 593.49 752.65 726.81 931.77 730.50
00002522 00000092 679.72 182.98 518.19 715.29 735.57 459.07 964.91 457.89 783.36 590.46 750.38 732.14 939.06 734.37
00002523 00000093 682.76 181.78 517.45 717.07 738.39 458.23 967.69 457.82 785.98 589.64 752.75 731.43 940.88 734.29
00002524 00000094 684.37 177.83 518.84 725.42 741.19 457.90 970.34 457.18 787.83 588.53 755.34 731.55 942.94 734.14
00002525 00000095 685.54 179.12 520.27 727.93 744.67 457.03 972.96 456.28 791.50 588.07 759.24 731.28 941.83 734.01
00002526 00000096 685.94 181.32 522.35 726.49 746.47 458.64 973.28 456.34 793.61 587.16 762.53 732.01 939.49 733.64
00002527 00000097 685.39 181.33 524.64 725.03 746.32 462.23 971.72 456.25 795.44 585.50 762.99 731.85 940.65 730.31
00002528 00000098 687.58 178.00 522.27 721.59 747.66 454.45 974.94 452.25 795.35 581.52 763.01 727.12 938.56 728.97
00002529 00000099 684.20 171.54 531.04 725.64 749.19 449.18 983.05 446.44 804.49 582.64 766.51 726.42 941.43 726.15
00002530 00000100 685.11 170.47 527.12 723.84 748.72 443.24 983.18 442.18 804.18 580.65 764.75 722.91 939.50 724.21
00002531 00000101 684.88 171.26 525.61 720.62 746.38 440.08 980.09 438.92 799.45 579.12 762.76 720.13 938.86 721.36
00002532 00000102 683.30 169.63 527.59 723.09 747.16 439.76 979.03 436.83 797.75 574.66 763.88 720.18 937.49 720.01
00002533 00000103 681.56 170.90 528.76 726.91 748.97 439.31 980.19 436.18 798.86 571.38 764.15 720.05 937.55 719.80
00002534 00000104 682.29 167.39 529.99 730.27 751.41 438.71 981.84 434.68 801.64 566.78 766.63 717.81 943.13 716.61
00002535 00000105 684.13 167.56 530.95 731.10 755.05 437.66 986.11 433.59 806.38 563.76 770.60 716.64 946.99 715.35
00002536 00000106 687.62 167.30 529.97 731.80 760.79 437.46 992.64 435.49 815.37 563.74 775.55 714.03 953.02 714.44
00002537 00000107 690.88 169.41 530.40 730.92 765.16 437.13 996.74 436.88 819.07 563.36 779.35 713.94 957.26 715.71
00002538 00000108 693.61 169.64 530.74 730.32 767.23 438.81 997.92 439.09 820.60 564.66 781.58 714.18 959.82 716.20
00002539 00000109 696.03 170.29 529.60 728.69 767.33 445.06 997.71 442.59 820.73 565.27 781.61 716.72 960.63 716.50
00002540 00000110 695.47 171.22 529.25 728.78 765.75 445.71 997.26 444.02 820.24 569.29 779.95 717.98 960.97 718.41
00002541 00000111 697.45 173.48 525.90 723.27 764.53 449.35 995.95 448.59 821.01 576.38 779.48 718.90 962.75 719.97
00002542 00000112 698.19 177.62 525.70 717.03 762.73 454.44 995.09 454.55 819.47 583.64 778.51 720.53 967.63 721.94
00002543 00000113 696.70 180.59 525.80 718.82 759.78 459.15 994.53 459.67 817.62 589.34 776.31 723.69 978.63 724.67
00002544 00000114 695.48 184.41 525.34 737.30 757.63 463.54 992.68 461.41 813.86 591.51 774.40 732.80 987.74 730.83
00002545 00000115 693.89 184.61 527.59 745.81 757.21 464.98 992.57 461.52 814.53 593.92 775.02 737.00 988.43 734.06
00002546 00000116 692.22 191.11 527.26 739.32 758.43 472.99 986.03 466.92 812.12 597.65 774.31 741.27 976.34 737.80
00002547 00000117 688.41 192.50 529.47 730.30 750.19 475.88 981.28 468.79 807.46 604.00 770.42 743.48 964.57 739.45
00002548 00000118 686.63 195.38 527.84 721.63 747.32 476.51 978.05 471.07 804.26 606.41 767.61 743.33 959.65 740.82
00002549 00000119 686.91 194.77 525.63 713.28 744.50 475.22 976.46 471.60 802.80 606.29 764.59 742.26 955.67 741.47
00002550 00000120 686.14 195.32 525.28 709.41 742.00 474.11 975.08 472.65 799.98 607.00 760.77 740.22 953.10 741.33
00002551 00000121 686.02 196.40 524.92 707.83 740.40 474.11 972.67 474.72 795.55 608.57 758.88 738.94 951.31 741.73
00002552 00000122 684.83 198.14 525.21 708.87 739.90 473.71 969.37 476.06 792.16 610.57 758.64 739.71 947.60 743.95
00002553 00000123 684.37 197.07 526.43 713.43 743.36 472.64 972.18 476.84 791.50 613.33 761.53 738.36 947.12 742.72
00002554 00000124 683.99 200.42 521.27 707.16 737.91 472.74 966.42 478.75 786.97 614.19 754.48 739.16 941.77 746.38
00002555 00000125 682.08 200.87 521.76 710.49 737.03 472.19 965.22 479.30 784.60 615.92 751.53 740.28 935.66 748.65
00002556 00000126 681.61 204.00 519.89 709.28 736.64 472.50 964.63 480.66 783.77 618.02 749.06 741.86 930.33 751.28
00002557 00000127 682.03 207.30 517.58 708.71 738.37 473.35 963.83 481.89 782.41 620.14 749.68 744.13 927.48 754.08
00002558 00000128 681.88 207.12 518.80 711.50 738.37 474.72 963.10 481.76 781.30 619.31 749.17 747.63 927.71 756.50
00002559 00000129 682.32 207.88 518.75 709.60 737.52 477.46 962.15 483.04 781.23 621.51 750.82 750.28 930.74 757.69
00002560 00000130 682.22 210.65 520.70 706.02 737.22 476.97 962.23 483.49 780.99 623.10 751.54 750.23 930.64 758.36
00002561 00000131 683.15 210.57 518.59 703.04 736.97 476.01 963.30 483.34 781.95 622.01 750.45 749.22 928.83 758.07
00002562 00000132 684.75 211.53 516.34 697.50 737.07 475.24 963.66 483.57 781.72 622.13 750.25 749.04 927.68 758.71
00002563 00000133 684.95 211.92 515.72 695.07 734.81 474.78 965.17 484.88 783.24 622.91 745.04 747.78 926.60 759.03
00002564 00000134 685.09 211.75 515.41 697.44 735.84 474.04 967.96 484.74 785.33 622.43 744.90 746.37 928.89 758.11
00002565 00000135 685.53 211.57 517.25 704.02 739.40 475.19 973.45 485.81 790.32 624.64 749.38 748.72 936.97 760.07
00002566 00000136 683.50 216.51 529.73 718.10 750.09 490.43 980.00 498.50 801.94 630.35 764.06 755.69 954.37 763.84
00002567 DELETE   693.77 218.16 530.04 731.25 774.25 497.65 1012.90 512.03 840.16 634.84 783.14 754.23 989.39 766.57
00002568 DELETE   706.31 211.56 534.48 745.60 808.22 492.87 1078.52 503.79 916.23 639.31 816.06 759.66 1054.46 768.38
00002569 00000139 720.69 207.30 534.13 747.59 831.87 482.68 1095.38 486.04 946.26 628.19 841.69 755.83 1078.67 758.62
00002570 DELETE   704.06 204.38 535.33 740.45 811.57 470.09 1076.71 487.59 914.57 627.79 815.42 747.48 1043.28 762.40
00002571 00000141 692.92 201.64 534.07 733.73 799.54 460.88 1056.75 477.58 895.82 612.66 801.46 741.45 1010.11 756.63
00002572 00000142 688.34 196.56 531.12 734.50 801.54 460.98 1057.34 473.57 903.38 609.24 808.40 740.69 1011.45 752.30
00002573 00000143 680.01 195.14 532.60 737.22 792.42 465.33 1051.33 469.70 901.46 611.91 810.22 749.33 1012.69 753.94
00002574 DELETE   652.08 199.21 541.69 739.24 753.46 472.11 1014.00 476.62 847.56 614.99 769.86 755.01 974.65 760.86
00002575 DELETE   622.82 216.45 541.48 729.61 710.26 479.03 957.31 486.69 789.00 632.02 726.53 763.05 913.64 771.30
00002576 00000146 612.76 215.47 538.11 725.92 703.83 478.30 954.46 488.32 788.19 629.09 716.79 760.74 907.27 771.18
00002577 00000147 621.86 185.89 533.79 732.49 732.64 464.34 1002.76 472.42 848.27 618.97 756.33 751.08 960.48 758.64
00002578 00000148 635.59 175.32 540.45 738.13 762.18 452.84 1031.88 456.39 889.59 601.79 786.39 742.90 997.88 746.63
00002579 00000149 619.00 168.75 541.98 747.50 750.20 446.23 1021.73 454.07 874.97 593.67 760.59 731.88 987.06 739.05
00002580 00000150 611.19 167.67 541.89 760.09 734.28 447.64 1000.40 460.88 846.21 595.12 741.74 730.76 960.58 742.62
00002581 00000151 605.94 173.54 540.22 760.62 728.30 452.04 994.37 469.07 840.34 607.98 731.87 733.33 956.46 748.32
00002582 00000152 600.82 182.31 543.42 762.10 722.77 461.75 985.45 474.21 838.53 621.57 729.35 743.96 955.17 754.64
00002583 00000153 587.38 184.63 547.54 768.87 704.08 468.90 971.25 474.69 818.02 627.65 715.11 752.28 946.95 757.43
00002584 00000154 567.33 192.36 553.80 770.30 678.90 480.85 952.56 484.78 793.40 636.77 690.95 759.56 933.53 762.98
00002585 00000155 553.11 203.85 562.56 763.74 670.94 485.08 941.23 497.30 777.23 653.54 683.87 760.61 916.38 769.84
00002586 00000156 542.80 211.29 559.24 761.81 662.95 494.87 933.33 505.46 773.85 667.64 673.67 766.45 915.25 774.20
00002587 00000157 542.08 216.17 557.21 762.05 656.46 502.26 926.60 506.01 775.55 673.40 669.02 769.09 925.15 771.81
00002588 00000158 529.19 214.38 557.02 763.28 649.68 496.74 922.67 500.17 769.45 667.56 661.03 763.92 920.29 764.77
00002589 00000159 522.47 204.44 561.02 771.90 635.24 491.24 914.44 493.19 756.19 658.27 645.71 754.02 915.14 753.74
00002590 00000160 519.00 198.00 558.76 767.43 629.15 485.14 908.66 486.94 748.03 646.75 636.78 744.97 912.16 744.28
00002591 00000161 518.92 193.89 557.38 761.93 627.78 479.82 906.84 481.29 746.71 640.80 635.53 738.18 911.56 737.23
00002592 00000162 519.10 193.16 556.23 758.43 627.91 475.78 904.97 476.28 746.30 637.06 633.97 731.43 911.34 729.54
00002593 00000163 518.48 188.18 552.89 755.51 624.93 471.46 899.96 471.83 742.29 631.29 631.21 727.74 902.96 726.03
00002594 00000164 510.58 186.93 561.26 744.90 621.76 467.95 897.57 471.14 740.36 629.18 638.86 727.52 895.13 727.84
00002595 00000165 511.66 184.97 556.35 733.22 618.09 468.39 893.51 470.72 735.84 630.05 640.46 733.33 882.34 733.35
00002596 00000166 513.28 183.17 553.48 736.03 614.41 468.51 887.12 472.29 725.65 631.01 639.28 739.56 867.35 741.87
00002597 00000167 510.47 182.35 558.17 758.07 612.45 467.69 879.89 476.40 715.11 632.03 634.91 748.23 851.29 755.88
00002598 00000168 521.66 193.19 556.13 761.87 623.26 475.98 884.15 479.12 716.72 627.28 642.44 764.40 842.76 768.83
00002599 DELETE   534.41 198.53 556.48 768.64 649.62 473.20 913.59 487.17 746.59 635.48 659.27 765.64 862.92 778.89
00002600 DELETE   558.82 194.33 556.65 761.88 681.54 471.45 945.04 488.45 780.92 633.04 687.91 754.58 896.17 769.34
