Video ID: 	SmcrU9yO-YU
H: 	1080
W: 	1920
FPS: 	23.976023976023978

FRAME INDEX X0 Y0 W H [Landmarks (5 Points)]

00026691 00000000 522.33 151.19 395.07 578.75 705.25 406.72 860.76 388.65 843.08 499.65 721.16 580.98 865.26 567.79
00026692 00000001 514.53 159.95 390.43 575.13 699.95 415.54 858.12 399.17 837.00 504.63 702.25 590.72 851.34 579.80
00026693 DELETE   495.45 166.62 397.03 573.18 662.40 411.86 833.12 405.60 788.74 509.47 672.87 588.14 830.61 583.67
00026694 DELETE   469.21 165.39 407.79 570.40 624.30 407.31 798.23 397.13 746.75 505.90 646.50 585.56 802.00 577.80
00026695 00000004 459.87 162.12 401.35 570.82 605.54 408.20 779.67 400.51 724.22 512.34 624.15 584.55 784.43 579.20
00026696 00000005 456.08 166.81 398.15 562.59 592.16 405.48 765.53 400.56 701.83 511.09 610.87 583.55 770.37 579.91
00026697 00000006 450.25 165.79 397.92 562.63 583.12 403.43 758.50 399.71 695.51 511.14 597.78 581.80 759.89 579.62
00026698 00000007 444.98 161.62 400.44 563.47 575.85 400.01 753.90 395.48 690.33 505.86 591.35 578.31 755.80 575.20
00026699 00000008 442.10 155.49 401.52 567.56 570.61 396.73 748.85 392.76 684.14 500.67 586.41 574.72 753.28 571.61
00026700 00000009 440.26 152.38 402.45 567.84 567.46 392.76 744.81 387.38 680.50 497.47 584.28 571.42 750.16 566.91
00026701 00000010 438.21 148.32 404.34 569.17 563.87 389.12 740.84 382.05 675.91 493.21 582.06 567.69 748.71 561.41
00026702 00000011 436.79 141.84 405.24 570.53 562.36 385.84 739.46 379.03 674.25 488.36 581.28 564.27 747.07 557.92
00026703 00000012 437.37 140.12 404.89 569.67 561.86 381.37 739.95 374.10 674.65 485.34 580.78 559.87 748.67 553.08
00026704 00000013 438.47 136.72 404.46 571.93 561.33 378.44 739.99 371.87 673.04 481.85 581.09 559.21 747.69 552.79
00026705 00000014 440.24 135.40 402.70 572.37 561.31 378.80 739.67 370.86 673.03 480.53 582.32 559.68 748.00 552.15
00026706 00000015 442.68 135.07 402.02 574.88 562.89 377.90 739.64 367.11 675.45 479.72 587.56 561.98 750.05 551.90
00026707 00000016 447.83 137.89 401.67 571.73 567.88 378.07 744.17 366.80 681.07 480.72 593.43 562.42 755.13 552.07
00026708 00000017 454.77 137.31 401.32 572.51 578.33 379.61 758.39 367.04 688.88 480.13 603.95 560.12 769.62 550.17
00026709 00000018 459.85 137.15 403.48 572.30 583.77 378.55 767.90 366.73 694.23 480.26 608.79 561.81 775.96 552.51
00026710 00000019 469.12 147.15 405.81 574.30 594.52 378.20 771.60 372.74 705.09 482.15 617.01 567.59 776.83 562.46
00026711 00000020 478.28 145.88 406.46 578.28 605.87 382.21 782.80 376.21 716.71 486.12 627.87 569.75 788.86 564.26
00026712 00000021 488.98 144.19 405.77 582.98 614.18 385.16 792.27 378.52 724.83 490.17 637.87 573.32 799.26 566.97
00026713 00000022 501.50 150.40 400.71 578.60 625.40 388.35 801.74 384.12 733.89 494.45 644.73 574.53 807.69 570.57
00026714 00000023 510.03 149.06 403.05 580.16 635.07 390.07 812.84 388.47 744.88 496.03 651.92 576.26 816.17 574.63
00026715 00000024 519.95 158.36 400.67 571.87 647.71 394.96 826.59 396.47 757.07 503.86 660.39 578.95 826.07 580.86
00026716 00000025 535.60 162.62 399.88 571.52 660.51 399.59 835.81 400.47 764.79 504.82 677.27 583.27 840.14 583.45
00026717 00000026 542.09 163.82 407.36 573.84 669.54 401.94 846.83 401.27 774.54 508.45 688.93 584.58 851.63 583.54
00026718 00000027 548.25 163.81 410.43 577.63 676.96 402.37 857.32 402.31 783.71 510.78 692.87 584.13 861.19 583.61
00026719 00000028 555.13 165.40 411.54 578.81 681.93 403.43 863.87 402.66 787.06 514.85 694.11 586.21 865.21 585.65
00026720 00000029 571.94 164.42 404.81 579.89 696.05 407.84 877.56 407.00 798.82 517.22 706.84 590.29 877.15 590.16
00026721 00000030 580.94 169.72 405.77 578.02 711.21 411.62 889.87 410.72 816.53 523.92 719.46 593.15 889.62 593.88
00026722 00000031 583.87 171.76 407.80 575.32 715.15 413.74 893.96 414.65 820.22 527.71 721.20 594.32 890.88 596.79
00026723 00000032 591.70 177.78 408.61 570.51 719.81 412.41 903.25 415.14 820.42 528.77 724.89 598.48 896.80 601.02
00026724 00000033 595.33 180.56 413.06 570.35 723.61 415.73 907.77 417.00 825.43 532.02 731.08 600.15 902.59 601.61
00026725 00000034 603.53 178.55 408.50 571.91 728.72 417.98 910.83 418.27 830.00 532.73 740.31 602.18 907.50 602.47
00026726 00000035 607.53 180.28 407.72 570.09 733.45 417.84 916.19 420.37 835.51 532.78 745.21 602.07 912.46 604.32
00026727 00000036 610.64 181.22 410.84 570.87 739.98 418.83 925.69 420.24 845.89 535.84 750.44 601.91 922.71 603.37
00026728 00000037 615.94 180.62 413.07 571.49 748.91 418.64 934.31 419.41 857.31 533.52 759.87 602.00 929.97 602.86
00026729 00000038 619.71 179.94 415.19 575.82 754.50 418.13 941.82 417.96 864.85 534.20 765.24 604.09 936.30 604.35
00026730 00000039 624.32 178.12 413.79 577.99 758.74 418.55 945.75 418.27 869.05 533.16 768.61 603.82 940.55 604.05
00026731 00000040 626.52 179.21 412.60 578.36 760.95 419.38 947.09 419.15 871.44 534.67 769.29 604.73 941.73 605.18
00026732 00000041 625.52 181.26 413.02 576.42 759.58 419.86 947.37 419.27 870.52 535.83 768.22 605.43 942.47 605.62
00026733 00000042 622.04 183.05 414.47 574.30 757.40 419.94 945.17 419.21 868.48 536.68 765.64 604.78 939.48 604.81
00026734 00000043 619.57 181.62 414.52 573.61 754.08 418.78 942.62 417.86 866.10 534.41 765.23 604.80 938.07 604.46
00026735 00000044 619.10 180.85 413.20 572.76 752.25 418.24 940.36 418.02 863.56 533.19 765.35 604.65 935.64 604.69
00026736 00000045 618.34 178.03 414.63 577.27 752.85 416.88 941.36 417.11 864.50 531.60 766.61 605.74 935.07 606.17
00026737 00000046 618.35 174.42 416.16 584.95 754.62 416.40 941.01 416.59 866.28 530.19 774.20 612.64 931.95 612.58
00026738 00000047 626.55 174.19 410.37 585.63 763.03 430.24 950.40 432.15 874.65 530.55 785.72 622.80 938.49 623.88
00026739 00000048 638.83 174.47 401.61 588.26 792.29 437.25 967.05 433.89 908.29 533.15 816.98 631.92 955.85 628.42
00026740 DELETE   654.64 178.69 388.22 579.14 827.95 433.01 995.74 427.64 955.10 522.39 853.31 631.90 982.20 627.18
00026741 DELETE   667.13 169.37 386.51 596.87 854.83 430.77 1011.09 421.05 988.51 525.45 889.86 632.84 1007.12 624.96
00026742 DELETE   686.21 174.08 372.84 586.02 877.85 439.96 1026.36 423.41 1016.46 524.35 916.30 635.78 1029.74 621.50
00026743 00000052 698.11 174.10 366.91 588.23 895.58 440.73 1039.11 412.45 1051.13 526.51 936.17 639.38 1048.21 617.39
00026744 00000053 699.51 181.52 363.30 575.60 903.19 447.94 1036.39 416.43 1055.15 529.06 945.39 642.11 1045.19 617.96
00026745 DELETE   703.36 190.04 358.74 579.51 903.16 463.94 1034.22 427.76 1055.94 545.65 947.68 659.66 1040.25 632.99
00026746 DELETE   696.72 204.27 357.95 581.10 901.05 484.46 1027.64 446.18 1053.87 564.93 945.09 675.36 1033.84 649.07
00026747 00000056 690.35 233.44 368.62 578.76 901.10 507.07 1013.89 461.78 1052.46 583.90 924.20 689.97 1012.14 656.18
00026748 00000057 689.28 230.28 371.25 591.32 899.88 510.43 1013.82 463.89 1052.41 585.81 921.98 695.78 1011.24 661.42
00026749 00000058 687.69 236.05 368.77 585.97 894.63 513.88 1010.34 467.45 1048.39 587.82 914.88 694.67 1008.04 660.59
00026750 00000059 683.78 235.97 369.53 580.22 892.52 516.29 1012.51 469.89 1045.82 592.15 914.33 695.38 1006.65 661.36
00026751 00000060 682.82 243.16 367.41 567.78 888.92 515.94 1012.71 470.93 1041.28 590.88 918.00 695.74 1009.26 662.84
00026752 00000061 681.14 241.31 366.35 568.08 885.37 514.28 1011.89 474.08 1036.99 591.94 919.04 696.96 1009.80 667.39
00026753 00000062 676.62 239.83 368.56 568.33 882.21 509.72 1011.42 473.89 1034.61 590.55 918.75 697.17 1010.69 670.91
00026754 00000063 677.56 235.69 366.95 576.08 880.83 510.47 1007.86 474.39 1032.65 589.38 916.66 697.05 1009.40 670.58
00026755 00000064 678.51 234.96 364.56 575.69 879.12 510.28 1007.32 474.35 1031.04 588.66 909.06 694.54 1005.88 668.65
00026756 00000065 675.30 230.11 368.43 579.99 889.80 496.90 1022.01 471.11 1039.88 586.39 907.75 691.17 1014.22 671.68
00026757 00000066 677.68 222.36 364.49 582.50 889.65 492.15 1018.72 465.83 1036.76 579.67 909.22 684.23 1016.14 664.24
00026758 00000067 675.78 216.34 364.23 582.26 887.57 485.51 1014.39 458.39 1034.45 572.48 907.84 678.64 1013.26 658.34
00026759 00000068 676.39 210.68 364.69 580.55 887.17 478.67 1013.84 449.37 1034.83 563.81 908.53 671.77 1014.12 650.30
00026760 00000069 676.52 201.75 367.13 581.55 888.73 471.98 1016.02 445.60 1035.75 559.82 908.14 665.93 1012.68 647.08
00026761 00000070 676.55 202.35 364.56 580.37 886.38 469.52 1012.75 443.08 1031.62 558.17 900.70 661.48 1007.69 643.23
00026762 00000071 669.91 208.90 363.80 576.89 880.88 471.30 1002.72 448.22 1022.94 556.82 894.23 659.51 1000.14 643.68
00026763 00000072 655.66 217.34 371.28 572.74 863.67 479.80 993.63 452.21 1012.07 561.61 873.85 659.15 992.22 640.06
00026764 00000073 635.76 217.17 385.76 579.31 840.66 484.17 985.84 450.48 991.70 562.53 855.24 666.69 982.27 641.78
00026765 DELETE   619.06 216.38 390.60 584.69 806.33 482.74 958.78 456.16 942.64 574.90 824.99 664.64 958.44 644.61
00026766 00000075 605.28 229.55 395.76 571.92 781.30 480.81 943.52 464.21 912.49 583.23 800.18 663.34 940.55 651.49
00026767 00000076 597.64 228.28 395.68 569.78 764.70 474.00 932.01 463.17 890.78 580.41 785.75 662.12 928.09 654.88
00026768 00000077 595.77 223.46 393.76 573.77 756.05 474.63 927.99 464.03 885.24 586.68 769.54 664.48 919.28 657.00
00026769 00000078 589.31 220.54 395.83 573.61 746.39 474.23 923.15 464.17 877.85 584.87 758.33 660.31 915.41 653.08
00026770 00000079 585.49 223.61 394.61 564.09 736.32 474.13 915.19 467.30 862.83 580.81 750.41 657.53 905.41 652.55
00026771 00000080 581.97 223.60 395.60 561.38 725.12 472.91 910.31 470.00 848.60 583.75 740.70 658.09 899.79 655.78
00026772 00000081 575.21 222.25 397.29 569.84 718.78 471.43 900.18 469.95 838.19 582.50 735.28 659.98 889.05 658.77
00026773 00000082 568.92 218.60 398.35 577.78 713.66 468.56 890.07 469.48 830.71 575.72 729.60 658.58 877.96 659.44
00026774 00000083 564.23 221.83 400.72 575.07 710.09 467.31 884.77 467.21 826.12 574.37 728.15 659.15 871.49 658.88
00026775 00000084 561.25 222.95 402.00 575.02 707.32 468.26 886.46 468.90 826.29 575.81 726.20 660.91 873.41 661.24
00026776 00000085 561.54 220.79 399.41 575.51 708.45 467.89 886.85 468.36 827.99 576.03 729.60 663.64 872.32 663.67
00026777 00000086 559.89 215.81 396.99 582.08 714.88 471.81 890.16 467.04 832.60 579.26 730.11 663.83 873.47 660.25
00026778 00000087 566.38 214.81 395.64 582.17 716.69 467.11 889.89 467.61 835.26 573.61 736.54 663.75 874.93 663.77
00026779 00000088 568.02 217.71 394.59 575.16 717.29 467.84 891.93 467.15 837.44 573.78 737.85 662.50 878.74 661.72
00026780 00000089 571.20 217.22 392.66 576.00 719.85 467.49 894.85 466.43 839.97 575.06 738.59 661.54 882.64 660.65
00026781 00000090 571.50 218.58 391.70 573.50 721.39 467.91 895.84 466.07 842.14 573.81 740.62 661.03 883.75 659.55
00026782 00000091 570.82 219.99 393.30 574.31 721.57 469.83 896.70 467.27 842.22 576.59 740.60 662.11 885.12 659.86
00026783 00000092 568.88 224.81 394.01 573.90 721.11 472.11 896.36 469.87 841.83 577.53 738.49 662.07 885.08 660.22
00026784 00000093 570.02 222.78 394.08 576.99 720.78 473.64 896.45 470.66 841.32 580.52 736.62 663.71 884.91 661.52
00026785 00000094 569.53 228.84 395.07 572.93 720.75 477.40 897.62 475.07 840.90 585.48 733.65 665.54 884.41 664.35
00026786 00000095 570.56 227.64 395.78 575.47 721.37 479.85 898.15 477.59 840.39 589.07 733.23 667.24 884.64 666.17
00026787 00000096 568.46 229.49 396.34 575.82 718.64 481.18 893.31 478.24 836.06 589.99 729.29 666.49 880.25 665.08
00026788 00000097 564.82 225.13 397.52 583.66 715.65 479.52 886.64 478.34 829.68 590.51 726.53 666.11 874.33 665.84
00026789 00000098 564.24 226.45 398.29 581.67 712.39 480.02 884.81 480.10 825.53 588.84 724.09 666.48 872.19 667.20
00026790 00000099 563.95 227.94 400.02 580.42 709.14 480.45 880.89 480.76 819.76 589.79 722.11 666.85 869.38 667.63
00026791 00000100 563.32 230.31 402.38 577.99 702.83 482.43 877.44 482.21 811.32 589.06 718.64 668.46 867.81 668.80
00026792 00000101 556.19 234.72 410.67 571.79 689.58 488.48 870.04 487.12 794.15 592.89 704.96 668.32 859.45 667.87
00026793 DELETE   550.86 237.85 407.57 567.77 668.89 484.58 848.25 490.94 760.50 595.94 681.93 666.73 835.07 671.48
00026794 DELETE   540.77 243.81 409.91 562.61 644.69 481.87 825.12 493.63 722.30 599.71 650.99 658.64 806.82 669.70
00026795 DELETE   535.87 246.75 406.76 556.19 620.16 472.94 798.38 492.50 679.77 599.01 627.49 659.60 774.91 676.71
00026796 00000105 532.48 234.79 400.79 571.96 597.01 466.52 767.24 490.87 643.06 595.80 602.92 661.55 744.25 680.58
00026797 00000106 532.79 247.63 393.66 553.27 591.06 461.58 761.82 492.20 635.10 599.10 597.32 660.08 738.19 684.63
00026798 00000107 532.82 246.22 389.95 556.47 586.46 461.18 755.08 490.79 628.38 599.84 595.26 663.25 734.05 687.05
00026799 00000108 529.61 245.31 391.57 560.58 582.72 461.26 750.39 489.94 623.35 600.30 592.06 665.48 730.08 688.56
00026800 00000109 529.36 246.05 392.55 563.08 582.08 461.40 748.14 491.40 620.84 600.91 590.19 666.04 726.83 690.18
00026801 00000110 528.05 244.16 392.54 567.50 581.49 463.27 745.12 493.27 618.87 601.97 589.10 667.42 724.99 691.47
00026802 00000111 521.68 241.55 403.25 578.93 582.37 470.47 742.66 498.24 609.68 601.69 584.31 673.07 717.00 694.52
00026803 00000112 520.58 244.27 401.34 579.29 580.39 474.32 738.49 499.11 608.58 602.18 584.25 679.80 711.13 698.90
00026804 00000113 516.99 260.95 405.66 570.65 577.59 480.80 734.90 505.31 604.02 607.16 583.13 688.61 705.19 707.55
00026805 00000114 518.16 267.38 402.90 578.05 575.17 495.22 732.23 518.67 599.13 619.03 584.97 705.73 702.25 723.18
00026806 00000115 523.45 289.65 396.56 570.67 569.53 517.01 728.32 539.97 593.81 642.28 584.12 729.26 698.60 745.70
00026807 00000116 521.06 297.74 396.89 576.38 569.50 525.78 724.00 552.47 583.90 660.24 577.18 739.32 696.73 760.14
00026808 00000117 520.05 308.80 396.89 566.35 567.89 529.74 722.22 558.72 584.19 666.58 578.44 740.56 699.79 762.68
00026809 00000118 521.15 316.56 399.19 559.87 568.78 529.90 723.15 562.13 584.09 669.45 578.88 738.10 701.66 762.50
00026810 00000119 524.44 317.96 400.54 558.62 572.75 528.22 727.71 563.92 586.55 670.26 579.75 734.67 704.63 762.13
00026811 00000120 525.29 319.10 400.77 557.41 574.15 529.05 728.20 565.25 587.90 670.32 580.24 733.38 705.32 761.21
00026812 00000121 528.22 321.36 402.33 554.44 578.26 530.81 733.04 565.65 594.75 670.84 584.04 733.72 709.16 760.80
00026813 00000122 533.56 320.59 401.59 555.07 584.83 531.70 739.61 567.74 601.57 672.48 588.16 730.56 717.63 758.78
00026814 00000123 539.07 327.67 397.49 541.19 589.21 525.12 752.51 571.21 612.97 677.04 601.31 732.90 726.47 769.71
00026815 00000124 545.38 324.08 397.49 545.52 598.26 526.41 758.24 571.32 617.57 674.01 605.19 732.91 730.81 768.37
00026816 00000125 554.20 323.08 396.95 546.82 609.40 526.06 765.61 568.30 624.25 670.88 615.21 731.72 739.87 764.71
00026817 00000126 563.92 318.72 399.51 549.38 617.49 525.90 771.15 562.89 631.63 666.62 622.95 730.36 747.63 758.99
00026818 00000127 571.04 316.63 400.27 547.75 624.32 523.00 779.20 558.31 641.28 664.84 629.72 726.35 759.56 753.90
00026819 00000128 583.46 314.46 395.54 551.43 633.02 518.36 798.49 558.38 662.95 669.99 641.76 724.51 779.88 756.81
00026820 00000129 599.83 317.65 397.09 545.58 651.40 523.25 815.55 554.72 686.61 666.02 662.06 725.62 797.60 750.76
00026821 00000130 611.45 315.46 397.21 546.05 667.60 517.48 833.43 551.71 698.94 656.83 678.74 724.26 814.68 751.43
00026822 00000131 620.11 303.87 399.35 554.86 678.84 518.01 840.91 545.36 711.66 651.07 682.87 716.43 818.90 738.38
00026823 00000132 628.59 297.81 394.03 561.88 684.46 512.23 843.11 543.85 713.21 646.04 684.34 713.05 815.41 738.93
00026824 00000133 633.63 298.93 393.10 561.55 688.94 513.60 848.29 546.59 719.53 651.53 687.75 714.31 820.87 741.53
00026825 00000134 641.70 306.37 394.62 547.48 696.49 518.16 857.33 552.66 733.07 657.90 697.11 712.78 835.21 741.09
00026826 00000135 645.05 304.77 393.74 548.03 699.97 516.31 860.81 551.24 735.50 655.63 699.43 711.62 838.54 740.35
00026827 00000136 650.74 310.51 391.72 544.03 705.93 513.94 868.71 551.37 732.20 650.40 702.08 711.81 839.87 739.73
00026828 00000137 657.49 310.23 391.64 542.71 712.13 513.91 874.73 550.69 737.23 646.70 709.15 711.00 844.85 738.33
00026829 00000138 665.90 305.46 394.32 552.72 720.90 515.46 882.47 550.41 745.27 643.88 718.25 710.80 852.66 736.64
00026830 00000139 671.61 309.98 397.99 548.94 727.74 514.25 889.76 551.53 751.20 645.39 724.76 710.86 857.25 739.38
00026831 00000140 677.91 309.19 398.24 550.09 736.54 510.44 897.29 552.86 755.42 645.90 726.01 707.69 861.00 740.63
00026832 00000141 684.29 305.66 395.25 543.52 739.95 502.09 901.32 547.36 757.80 642.25 739.58 705.74 872.06 742.66
CROP_BBOX: 244 0 1282 1024
