Video ID: 	qsWFDFkpAnw
H: 	2160
W: 	3840
FPS: 	23.976023976023978

FRAME INDEX X0 Y0 W H [Landmarks (5 Points)]

00000087 00000000 1659.20 365.55 552.25 745.16 1768.32 684.04 2033.12 650.05 1903.37 799.30 1797.92 921.80 2067.13 896.46
00000088 00000001 1667.68 368.82 550.74 766.58 1780.93 687.25 2046.44 657.59 1914.62 805.34 1810.13 934.92 2075.89 913.01
00000089 00000002 1685.96 378.80 545.39 761.30 1801.67 688.05 2066.72 661.11 1924.94 808.22 1828.22 942.55 2075.31 922.88
00000090 00000003 1707.78 386.37 541.93 759.05 1818.29 692.98 2081.79 662.18 1941.90 808.53 1848.75 947.47 2097.85 925.32
00000091 00000004 1711.08 401.42 560.78 754.22 1829.70 693.81 2095.56 663.07 1959.83 813.13 1869.70 955.64 2109.95 929.47
00000092 00000005 1743.58 397.00 543.81 748.62 1848.48 699.44 2109.08 672.64 1969.34 816.57 1886.86 954.19 2118.37 935.30
00000093 00000006 1763.04 397.20 538.42 739.55 1867.39 702.01 2127.61 672.26 1986.41 821.86 1905.81 952.36 2137.09 929.84
00000094 00000007 1782.80 397.07 533.53 732.12 1884.07 704.42 2147.16 675.32 2006.47 825.44 1920.28 953.35 2155.56 932.22
00000095 00000008 1788.13 406.37 549.54 739.01 1899.56 706.68 2160.06 677.85 2029.37 831.19 1942.53 959.92 2168.42 937.09
00000096 00000009 1812.98 406.46 545.14 750.04 1913.61 715.85 2177.64 683.66 2039.53 834.53 1963.93 973.69 2183.25 949.53
00000097 00000010 1837.07 413.99 541.58 755.14 1936.53 717.45 2205.81 687.25 2059.91 836.57 1987.16 990.85 2197.75 968.48
00000098 00000011 1850.04 431.84 546.37 757.04 1959.86 731.21 2221.30 701.85 2078.79 847.72 2001.74 1000.99 2222.68 978.92
00000099 00000012 1863.42 441.02 553.42 756.43 1975.13 745.41 2233.65 711.42 2090.63 856.32 2013.93 1003.44 2252.98 976.66
00000100 00000013 1865.43 445.42 564.71 757.13 1978.63 752.76 2236.96 713.55 2097.64 866.07 2022.33 1007.62 2266.63 975.17
00000101 00000014 1868.71 457.81 567.05 746.89 1978.56 759.65 2237.08 716.27 2095.14 871.26 2024.77 1010.54 2271.81 975.53
00000102 00000015 1870.91 459.04 563.49 748.32 1972.68 760.35 2226.39 715.32 2077.98 872.88 2021.62 1012.94 2262.44 976.74
00000103 00000016 1865.88 459.42 558.03 758.71 1956.08 753.27 2200.10 708.07 2044.30 866.67 2007.12 1013.50 2242.44 977.02
00000104 00000017 1855.93 475.56 551.08 745.93 1931.21 757.21 2163.99 707.66 2014.52 857.52 1983.25 1016.96 2208.82 971.72
00000105 00000018 1836.57 467.49 530.58 727.29 1896.52 766.34 2107.22 706.80 1945.61 865.81 1948.27 1022.59 2154.29 975.10
00000106 DELETE   1813.41 472.72 508.74 716.61 1862.15 767.45 2056.79 711.40 1888.13 871.72 1908.33 1016.28 2108.37 970.54
00000107 DELETE   1790.21 466.47 497.84 715.85 1829.74 770.63 2003.32 705.55 1825.13 861.64 1875.81 1015.07 2050.82 960.88
00000108 DELETE   1772.96 468.45 488.48 712.35 1817.60 755.58 1982.63 703.87 1799.38 859.15 1855.10 1008.27 2020.92 964.12
00000109 00000022 1744.37 466.72 480.24 720.94 1792.32 753.16 1949.33 704.91 1776.48 864.76 1833.32 1008.34 1994.98 967.85
00000110 00000023 1723.38 468.94 481.88 726.81 1768.75 751.05 1920.11 704.60 1747.82 864.31 1810.29 1007.37 1966.80 967.65
00000111 00000024 1699.14 468.00 485.23 731.73 1744.63 746.97 1886.72 701.91 1709.70 864.38 1786.78 1006.13 1934.29 966.52
00000112 00000025 1677.39 455.18 466.35 742.76 1723.78 739.30 1852.04 697.46 1674.67 864.86 1768.07 998.54 1899.54 961.24
00000113 00000026 1649.84 455.56 460.62 738.68 1706.97 730.13 1822.15 697.83 1643.14 867.31 1754.96 993.20 1869.07 963.46
00000114 DELETE   1626.32 467.74 460.83 716.65 1682.45 741.43 1801.99 709.89 1626.16 862.54 1732.44 990.76 1849.67 960.79
00000115 00000028 1614.73 456.75 466.34 723.23 1666.16 745.48 1806.84 710.64 1625.85 849.53 1703.86 985.32 1844.46 952.62
00000116 00000029 1618.06 441.14 471.42 737.82 1666.01 745.87 1826.49 691.45 1636.50 832.20 1700.87 991.95 1859.03 943.93
00000117 00000030 1602.08 424.46 511.64 751.94 1660.98 727.44 1856.15 680.98 1663.42 818.40 1695.83 980.27 1884.73 939.94
00000118 00000031 1595.41 411.17 533.43 764.56 1667.36 711.78 1894.21 676.86 1716.49 804.56 1695.20 967.00 1920.97 939.55
00000119 00000032 1584.38 397.18 564.11 772.87 1671.49 705.06 1918.95 668.34 1740.08 795.74 1706.53 956.90 1940.98 929.05
00000120 00000033 1579.48 390.22 570.64 769.82 1678.99 697.67 1938.85 664.05 1767.84 793.04 1714.37 947.05 1958.19 922.50
00000121 00000034 1573.48 386.12 573.05 762.07 1677.49 695.06 1943.44 661.82 1778.54 795.72 1713.40 942.51 1963.99 918.44
00000122 00000035 1565.74 374.86 563.71 773.23 1669.97 692.08 1935.74 655.18 1783.66 794.87 1701.28 944.40 1964.10 918.05
00000123 00000036 1551.31 372.78 568.71 771.41 1659.54 693.63 1927.85 654.32 1779.18 795.61 1690.06 942.63 1956.78 914.07
00000124 00000037 1540.61 368.59 569.47 775.00 1649.55 695.53 1917.91 654.22 1772.65 798.30 1681.35 944.45 1950.63 913.59
00000125 00000038 1528.03 367.22 574.15 772.98 1641.65 695.30 1909.73 654.57 1768.20 800.01 1675.82 943.40 1942.37 912.48
00000126 00000039 1524.37 363.91 576.48 773.35 1639.12 695.82 1906.21 652.51 1767.97 800.64 1676.32 943.33 1941.09 910.40
00000127 00000040 1525.09 361.87 577.63 769.23 1641.70 694.16 1908.75 649.83 1772.45 800.47 1681.07 939.62 1942.56 905.91
00000128 00000041 1535.87 361.69 571.05 765.51 1649.13 694.66 1915.70 648.28 1780.50 801.65 1690.37 939.95 1949.03 904.72
00000129 00000042 1548.31 364.44 564.38 760.46 1658.18 695.23 1923.83 645.84 1789.58 799.78 1705.86 945.32 1951.67 908.73
00000130 00000043 1558.27 364.20 565.99 758.26 1667.95 698.91 1933.41 647.04 1800.51 801.83 1720.90 947.27 1959.66 909.62
00000131 00000044 1573.57 369.75 560.74 768.74 1680.81 698.67 1947.41 646.36 1815.15 807.73 1738.25 957.70 1974.95 919.65
00000132 00000045 1588.04 383.55 569.45 787.36 1693.73 698.68 1962.70 650.36 1825.35 809.73 1771.07 971.97 1981.16 933.69
00000133 00000046 1610.25 378.62 570.68 791.43 1716.24 699.91 1981.45 653.30 1850.40 817.50 1787.32 969.52 2000.97 932.86
00000134 00000047 1621.45 370.10 561.78 778.46 1729.29 704.86 1992.00 658.73 1857.04 826.43 1782.54 961.22 2018.84 925.92
00000135 00000048 1619.33 371.43 571.13 771.95 1736.83 702.92 2001.31 660.04 1867.01 830.14 1789.18 956.74 2023.58 924.04
00000136 00000049 1628.11 372.58 569.29 771.25 1743.80 702.33 2011.35 663.06 1874.84 831.58 1794.58 956.27 2027.98 926.82
00000137 00000050 1637.43 367.38 568.41 777.62 1749.65 703.83 2019.77 663.89 1882.08 829.71 1800.36 957.74 2035.60 928.50
00000138 00000051 1640.22 364.17 575.17 780.75 1759.59 703.28 2023.40 666.93 1891.96 832.65 1811.11 958.91 2035.96 929.92
00000139 00000052 1651.15 361.61 570.21 800.02 1770.40 705.15 2031.07 669.37 1897.54 832.34 1822.86 969.41 2037.02 942.13
00000140 00000053 1658.80 373.29 572.56 795.56 1770.26 703.10 2039.64 670.86 1901.31 833.42 1829.85 973.10 2041.37 947.84
00000141 00000054 1660.01 367.65 566.37 789.57 1780.05 701.08 2043.81 669.99 1904.47 830.55 1827.11 968.71 2045.70 945.76
00000142 00000055 1663.82 367.13 562.65 781.75 1781.03 699.02 2046.45 670.67 1907.33 832.42 1824.14 962.90 2048.18 941.80
00000143 00000056 1665.59 366.81 560.86 780.38 1782.65 697.17 2048.14 670.37 1908.82 831.71 1824.44 961.66 2047.62 941.73
00000144 00000057 1664.40 367.83 562.11 782.22 1782.39 697.84 2048.55 671.16 1908.76 830.86 1825.36 964.70 2046.35 945.02
00000145 00000058 1662.55 368.96 562.76 779.18 1782.25 697.43 2048.36 671.21 1909.29 830.26 1821.53 959.06 2049.89 939.51
00000146 00000059 1659.03 368.87 568.16 775.37 1781.22 696.87 2049.09 671.31 1910.69 830.97 1817.69 952.83 2056.30 933.24
00000147 00000060 1668.05 376.26 568.98 789.07 1777.36 695.21 2048.97 668.44 1908.51 832.02 1820.36 960.25 2058.74 937.96
00000148 00000061 1670.40 383.94 572.66 808.86 1779.87 695.20 2053.35 664.99 1911.09 830.41 1825.67 969.34 2064.75 944.34
00000149 00000062 1673.83 384.87 570.48 816.97 1782.19 696.64 2056.69 665.28 1916.42 828.14 1829.34 974.43 2067.09 949.23
00000150 00000063 1678.01 387.91 564.46 814.88 1782.53 706.86 2056.60 673.90 1915.66 828.55 1826.69 974.74 2068.13 948.00
00000151 00000064 1675.38 386.12 565.89 814.99 1779.25 707.38 2053.82 675.69 1910.34 828.86 1824.04 976.29 2063.63 950.66
00000152 00000065 1675.83 387.03 567.04 811.45 1779.22 701.55 2053.24 671.84 1908.39 817.42 1825.79 977.72 2057.49 954.97
00000153 00000066 1672.86 369.26 560.59 786.84 1788.18 701.77 2055.01 672.59 1909.47 806.01 1828.28 958.98 2057.53 938.28
00000154 00000067 1682.14 362.69 558.75 777.81 1796.85 692.41 2066.28 666.04 1917.22 796.57 1834.58 948.20 2061.77 930.20
00000155 00000068 1693.41 363.72 556.42 782.81 1807.17 688.81 2073.74 661.42 1928.12 791.48 1852.16 954.80 2064.42 936.34
00000156 00000069 1702.16 367.86 555.54 788.04 1814.65 695.06 2083.77 664.84 1936.07 795.59 1856.50 962.37 2080.56 942.81
00000157 00000070 1710.38 389.42 561.51 766.46 1819.41 701.96 2093.45 673.17 1947.00 811.73 1877.88 974.50 2083.82 953.71
00000158 00000071 1720.37 405.75 563.82 756.42 1832.70 706.53 2103.86 679.29 1961.19 823.46 1882.01 975.26 2103.61 954.80
00000159 00000072 1750.10 404.73 550.30 760.54 1854.31 710.83 2121.89 682.91 1972.98 828.83 1895.04 976.23 2124.15 955.10
00000160 00000073 1773.51 407.86 548.76 765.04 1879.00 717.27 2147.40 684.95 2005.20 843.77 1924.62 983.70 2154.62 958.05
00000161 00000074 1787.03 400.44 568.05 767.42 1903.52 719.29 2172.32 689.75 2037.99 844.29 1949.89 975.03 2182.28 951.45
00000162 00000075 1818.82 404.91 559.60 751.86 1926.76 715.25 2196.78 692.40 2057.50 841.64 1966.27 968.48 2196.38 951.42
00000163 00000076 1831.27 409.85 558.92 742.64 1945.28 712.78 2211.80 693.41 2075.99 843.61 1980.57 968.94 2204.55 955.36
00000164 00000077 1842.12 416.89 557.60 755.54 1958.34 726.42 2223.43 702.32 2083.45 854.99 1996.91 991.40 2218.26 973.31
00000165 00000078 1846.60 445.33 562.87 775.24 1961.66 738.37 2231.54 706.53 2094.95 861.32 2016.24 1020.13 2237.67 994.74
00000166 00000079 1854.15 445.24 568.19 786.74 1968.06 744.56 2238.93 710.50 2101.47 869.32 2020.63 1024.64 2253.47 996.66
00000167 00000080 1857.07 446.08 571.36 780.97 1973.26 748.57 2241.07 714.60 2104.19 876.09 2021.37 1021.51 2257.40 992.99
00000168 00000081 1852.69 447.90 576.11 781.26 1972.57 747.78 2241.70 716.03 2104.75 880.16 2019.82 1020.06 2258.46 992.99
00000169 00000082 1845.59 449.23 581.21 784.19 1966.24 750.89 2239.80 720.84 2101.62 887.46 2013.42 1023.37 2259.10 996.93
00000170 00000083 1840.35 450.72 577.91 782.80 1956.45 754.40 2233.44 724.75 2094.31 892.93 2002.10 1025.80 2254.04 998.93
00000171 00000084 1830.34 447.09 576.98 789.78 1944.36 759.22 2223.26 730.56 2083.95 895.91 1986.74 1025.86 2242.08 999.88
00000172 00000085 1806.24 445.15 585.40 794.99 1925.04 759.95 2202.46 737.22 2061.72 900.67 1963.48 1027.07 2215.27 1006.93
00000173 00000086 1776.03 437.87 588.13 810.29 1895.82 756.66 2178.91 733.11 2035.20 900.44 1934.24 1029.14 2196.11 1007.49
00000174 00000087 1758.74 430.16 576.20 817.31 1876.71 765.60 2160.54 738.04 2010.29 903.87 1907.75 1034.80 2179.41 1013.17
00000175 00000088 1735.60 448.11 583.14 805.40 1845.63 765.04 2135.44 742.73 1983.81 912.54 1886.98 1040.47 2143.95 1021.11
00000176 00000089 1701.72 434.00 584.23 821.91 1821.11 765.68 2107.39 739.13 1959.82 909.79 1854.02 1038.20 2125.23 1017.85
00000177 00000090 1666.91 430.89 597.07 825.41 1788.04 761.30 2082.53 737.69 1936.45 911.96 1828.42 1038.52 2089.44 1016.75
00000178 00000091 1629.59 422.99 603.27 835.18 1751.69 752.06 2043.12 729.55 1895.86 904.08 1794.83 1033.72 2050.41 1014.23
00000179 00000092 1611.61 419.76 591.43 834.69 1728.59 746.21 2021.49 721.97 1871.70 899.37 1782.05 1038.55 2018.20 1018.05
00000180 00000093 1582.42 416.30 597.28 833.02 1703.47 741.17 1994.46 717.92 1841.77 891.78 1757.46 1041.49 1981.33 1024.20
00000181 00000094 1546.26 393.77 610.49 863.44 1674.84 737.68 1965.05 709.61 1819.35 889.85 1732.99 1038.41 1961.37 1015.67
00000182 00000095 1527.02 391.38 608.93 857.07 1655.23 731.84 1947.88 705.80 1801.15 887.29 1705.03 1032.64 1948.11 1010.39
00000183 00000096 1497.10 375.16 618.96 863.66 1640.08 720.69 1938.45 698.72 1788.94 885.43 1676.22 1028.16 1933.57 1010.06
00000184 00000097 1479.38 366.41 624.03 871.32 1615.00 720.53 1914.20 693.90 1773.29 885.34 1672.74 1026.49 1909.58 1004.64
00000185 00000098 1461.21 363.21 627.32 883.51 1596.99 723.43 1898.22 696.81 1749.83 890.99 1657.25 1033.68 1893.95 1011.53
00000186 00000099 1446.28 360.81 617.55 886.47 1586.18 723.62 1883.41 700.42 1733.69 886.12 1629.41 1040.68 1882.92 1021.34
00000187 00000100 1426.19 361.96 623.66 893.38 1567.91 724.81 1872.25 700.68 1719.06 893.11 1612.15 1051.11 1869.92 1030.97
00000188 00000101 1412.10 365.23 624.49 904.78 1552.37 729.52 1859.73 701.90 1707.03 899.03 1600.59 1061.31 1856.88 1038.48
00000189 00000102 1397.07 371.35 634.38 898.61 1536.99 734.55 1846.89 706.49 1691.92 907.52 1585.98 1065.52 1843.75 1042.50
00000190 00000103 1396.95 359.89 620.84 914.38 1530.17 736.81 1834.70 710.13 1683.47 912.07 1574.55 1068.20 1839.92 1045.38
00000191 00000104 1384.17 361.54 640.42 920.52 1514.83 739.36 1833.71 710.15 1673.99 911.60 1576.06 1072.63 1833.27 1047.07
00000192 00000105 1384.72 363.63 630.93 930.40 1516.64 741.27 1829.19 714.14 1670.45 922.58 1565.10 1071.97 1834.38 1050.10
00000193 00000106 1370.40 371.14 649.11 931.05 1505.83 742.19 1824.37 712.60 1664.46 922.93 1562.04 1071.15 1825.34 1045.51
00000194 00000107 1359.65 371.72 654.56 936.88 1500.23 737.34 1819.60 711.62 1661.79 924.53 1546.62 1064.99 1823.10 1042.68
00000195 00000108 1347.06 366.35 659.77 943.26 1491.70 736.57 1813.14 711.95 1656.24 923.89 1533.47 1062.24 1819.37 1040.62
00000196 00000109 1337.65 366.89 664.32 944.90 1481.56 734.32 1805.92 710.30 1647.74 923.87 1521.58 1059.16 1812.61 1037.97
00000197 00000110 1329.79 359.67 666.41 958.95 1472.96 729.39 1797.93 706.40 1637.60 917.04 1513.80 1060.65 1799.64 1041.49
00000198 00000111 1320.57 354.18 673.76 959.76 1464.35 725.79 1786.65 701.30 1624.61 913.18 1512.96 1062.89 1779.19 1043.32
00000199 00000112 1306.28 348.83 675.73 948.06 1455.69 730.72 1782.39 706.13 1616.09 912.61 1501.55 1060.99 1774.26 1041.59
00000200 00000113 1302.04 338.30 678.49 957.32 1445.66 733.52 1772.64 710.67 1605.24 916.72 1493.00 1058.08 1778.36 1039.47
00000201 00000114 1300.08 339.85 678.37 962.69 1443.15 735.27 1770.28 713.38 1601.07 918.08 1490.25 1062.05 1775.40 1044.31
00000202 00000115 1294.91 344.98 683.02 983.66 1441.39 736.00 1764.55 714.06 1598.35 915.33 1488.07 1067.42 1771.96 1048.35
00000203 00000116 1291.89 340.07 688.00 1005.99 1436.91 725.25 1764.98 703.26 1593.80 921.51 1482.67 1061.00 1774.98 1043.90
00000204 00000117 1285.50 336.89 691.40 1008.99 1432.54 723.72 1763.13 703.53 1591.01 922.92 1474.56 1056.83 1775.97 1040.48
00000205 00000118 1279.48 335.12 695.28 989.10 1429.02 728.30 1764.73 707.53 1593.56 924.03 1469.42 1054.56 1776.91 1035.97
00000206 00000119 1276.32 348.71 695.50 957.63 1425.00 740.69 1758.31 720.41 1587.32 929.46 1464.82 1060.28 1773.25 1042.58
00000207 00000120 1274.54 353.07 697.38 952.82 1424.28 743.03 1759.46 723.85 1587.76 931.75 1460.83 1059.66 1775.52 1042.78
00000208 00000121 1271.36 355.10 702.78 956.38 1423.64 745.66 1761.13 726.71 1588.94 932.02 1458.23 1063.81 1776.23 1047.70
00000209 00000122 1270.32 354.69 705.90 964.28 1422.72 752.48 1759.96 732.67 1587.82 932.99 1455.97 1070.12 1775.46 1053.86
00000210 00000123 1273.69 356.09 703.37 968.33 1423.52 759.14 1759.69 738.50 1586.57 927.99 1457.49 1072.33 1773.97 1055.62
00000211 00000124 1291.16 372.30 693.96 970.47 1424.39 750.68 1762.21 729.69 1585.19 930.51 1466.60 1098.67 1765.30 1080.92
00000212 00000125 1306.67 372.53 689.81 996.67 1430.36 752.69 1763.17 732.30 1578.40 936.63 1476.26 1117.33 1765.13 1100.24
00000213 00000126 1305.93 374.44 685.38 974.14 1437.09 768.45 1764.98 742.44 1580.36 943.22 1485.45 1110.44 1771.69 1089.84
00000214 00000127 1318.89 379.77 687.63 976.37 1439.35 775.69 1766.48 746.36 1573.03 952.43 1483.33 1119.80 1780.31 1095.79
00000215 00000128 1334.11 393.13 696.82 956.66 1448.04 780.51 1763.99 750.79 1578.04 957.00 1503.93 1126.39 1772.12 1101.87
00000216 00000129 1353.64 401.85 692.61 955.86 1460.28 785.16 1769.78 757.25 1583.28 962.27 1522.44 1130.66 1777.40 1107.53
00000217 00000130 1380.34 418.25 677.08 970.06 1488.34 793.34 1793.68 762.29 1586.40 967.97 1541.62 1138.80 1801.43 1114.75
00000218 00000131 1404.81 425.47 667.96 988.74 1509.47 803.13 1806.19 772.89 1597.81 973.56 1567.63 1152.61 1822.66 1128.22
00000219 00000132 1445.12 439.74 651.34 990.98 1538.40 812.36 1819.40 779.13 1606.88 988.40 1597.28 1169.59 1843.26 1142.54
00000220 00000133 1473.03 451.91 653.83 969.73 1562.73 820.40 1833.82 791.91 1626.41 995.80 1620.25 1172.85 1859.05 1149.43
00000221 00000134 1502.25 442.57 667.00 957.11 1585.84 828.40 1849.06 794.05 1643.46 1004.16 1639.93 1171.28 1870.32 1145.24
00000222 00000135 1527.66 462.02 656.57 931.78 1610.26 836.76 1877.61 811.07 1666.88 1019.35 1664.46 1164.18 1894.71 1144.52
00000223 00000136 1553.47 475.48 640.14 924.65 1639.20 842.56 1900.10 819.69 1696.45 1018.25 1689.46 1166.73 1919.37 1147.71
00000224 00000137 1571.08 473.05 637.16 928.50 1656.05 845.99 1910.94 824.41 1708.64 1026.64 1708.59 1167.34 1927.48 1149.11
00000225 00000138 1589.33 476.41 626.99 922.09 1667.54 845.24 1922.62 823.06 1718.97 1025.39 1721.36 1170.14 1937.57 1151.20
00000226 00000139 1602.62 472.51 623.97 917.80 1677.45 841.54 1931.33 823.48 1725.41 1024.19 1726.23 1164.87 1943.21 1149.21
00000227 00000140 1615.57 485.25 625.76 901.31 1691.56 837.73 1939.38 818.58 1733.77 1022.86 1737.41 1166.28 1952.11 1150.04
00000228 00000141 1622.76 484.16 622.06 908.89 1699.83 843.04 1939.90 818.08 1739.00 1021.10 1752.59 1171.67 1955.47 1151.82
00000229 00000142 1626.15 484.17 620.07 915.51 1702.08 844.14 1939.72 815.43 1737.04 1018.05 1759.63 1176.41 1963.20 1153.65
00000230 00000143 1624.92 484.54 615.81 918.96 1701.85 848.73 1939.72 816.77 1739.65 1023.81 1761.18 1170.47 1976.06 1145.03
00000231 00000144 1627.12 484.63 619.17 917.37 1703.56 848.40 1941.55 815.89 1739.67 1023.68 1763.41 1166.21 1985.92 1139.34
00000232 00000145 1626.05 485.95 624.36 915.16 1704.81 849.49 1941.57 812.74 1740.27 1022.81 1769.20 1161.41 1997.91 1129.53
00000233 00000146 1628.94 485.87 623.09 918.18 1709.21 845.40 1940.76 808.64 1738.60 1021.09 1774.73 1159.39 2001.26 1126.46
00000234 00000147 1630.35 478.72 627.76 919.04 1709.05 842.60 1945.83 807.24 1742.97 1015.51 1774.51 1152.33 2005.25 1120.35
00000235 00000148 1630.87 475.66 628.81 925.47 1709.40 835.43 1946.52 799.76 1739.23 1004.19 1772.89 1150.18 2003.12 1117.83
00000236 00000149 1632.55 465.45 631.46 962.42 1710.81 829.18 1945.95 785.77 1728.31 990.31 1774.48 1157.33 2005.52 1116.94
00000237 00000150 1631.99 461.51 628.59 973.19 1710.17 822.38 1947.46 778.83 1725.92 981.09 1770.75 1158.43 2003.37 1118.02
00000238 00000151 1628.84 462.61 627.81 961.62 1707.60 818.86 1947.07 777.68 1725.66 979.05 1767.91 1156.05 1995.36 1119.18
00000239 00000152 1644.80 461.41 609.04 927.57 1702.61 821.53 1940.06 779.94 1723.87 977.20 1760.15 1154.89 1960.58 1120.09
00000240 00000153 1636.14 443.44 600.43 922.02 1703.32 810.78 1936.60 785.97 1727.54 979.24 1741.88 1135.63 1949.47 1116.89
00000241 00000154 1630.18 445.10 600.91 907.72 1695.31 807.73 1932.03 784.95 1718.19 975.23 1729.85 1126.19 1943.25 1108.90
00000242 00000155 1621.99 445.01 598.75 897.06 1688.67 803.36 1928.66 781.49 1714.45 972.58 1724.80 1117.92 1941.28 1100.88
00000243 00000156 1620.58 449.34 593.51 886.89 1685.10 803.72 1924.43 776.25 1713.43 967.83 1725.31 1118.20 1938.26 1097.18
00000244 00000157 1616.42 449.48 593.40 879.22 1681.86 797.01 1922.57 770.82 1710.35 965.67 1722.73 1112.98 1937.95 1092.54
00000245 00000158 1610.39 448.93 600.17 886.42 1679.67 798.83 1924.85 772.17 1713.46 967.23 1724.83 1115.16 1940.13 1094.51
00000246 00000159 1609.00 447.36 603.54 894.00 1683.65 799.53 1935.08 774.50 1726.48 970.16 1731.30 1118.28 1946.91 1099.29
00000247 00000160 1612.24 451.10 607.69 895.43 1690.78 805.87 1940.98 775.85 1742.42 968.93 1740.24 1118.29 1960.99 1095.25
