Video ID: 	4h82Tey0ddk
H: 	2160
W: 	3840
FPS: 	25.0

FRAME INDEX X0 Y0 W H [Landmarks (5 Points)]

00025135 00000000 1427.95 135.43 518.93 783.51 1625.86 503.41 1851.14 459.83 1801.41 636.33 1689.74 770.89 1865.95 736.43
00025136 00000001 1424.03 127.54 522.90 793.86 1626.51 504.61 1852.28 462.16 1802.63 637.68 1688.59 773.39 1865.80 739.97
00025137 00000002 1425.43 127.89 520.37 793.04 1628.15 505.00 1852.80 462.72 1806.08 640.76 1689.14 773.23 1867.31 740.03
00025138 00000003 1426.73 133.41 518.74 783.42 1630.17 502.35 1853.45 460.97 1804.38 636.40 1693.62 769.07 1865.81 735.99
00025139 00000004 1426.81 134.12 518.95 777.24 1629.49 500.24 1852.86 456.61 1804.32 631.07 1695.07 765.72 1865.53 730.82
00025140 00000005 1428.07 132.95 517.53 775.87 1628.51 499.91 1854.24 454.99 1805.82 629.34 1693.10 764.57 1868.83 728.90
00025141 00000006 1428.90 130.85 518.29 777.00 1630.28 504.94 1854.80 459.79 1806.63 634.18 1691.74 762.33 1869.78 726.92
00025142 00000007 1429.89 132.87 519.16 780.28 1630.56 508.31 1855.93 462.21 1808.52 641.69 1690.14 765.60 1872.57 729.40
00025143 00000008 1427.28 134.59 524.48 790.22 1629.87 513.45 1854.63 466.88 1808.52 649.01 1691.01 770.82 1874.98 734.16
00025144 00000009 1424.78 141.89 531.21 791.00 1629.38 517.46 1856.52 470.75 1807.18 659.67 1691.65 779.71 1877.50 742.31
00025145 00000010 1424.05 149.03 527.00 786.60 1621.77 524.48 1849.79 476.68 1797.69 667.78 1684.32 785.20 1871.75 746.26
00025146 00000011 1419.56 153.17 526.42 783.18 1605.23 540.74 1838.34 488.09 1769.55 681.19 1663.72 792.70 1860.36 750.70
00025147 00000012 1410.70 166.48 517.68 790.22 1585.92 558.97 1821.70 512.73 1744.71 705.08 1638.15 812.58 1838.34 775.71
00025148 00000013 1399.68 190.59 521.24 794.57 1560.82 592.23 1801.15 546.02 1721.54 734.77 1609.21 833.87 1815.29 798.24
00025149 DELETE   1387.42 208.29 534.23 789.06 1532.27 608.22 1783.10 580.62 1673.05 771.40 1583.20 861.02 1785.76 838.38
00025150 00000015 1380.46 248.45 529.76 775.98 1502.84 631.17 1747.74 609.23 1630.46 811.73 1550.25 884.69 1752.17 865.31
00025151 00000016 1371.41 274.50 533.84 778.75 1492.26 648.30 1737.24 636.08 1614.64 838.48 1534.74 896.61 1745.72 883.69
00025152 00000017 1370.72 288.41 536.04 781.32 1485.32 658.52 1738.74 653.86 1604.59 858.78 1524.39 906.60 1740.29 898.34
00025153 00000018 1373.41 288.88 534.37 785.63 1486.40 660.57 1740.08 657.89 1604.24 862.39 1525.07 910.63 1739.82 904.02
00025154 00000019 1379.53 288.73 528.97 770.90 1489.96 650.17 1740.41 649.48 1605.89 844.48 1528.29 903.69 1736.04 899.66
00025155 00000020 1379.38 274.17 528.24 772.53 1490.07 639.63 1735.26 637.48 1603.94 830.22 1526.62 891.66 1732.63 887.21
00025156 00000021 1373.85 252.18 533.67 777.75 1483.59 626.39 1730.91 623.47 1599.26 816.77 1524.73 885.77 1724.46 881.45
00025157 00000022 1367.47 244.19 534.77 778.15 1481.20 618.05 1726.70 614.47 1595.74 805.34 1523.06 879.21 1719.03 874.54
00025158 00000023 1361.63 247.26 534.45 771.17 1480.02 617.46 1719.66 611.32 1593.31 798.26 1523.20 875.58 1714.73 869.14
00025159 00000024 1354.32 241.38 534.73 771.39 1477.28 615.47 1714.00 608.13 1589.83 791.87 1520.29 870.06 1709.69 862.94
00025160 00000025 1352.11 235.73 535.14 772.71 1477.70 608.92 1713.14 600.22 1589.23 784.75 1522.57 864.59 1708.93 856.20
00025161 00000026 1351.78 231.41 534.65 771.40 1480.96 600.05 1716.81 588.17 1594.22 771.76 1528.25 857.35 1712.34 846.31
00025162 00000027 1361.63 224.87 530.55 773.00 1486.37 584.89 1724.17 569.10 1603.69 755.18 1537.63 848.57 1727.21 833.85
00025163 00000028 1381.82 212.57 523.02 777.30 1503.16 568.93 1737.78 552.81 1622.60 736.88 1546.91 830.31 1740.42 816.03
00025164 00000029 1396.30 202.25 520.08 777.49 1529.59 550.09 1761.89 529.94 1653.77 709.38 1570.02 816.18 1764.01 799.09
00025165 00000030 1412.74 181.26 526.92 782.38 1559.57 532.93 1795.09 516.55 1691.12 691.65 1598.27 804.30 1788.77 789.80
00025166 00000031 1431.12 184.71 521.97 767.43 1587.74 524.84 1820.73 506.99 1722.70 684.48 1628.21 797.96 1815.97 781.12
00025167 00000032 1450.04 180.14 520.60 777.63 1610.11 530.13 1846.96 515.86 1747.39 692.75 1650.51 801.03 1836.76 786.97
00025168 00000033 1462.05 180.82 512.11 783.54 1631.76 534.55 1856.17 517.29 1771.45 694.77 1661.76 807.49 1845.80 791.31
00025169 00000034 1464.74 179.27 513.39 789.27 1642.49 537.84 1864.71 521.74 1784.12 695.74 1670.86 807.10 1856.68 791.91
00025170 00000035 1472.42 185.90 506.79 778.38 1657.53 538.51 1878.46 516.96 1807.60 686.46 1690.29 805.91 1875.74 786.16
00025171 00000036 1482.87 180.06 505.27 777.26 1675.29 533.45 1892.55 510.05 1829.16 681.39 1715.43 804.39 1888.22 783.26
00025172 00000037 1491.48 171.79 511.97 780.06 1691.17 525.46 1915.49 504.69 1850.20 676.00 1729.23 800.68 1907.67 783.06
00025173 00000038 1501.53 169.13 507.83 782.60 1704.89 526.46 1929.01 501.00 1872.81 674.63 1746.70 802.09 1928.29 781.89
00025174 00000039 1508.02 189.33 511.47 764.36 1716.68 536.77 1940.44 508.25 1886.78 684.71 1755.61 800.72 1939.71 778.05
00025175 00000040 1516.28 195.40 508.39 762.36 1725.04 544.21 1946.02 512.64 1894.49 695.33 1762.87 804.79 1944.22 779.88
00025176 00000041 1524.20 199.19 505.09 760.08 1733.85 546.74 1952.98 514.81 1902.39 701.60 1771.29 805.81 1950.06 780.33
00025177 00000042 1535.28 195.64 508.19 771.22 1763.38 541.53 1974.23 506.57 1936.70 690.65 1790.21 807.10 1963.05 781.78
00025178 00000043 1553.25 184.46 505.27 784.15 1794.96 543.38 2001.47 506.20 1977.28 682.09 1815.74 809.62 1978.46 785.96
00025179 00000044 1570.73 181.48 501.35 783.57 1830.63 540.87 2025.14 509.53 2015.79 674.83 1844.16 798.40 1997.18 778.83
00025180 00000045 1585.04 196.37 497.39 764.46 1856.37 544.36 2038.22 517.04 2033.77 676.88 1866.01 792.69 2010.02 775.52
00025181 00000046 1592.60 187.26 501.22 783.18 1869.51 542.24 2051.92 522.78 2044.44 679.72 1881.66 799.71 2023.09 786.51
00025182 00000047 1596.88 181.47 504.20 771.78 1871.90 544.77 2057.96 527.17 2040.44 684.05 1884.82 798.49 2025.70 789.53
00025183 00000048 1598.63 193.55 504.69 762.51 1868.02 549.14 2058.84 531.83 2038.59 689.12 1880.36 802.49 2026.46 793.14
00025184 00000049 1598.68 196.06 504.86 758.73 1863.35 552.83 2057.18 534.48 2031.72 692.31 1877.02 803.07 2027.70 792.72
00025185 00000050 1598.24 195.69 506.10 760.60 1861.40 554.33 2056.37 538.51 2029.87 697.27 1871.11 805.54 2021.87 797.62
00025186 00000051 1595.85 196.04 510.65 763.57 1861.84 554.28 2056.04 539.74 2030.22 697.20 1865.58 804.33 2016.18 797.97
00025187 00000052 1591.42 191.01 512.17 774.99 1856.04 552.21 2047.89 537.59 2021.94 695.00 1857.50 800.57 2004.47 794.50
00025188 00000053 1585.64 191.54 511.98 779.49 1844.86 555.64 2041.55 538.47 2011.78 695.74 1845.91 802.83 1998.38 795.51
00025189 00000054 1583.10 193.20 509.18 775.39 1832.09 559.02 2031.93 540.94 1995.44 701.99 1833.00 803.91 1990.01 795.94
00025190 00000055 1581.48 192.83 507.59 775.46 1820.34 562.01 2025.72 540.50 1985.05 706.26 1823.87 805.08 1984.27 794.39
00025191 00000056 1581.64 196.51 508.05 771.55 1814.64 562.79 2023.44 540.87 1978.57 710.38 1820.53 805.35 1984.12 793.68
00025192 00000057 1581.58 204.50 508.68 767.61 1816.17 566.18 2024.04 546.40 1979.35 711.47 1818.03 805.79 1982.28 795.99
00025193 00000058 1578.54 202.39 511.12 771.54 1811.41 570.26 2022.90 549.81 1977.25 712.01 1815.28 806.63 1981.19 796.66
00025194 00000059 1564.92 196.16 516.91 782.08 1797.76 576.85 2015.32 544.66 1974.12 716.53 1804.39 813.37 1980.96 795.21
00025195 00000060 1550.97 181.77 518.57 800.09 1782.43 580.38 2005.20 534.63 1967.60 721.31 1796.63 819.57 1979.89 790.80
00025196 00000061 1539.93 186.87 519.72 796.84 1766.44 577.38 1993.79 525.23 1957.34 716.20 1785.72 820.06 1976.23 785.23
00025197 00000062 1521.95 187.79 532.50 798.51 1750.26 576.92 1972.92 510.61 1944.95 715.81 1780.38 818.30 1969.95 771.28
00025198 00000063 1504.16 196.46 535.59 783.34 1727.81 579.37 1952.80 509.70 1925.60 718.36 1764.10 817.54 1961.94 765.86
00025199 00000064 1487.52 188.06 543.85 790.92 1711.95 587.31 1938.80 514.48 1909.88 721.23 1753.75 820.81 1954.39 767.84
00025200 00000065 1477.72 185.60 545.22 790.96 1700.33 590.13 1927.02 511.13 1903.74 721.81 1743.95 821.24 1947.58 763.78
00025201 00000066 1463.31 192.10 549.79 783.79 1687.97 586.43 1917.43 505.53 1895.01 717.55 1733.16 820.37 1941.80 760.72
00025202 00000067 1450.78 178.81 544.12 804.04 1674.62 583.03 1897.89 498.95 1876.72 716.60 1724.41 816.66 1927.10 753.93
00025203 00000068 1437.33 183.39 550.06 800.00 1654.30 591.75 1884.08 497.39 1865.26 718.50 1710.39 818.99 1914.39 749.09
00025204 00000069 1417.86 172.48 556.66 811.70 1644.63 600.74 1872.93 504.26 1854.47 719.45 1700.10 823.22 1901.68 752.81
00025205 00000070 1406.52 180.84 564.66 801.33 1635.43 611.26 1862.98 505.98 1848.22 721.26 1697.13 826.13 1899.08 748.42
00025206 00000071 1402.25 195.78 566.39 787.90 1624.15 613.74 1853.56 506.12 1838.96 722.67 1690.00 829.01 1894.01 748.49
00025207 00000072 1396.38 198.13 561.93 783.50 1614.68 616.79 1843.82 506.03 1829.87 722.15 1683.28 827.97 1887.77 744.48
00025208 00000073 1385.37 203.01 563.33 779.17 1605.72 622.08 1835.04 504.10 1821.22 726.11 1681.11 829.69 1883.73 739.96
00025209 00000074 1375.07 199.50 567.01 785.39 1600.28 627.26 1828.67 504.62 1813.78 727.02 1677.64 831.38 1881.51 737.97
00025210 00000075 1370.09 200.24 564.91 783.33 1596.17 629.95 1821.74 507.53 1808.19 728.18 1675.14 831.37 1877.69 738.13
00025211 00000076 1365.72 196.24 566.56 787.92 1594.14 629.99 1818.91 506.41 1806.56 726.28 1674.01 832.19 1876.53 738.10
00025212 00000077 1367.09 191.95 564.58 791.34 1594.89 630.79 1818.82 506.23 1806.87 726.10 1676.64 833.17 1876.81 738.58
00025213 00000078 1372.69 198.07 562.07 786.09 1598.73 633.31 1822.90 506.23 1812.95 726.14 1678.98 833.55 1879.61 736.98
00025214 00000079 1384.83 208.25 558.09 778.49 1604.49 633.31 1830.21 508.95 1820.20 728.68 1684.03 834.67 1885.72 739.89
00025215 00000080 1395.01 213.66 558.82 777.09 1613.74 632.21 1839.52 516.97 1825.14 728.09 1693.91 838.61 1891.27 751.11
00025216 00000081 1397.16 212.04 564.09 780.44 1621.42 635.68 1847.71 521.70 1829.53 727.15 1705.05 841.05 1900.93 754.85
00025217 00000082 1408.97 210.81 556.65 781.78 1633.27 634.81 1855.43 528.10 1834.31 723.73 1714.67 839.03 1902.71 759.97
00025218 00000083 1422.93 208.63 547.93 781.36 1642.19 635.51 1862.42 531.27 1841.74 725.20 1717.41 838.88 1906.28 762.15
00025219 00000084 1433.90 205.54 545.08 780.49 1653.88 629.90 1870.79 528.42 1854.05 727.16 1728.45 836.69 1913.58 762.28
00025220 00000085 1445.12 200.65 542.21 774.18 1661.01 619.48 1877.96 523.45 1860.23 724.78 1737.11 831.60 1919.83 761.66
00025221 00000086 1447.80 197.87 542.14 767.19 1662.37 609.67 1880.24 516.32 1860.95 719.76 1747.92 829.68 1925.11 761.54
00025222 00000087 1445.79 179.29 537.10 790.19 1666.98 593.16 1881.54 506.77 1863.75 701.94 1751.29 828.40 1932.09 765.24
00025223 00000088 1447.76 176.22 538.23 787.90 1666.69 569.06 1880.24 492.35 1859.16 672.41 1759.18 814.92 1932.99 758.01
00025224 00000089 1446.00 176.44 542.77 768.36 1663.88 554.83 1873.01 471.08 1860.43 649.27 1755.40 795.02 1932.77 731.72
00025225 00000090 1449.76 163.50 540.36 762.64 1660.65 537.20 1869.28 458.73 1851.46 626.89 1749.87 777.11 1923.54 718.53
00025226 00000091 1446.21 161.77 540.08 750.09 1644.06 518.96 1859.59 448.07 1839.98 602.07 1747.05 757.45 1922.71 702.48
00025227 00000092 1445.65 176.93 540.72 717.96 1639.97 505.90 1853.69 441.77 1829.29 583.60 1742.82 741.02 1910.64 693.85
00025228 00000093 1440.57 176.04 541.20 718.71 1629.90 504.74 1843.99 440.16 1818.08 581.98 1731.80 738.61 1902.89 690.38
00025229 00000094 1434.09 178.07 544.56 716.38 1622.84 507.36 1839.42 439.78 1811.61 585.99 1725.65 740.92 1899.80 689.71
00025230 00000095 1424.93 179.07 550.61 713.63 1618.43 509.08 1834.22 439.13 1808.71 590.33 1725.62 743.61 1897.90 690.24
00025231 00000096 1420.62 180.67 554.42 705.36 1615.37 510.27 1830.61 438.12 1805.62 591.20 1727.49 743.41 1898.29 688.09
00025232 00000097 1416.75 183.73 556.73 701.82 1612.64 510.26 1827.76 436.31 1804.73 591.00 1728.19 745.40 1898.27 688.56
00025233 00000098 1412.75 186.26 555.25 705.40 1611.84 512.46 1825.96 437.78 1805.45 593.26 1728.77 749.77 1895.97 692.12
00025234 00000099 1407.99 184.08 555.50 710.37 1610.09 515.80 1823.85 438.07 1805.77 595.07 1726.49 751.79 1895.08 691.98
00025235 00000100 1408.65 188.94 553.49 706.84 1609.69 517.29 1822.68 438.68 1805.81 598.21 1726.86 752.86 1894.68 692.40
00025236 00000101 1407.28 184.57 553.39 712.39 1609.09 518.80 1821.92 439.31 1805.18 598.84 1727.70 755.44 1894.59 694.45
00025237 00000102 1406.62 183.96 554.48 716.10 1610.46 520.86 1823.27 441.09 1807.67 600.60 1730.23 758.26 1895.92 697.06
00025238 00000103 1409.01 183.55 553.94 716.48 1610.82 523.52 1823.47 442.41 1806.30 605.50 1728.52 759.33 1896.14 697.42
00025239 00000104 1411.76 181.86 552.73 719.94 1612.17 525.30 1826.02 443.86 1808.06 608.77 1727.72 760.28 1897.14 698.25
00025240 00000105 1416.84 180.97 553.22 721.80 1616.10 527.96 1831.50 447.39 1809.76 612.03 1723.30 758.24 1899.00 696.72
00025241 00000106 1419.80 182.65 552.70 722.48 1619.28 532.67 1836.79 449.13 1813.69 617.84 1722.73 759.73 1902.54 695.64
00025242 00000107 1423.18 180.76 550.24 727.99 1622.29 536.18 1841.94 452.78 1817.31 624.01 1721.46 762.12 1904.57 698.44
00025243 00000108 1422.68 181.74 549.11 732.03 1624.19 542.93 1845.18 457.77 1823.65 631.97 1718.93 768.15 1904.67 703.67
00025244 00000109 1420.56 185.14 554.08 731.77 1626.45 548.23 1847.03 461.10 1827.50 634.24 1723.55 772.02 1908.98 706.33
00025245 00000110 1421.96 185.14 553.01 733.78 1626.90 551.36 1846.95 461.80 1828.74 633.52 1725.24 773.42 1910.12 705.81
00025246 00000111 1420.44 185.08 552.89 737.17 1625.23 551.38 1847.90 463.90 1827.51 638.63 1718.73 775.61 1907.81 709.77
00025247 00000112 1423.38 182.44 547.23 741.04 1619.05 554.32 1841.39 462.05 1818.43 645.03 1714.56 778.11 1907.31 707.37
00025248 00000113 1420.97 185.97 547.05 738.37 1617.76 556.32 1840.89 465.05 1818.67 644.12 1712.25 781.25 1905.54 711.65
00025249 00000114 1416.03 182.72 550.59 747.16 1616.67 553.25 1842.61 460.95 1821.18 647.75 1718.06 783.57 1906.02 713.90
00025250 00000115 1416.36 179.30 549.48 750.91 1615.49 554.17 1842.36 461.61 1820.24 649.69 1717.10 785.61 1906.21 715.73
00025251 00000116 1411.44 178.74 553.75 751.07 1616.45 555.48 1843.09 462.49 1820.98 649.90 1718.46 784.77 1905.65 714.87
00025252 00000117 1409.52 179.27 555.77 750.70 1616.02 556.55 1842.25 463.39 1820.14 649.61 1719.07 785.29 1905.22 715.16
00025253 00000118 1415.74 182.21 549.45 740.66 1614.09 558.84 1836.22 463.45 1812.12 649.35 1713.66 784.57 1903.66 711.74
00025254 00000119 1410.99 182.28 554.27 748.36 1614.02 558.37 1841.36 465.50 1819.29 650.29 1716.10 786.37 1905.13 716.61
00025255 00000120 1412.56 180.76 551.95 752.29 1614.10 559.55 1841.63 466.66 1818.83 650.77 1714.34 787.54 1905.08 717.77
00025256 00000121 1411.36 182.39 552.29 750.95 1613.43 559.42 1840.42 466.21 1818.60 651.36 1715.93 788.44 1904.53 718.50
00025257 00000122 1417.77 181.82 545.97 743.15 1613.80 561.97 1834.34 466.52 1810.64 653.49 1713.42 788.09 1903.02 715.38
00025258 00000123 1416.56 183.05 547.74 742.48 1614.10 563.37 1835.32 466.53 1812.44 653.68 1712.98 788.78 1903.55 714.97
00025259 00000124 1416.72 181.59 547.40 742.43 1614.37 562.54 1835.08 466.16 1812.12 653.85 1713.99 789.06 1903.26 715.80
00025260 00000125 1416.09 180.91 545.61 743.21 1614.29 560.76 1834.05 465.44 1811.74 651.98 1713.03 788.31 1901.20 716.04
00025261 00000126 1415.03 181.14 546.13 743.38 1613.46 560.09 1833.90 464.12 1811.73 651.50 1712.99 789.29 1901.74 716.39
00025262 00000127 1415.09 182.17 546.25 741.02 1612.18 560.43 1833.11 463.49 1810.52 651.65 1712.40 789.95 1902.00 716.17
00025263 00000128 1415.16 182.57 547.27 740.56 1611.49 559.44 1832.56 463.10 1809.82 651.11 1711.00 788.88 1901.74 715.39
00025264 00000129 1415.23 183.65 547.31 739.54 1611.78 559.42 1832.07 463.24 1809.37 650.33 1710.66 788.51 1902.03 715.12
00025265 00000130 1413.53 188.00 548.18 733.65 1611.10 560.89 1831.55 465.05 1808.37 649.78 1708.24 788.32 1901.07 715.21
00025266 00000131 1413.47 185.06 547.99 737.35 1610.79 560.97 1832.24 465.50 1808.46 650.12 1706.44 787.71 1900.50 715.12
00025267 00000132 1413.52 184.69 547.13 736.74 1609.66 561.65 1831.60 465.25 1807.35 651.32 1704.68 787.65 1899.79 714.23
00025268 00000133 1413.08 187.95 548.07 734.32 1609.86 564.02 1833.04 468.65 1807.03 652.55 1704.21 787.73 1900.62 715.08
00025269 00000134 1414.51 196.73 547.23 727.00 1610.03 569.68 1833.89 473.90 1805.97 653.36 1703.32 788.82 1900.13 715.77
00025270 00000135 1412.17 192.86 547.74 729.80 1609.58 567.80 1831.38 470.56 1806.17 652.14 1703.93 788.71 1899.57 714.59
00025271 00000136 1403.73 187.17 554.82 744.56 1607.52 563.43 1834.86 470.92 1811.89 653.55 1708.45 788.90 1900.96 718.99
00025272 00000137 1400.37 181.90 558.32 750.18 1604.46 563.26 1832.55 469.30 1808.80 653.36 1707.58 789.26 1900.36 718.10
00025273 00000138 1398.57 182.34 560.05 746.80 1602.85 562.01 1829.65 468.91 1806.33 653.27 1709.69 789.49 1898.17 719.01
00025274 00000139 1395.88 182.40 558.99 747.44 1599.53 560.95 1825.79 469.12 1802.54 653.65 1707.41 789.84 1894.89 720.20
00025275 00000140 1395.82 184.00 552.92 745.40 1595.48 558.75 1821.11 466.87 1798.60 654.05 1704.59 789.73 1892.03 719.79
00025276 00000141 1388.04 180.36 554.67 746.34 1589.50 556.41 1813.57 466.27 1792.39 651.56 1698.48 786.87 1885.33 718.22
00025277 00000142 1381.90 183.34 557.06 738.59 1583.99 554.73 1806.80 462.52 1787.22 652.68 1695.67 784.12 1880.49 713.55
00025278 00000143 1379.48 185.65 557.76 735.31 1578.15 557.38 1803.47 462.37 1781.64 653.06 1690.74 784.26 1877.54 711.43
00025279 00000144 1379.35 179.75 558.58 741.45 1577.07 557.28 1801.83 462.95 1778.18 651.26 1690.12 783.57 1875.30 711.25
00025280 00000145 1386.43 180.04 554.68 739.90 1579.10 555.53 1803.71 461.45 1779.17 651.65 1692.82 783.08 1878.56 710.78
00025281 00000146 1393.75 184.11 558.17 738.04 1584.88 552.97 1808.68 463.42 1781.27 651.29 1701.44 786.00 1884.45 716.73
00025282 00000147 1409.14 185.94 553.71 737.75 1597.34 555.37 1822.86 465.61 1791.78 650.07 1709.39 787.77 1895.16 718.76
00025283 00000148 1424.20 188.33 555.39 738.89 1614.18 558.36 1841.25 468.31 1805.67 652.76 1720.56 789.48 1906.82 721.05
00025284 00000149 1443.60 188.31 547.65 741.02 1635.99 562.81 1860.37 470.38 1830.83 654.36 1731.70 789.80 1920.08 720.85
00025285 00000150 1458.45 188.19 555.30 741.86 1657.29 559.84 1882.72 479.60 1850.48 657.59 1745.77 791.98 1941.17 731.34
00025286 00000151 1484.08 189.35 548.35 747.83 1676.64 566.05 1901.62 492.20 1855.68 676.25 1761.56 799.69 1957.32 742.33
00025287 00000152 1501.54 190.99 549.41 758.79 1699.90 574.98 1931.48 497.29 1887.45 679.69 1783.40 806.06 1977.18 747.18
00025288 00000153 1533.22 186.95 526.90 768.42 1720.75 583.05 1947.67 502.17 1909.72 696.40 1804.14 819.89 2004.44 758.31
00025289 00000154 1555.72 192.34 519.64 767.97 1737.41 587.25 1962.03 505.34 1921.78 704.82 1823.87 825.87 2015.95 763.03
00025290 00000155 1563.01 193.62 523.43 767.97 1747.82 583.75 1971.87 508.12 1927.93 703.87 1828.35 824.25 2020.06 766.31
00025291 00000156 1568.02 198.65 529.72 762.46 1756.22 581.43 1981.25 510.19 1936.36 702.38 1832.19 818.76 2024.23 763.91
00025292 00000157 1571.14 199.23 532.02 761.45 1763.32 581.82 1988.80 512.49 1944.81 702.96 1836.39 816.92 2027.28 764.00
00025293 00000158 1575.45 203.97 529.92 755.49 1765.97 581.34 1990.49 511.27 1945.92 699.79 1841.17 817.42 2029.43 763.77
00025294 00000159 1572.38 202.23 530.71 755.56 1763.78 579.51 1989.28 509.73 1945.61 697.36 1838.16 816.03 2029.28 762.82
00025295 00000160 1570.22 200.39 526.37 756.37 1758.29 580.34 1982.93 508.23 1939.83 699.45 1834.94 816.73 2025.14 761.52
00025296 00000161 1567.13 195.72 520.10 760.74 1751.96 580.75 1974.27 506.24 1932.58 698.77 1830.83 819.20 2021.09 762.57
00025297 00000162 1555.87 191.03 522.83 764.16 1742.48 582.70 1965.97 504.43 1925.96 701.52 1824.64 821.69 2015.10 762.16
