Video ID: 	hruwNfyWoPY
H: 	1080
W: 	1920
FPS: 	29.97002997002997

FRAME INDEX X0 Y0 W H [Landmarks (5 Points)]

00003801 00000000 604.70 149.07 403.62 565.98 773.82 369.40 944.55 368.32 913.76 462.58 800.14 571.03 941.23 570.21
00003802 DELETE   602.30 144.24 400.83 566.11 769.82 376.70 937.49 375.62 906.24 461.58 797.38 568.34 937.49 567.44
00003803 DELETE   599.14 150.54 401.12 557.39 771.75 376.94 939.89 382.93 906.33 458.33 798.30 564.42 936.66 569.46
00003804 DELETE   598.39 146.72 401.17 560.03 768.43 376.56 935.87 379.02 902.42 457.66 797.92 564.75 935.41 566.86
00003805 00000004 598.43 137.93 397.86 569.85 764.62 377.73 940.82 372.29 904.74 460.13 794.39 567.47 941.92 563.36
00003806 00000005 596.24 136.19 399.21 568.14 765.51 375.86 939.03 369.36 906.07 460.10 801.31 567.33 943.17 562.61
00003807 00000006 594.46 139.03 402.12 563.48 763.79 374.18 939.11 366.96 905.60 459.30 802.92 565.54 945.41 560.24
00003808 00000007 594.74 138.46 403.49 563.93 763.31 374.12 938.13 365.07 904.39 459.49 806.00 566.40 946.89 559.59
00003809 00000008 597.10 143.42 406.23 563.79 767.02 371.46 930.52 365.82 900.32 455.87 813.19 567.59 941.38 562.02
00003810 DELETE   599.33 146.84 405.99 564.89 770.15 372.67 933.02 367.71 902.97 460.73 814.62 570.28 941.48 565.40
00003811 00000010 601.65 148.09 404.23 566.73 772.13 372.98 934.81 369.86 904.51 463.20 816.80 572.20 941.12 568.89
00003812 DELETE   606.48 149.36 401.05 570.16 777.09 374.50 935.43 371.16 907.64 465.95 821.37 574.37 942.85 570.81
00003813 DELETE   610.34 151.79 397.61 572.90 780.72 377.20 937.76 375.78 911.80 471.01 824.45 580.33 943.31 578.42
00003814 DELETE   614.07 153.06 395.99 577.23 782.41 381.51 942.58 380.63 915.28 476.96 824.79 586.97 945.89 585.41
00003815 00000014 615.13 152.41 396.35 582.59 784.59 383.87 943.79 384.06 918.78 478.54 827.81 591.56 946.45 590.80
00003816 DELETE   614.68 155.84 396.49 590.07 784.70 386.67 942.70 388.66 918.52 482.51 825.39 599.71 942.00 600.61
00003817 00000016 611.69 159.14 398.77 593.91 782.18 388.90 942.87 390.09 918.54 486.37 820.06 605.01 940.20 605.44
00003818 00000017 612.12 163.95 398.69 589.33 780.47 392.72 943.37 391.14 917.58 491.95 817.91 608.81 941.13 607.05
00003819 00000018 608.73 167.72 402.55 582.52 776.65 394.95 948.08 394.76 917.06 497.79 810.37 608.83 943.07 608.42
00003820 00000019 609.20 170.65 402.55 578.48 773.67 399.60 950.04 397.50 915.57 501.27 810.26 611.53 947.54 609.44
00003821 00000020 612.14 172.80 401.35 576.83 773.89 402.40 952.75 399.44 917.21 503.41 811.02 613.34 952.14 610.41
00003822 DELETE   616.35 174.27 399.74 576.94 775.85 405.59 955.16 402.36 919.62 506.35 812.82 615.74 955.36 612.46
00003823 00000022 618.92 175.83 399.94 578.31 778.38 408.49 957.09 404.82 922.40 507.55 815.07 617.88 957.57 614.42
00003824 00000023 620.99 176.01 398.41 581.91 780.54 410.20 958.85 405.54 925.62 510.93 815.69 620.56 958.59 616.30
00003825 00000024 621.77 175.47 397.59 584.38 780.59 410.94 959.50 404.76 927.49 512.18 816.31 622.66 959.76 617.14
00003826 00000025 622.54 175.25 397.52 584.64 780.55 411.19 960.12 404.35 927.79 512.33 817.16 623.43 960.56 617.38
00003827 00000026 623.55 174.90 397.57 584.34 780.93 410.98 959.93 404.43 927.29 512.04 817.16 622.58 960.36 616.70
00003828 00000027 624.30 173.84 397.51 583.93 781.25 410.63 960.72 404.52 927.16 511.48 817.33 621.77 960.51 616.29
00003829 00000028 624.98 173.30 398.09 583.86 782.87 409.98 961.54 404.90 927.68 510.37 817.77 620.96 959.91 616.38
00003830 00000029 623.29 172.86 399.46 583.78 783.94 408.66 961.66 404.05 927.65 509.60 818.51 619.73 959.46 615.52
00003831 00000030 622.97 171.73 399.91 584.03 784.30 408.08 960.96 403.75 927.24 507.90 819.28 618.38 959.19 614.34
00003832 00000031 622.79 171.10 399.27 585.31 784.47 407.48 960.19 403.76 927.40 507.73 818.52 617.99 958.33 614.46
00003833 00000032 621.95 169.58 399.10 588.58 785.01 407.56 958.14 405.12 926.95 507.40 818.12 617.35 956.90 614.92
00003834 00000033 622.10 170.38 396.82 585.96 785.37 412.95 956.43 410.04 926.28 509.25 817.48 617.88 955.88 615.27
00003835 00000034 622.01 169.26 396.34 580.60 784.48 425.82 961.74 423.55 922.50 510.71 816.28 617.20 957.23 615.32
00003836 00000035 621.90 170.75 395.93 573.97 785.72 424.18 961.05 423.71 921.96 506.60 817.81 613.61 955.64 613.08
00003837 DELETE   624.41 171.83 392.99 569.26 788.65 415.79 958.40 416.07 926.41 500.20 822.51 606.93 957.83 606.68
00003838 DELETE   622.68 173.04 393.86 566.06 788.70 411.06 955.94 408.05 929.13 495.96 826.00 605.98 956.80 603.30
00003839 00000038 624.67 171.30 392.07 563.75 790.63 404.71 956.86 403.58 929.91 491.02 827.29 601.10 955.15 599.94
00003840 00000039 625.28 168.99 392.52 562.94 793.04 399.84 958.31 400.24 931.43 485.85 830.67 596.89 956.62 596.88
00003841 00000040 625.59 167.44 392.03 560.17 794.35 397.83 958.16 396.52 933.11 482.49 832.23 592.76 958.00 591.38
00003842 00000041 626.61 165.65 391.65 561.75 796.38 397.22 959.98 395.80 935.70 481.47 833.89 592.02 960.22 590.49
00003843 00000042 626.69 166.18 391.68 564.36 796.14 397.67 957.98 395.80 934.76 481.33 833.56 593.16 958.84 591.33
00003844 DELETE   625.85 168.57 390.02 566.68 794.69 405.65 955.52 406.00 931.97 482.18 830.43 595.65 957.28 595.62
00003845 00000044 625.60 167.66 390.83 569.88 796.37 405.38 960.16 412.68 931.44 484.76 826.59 594.78 955.70 600.63
00003846 00000045 624.42 166.91 393.05 573.08 794.52 407.36 959.91 413.47 930.83 486.75 824.25 597.62 955.34 602.61
00003847 00000046 621.79 167.44 392.04 572.55 788.42 405.37 954.09 406.64 926.63 488.36 823.22 600.48 952.45 601.40
00003848 00000047 618.76 165.74 392.96 576.28 785.66 403.39 948.39 400.56 925.51 488.56 824.31 603.86 949.18 601.21
00003849 00000048 617.29 164.75 395.62 578.15 783.40 398.43 948.51 397.13 922.84 487.52 822.32 604.70 945.98 603.34
00003850 00000049 616.07 163.32 398.01 581.76 782.74 395.27 948.20 394.72 921.78 488.07 821.26 605.07 944.65 604.35
00003851 00000050 617.55 162.02 397.81 584.23 782.45 395.02 950.34 396.33 921.17 489.03 820.62 605.55 946.19 606.12
00003852 00000051 619.71 161.32 395.50 589.53 783.64 396.98 950.65 397.45 923.63 490.93 822.23 609.60 947.87 609.42
00003853 00000052 622.75 161.20 393.99 594.58 786.51 399.14 952.22 399.41 927.13 492.54 823.32 613.24 950.69 612.94
00003854 00000053 626.22 160.58 392.26 599.86 789.87 399.61 954.55 400.60 929.58 493.66 824.26 615.85 951.61 616.27
00003855 00000054 631.12 161.21 391.10 609.00 793.97 401.40 958.62 402.32 933.02 495.38 826.86 620.94 956.55 621.30
00003856 00000055 634.91 160.01 390.53 614.29 797.28 402.49 964.33 403.98 937.38 498.12 828.03 624.23 960.67 624.87
00003857 00000056 636.90 161.44 390.79 612.26 800.93 404.70 967.26 404.86 941.17 500.37 831.60 624.81 963.55 624.38
00003858 00000057 640.29 168.08 393.75 601.73 802.47 405.71 973.40 404.74 944.86 504.80 834.42 625.34 964.22 623.52
00003859 00000058 640.18 171.39 396.30 597.73 805.25 407.08 975.82 404.03 951.68 507.93 835.52 625.37 968.04 622.07
00003860 00000059 641.96 176.76 397.39 591.22 808.67 409.64 978.04 403.40 957.81 512.34 835.78 626.73 970.31 621.70
00003861 00000060 644.11 177.11 396.99 591.00 811.94 413.67 979.66 405.08 961.56 517.92 839.77 631.39 970.87 624.73
00003862 00000061 645.44 179.75 395.68 588.63 812.76 415.47 981.60 405.52 964.13 521.46 840.18 633.60 971.97 626.33
00003863 00000062 646.35 182.66 395.59 583.94 813.11 416.10 982.98 406.62 964.00 524.04 839.48 634.44 971.93 627.79
00003864 00000063 646.22 182.58 395.81 582.10 813.27 415.70 983.62 406.96 963.65 524.05 839.88 633.56 972.19 627.41
00003865 00000064 647.80 182.96 393.82 580.02 812.78 415.74 983.67 406.71 963.45 523.42 839.19 632.51 972.41 626.30
00003866 00000065 646.01 184.10 396.18 576.33 812.82 414.80 983.61 404.80 963.57 521.97 839.82 630.46 973.42 623.11
00003867 00000066 645.86 182.45 396.66 576.91 812.86 414.24 983.36 403.55 964.07 520.41 838.81 628.31 973.77 620.48
00003868 00000067 646.08 180.33 396.06 577.03 812.97 412.93 983.26 402.59 964.71 519.03 836.77 625.33 973.21 618.08
00003869 00000068 645.13 178.38 397.06 576.78 811.76 409.98 983.35 401.71 963.30 516.38 834.49 621.80 972.70 616.18
00003870 00000069 645.83 177.93 393.88 578.01 812.74 408.21 982.82 400.27 962.18 508.12 838.24 617.66 973.64 611.80
00003871 00000070 645.40 175.12 393.99 576.65 811.18 406.31 982.78 401.05 958.14 504.28 835.57 614.05 972.44 610.49
00003872 00000071 643.95 169.00 393.51 578.20 808.71 405.12 981.41 401.47 953.86 501.56 830.27 610.25 970.33 608.36
00003873 00000072 641.85 164.44 392.87 582.49 804.82 402.04 977.73 404.02 946.89 498.17 826.79 605.92 968.70 608.18
00003874 DELETE   639.08 165.59 391.35 579.75 802.71 410.85 973.57 417.59 939.40 496.84 822.21 602.01 966.27 607.92
00003875 DELETE   637.55 164.33 391.76 580.99 801.08 408.97 975.79 420.10 936.90 493.58 818.10 598.94 965.40 608.69
00003876 00000075 635.34 163.41 391.62 581.75 796.16 404.42 969.40 411.83 933.41 489.34 816.55 596.83 963.33 603.44
00003877 00000076 632.57 162.88 392.84 581.81 793.24 399.73 965.27 403.27 932.84 486.78 816.32 596.34 960.79 599.83
00003878 00000077 630.08 161.02 393.45 584.28 790.73 393.47 963.75 397.16 931.30 485.15 815.24 596.08 959.17 599.49
00003879 00000078 627.80 160.24 395.06 584.28 789.61 391.19 963.30 395.81 930.81 483.78 815.24 595.33 957.73 599.36
00003880 00000079 627.05 160.85 395.50 582.27 789.45 390.60 962.93 395.23 930.35 483.24 815.02 594.90 956.72 599.06
00003881 00000080 626.79 160.84 395.11 582.48 788.88 390.36 962.07 394.93 930.13 483.18 814.16 594.99 956.05 599.13
00003882 00000081 626.46 161.04 394.76 582.17 788.87 390.52 961.74 395.25 930.01 483.43 814.14 594.90 955.77 599.22
00003883 00000082 625.69 161.22 394.85 581.69 788.30 392.00 961.05 395.63 929.71 484.53 814.06 595.36 955.58 598.85
00003884 00000083 625.96 161.63 394.23 578.59 786.77 397.38 960.11 399.19 927.82 486.66 814.02 595.95 956.70 597.98
00003885 00000084 626.06 163.13 395.08 571.81 792.24 404.64 965.63 412.95 928.42 487.54 815.28 592.53 956.48 599.83
00003886 DELETE   629.07 163.43 393.59 570.33 793.80 408.86 970.38 418.91 929.95 489.57 815.53 594.97 959.01 603.73
00003887 00000086 629.80 164.58 391.62 570.15 793.95 408.69 970.32 417.82 930.94 491.98 815.45 596.60 958.84 604.72
00003888 00000087 630.89 165.84 389.60 569.09 790.94 409.17 965.26 411.89 929.68 494.96 817.16 600.53 958.89 603.28
00003889 00000088 632.01 167.26 388.98 572.30 790.35 409.45 962.32 407.69 930.41 496.62 819.02 603.76 958.90 602.84
00003890 00000089 632.58 164.96 390.89 576.13 790.33 408.48 963.73 407.10 930.35 496.63 819.30 605.17 959.72 604.54
00003891 00000090 630.96 164.93 392.98 576.51 789.50 406.54 964.03 404.87 930.77 497.61 820.84 606.56 960.67 605.33
00003892 00000091 630.33 165.28 393.66 576.01 788.21 405.65 964.27 403.47 930.27 499.24 821.84 607.64 961.65 605.67
00003893 00000092 629.04 165.48 394.72 576.33 787.97 405.83 962.97 402.79 930.21 499.44 824.38 609.07 961.57 606.26
00003894 00000093 628.95 165.25 393.78 577.53 788.33 405.47 962.26 402.38 930.35 499.52 825.37 610.94 959.42 608.13
00003895 00000094 629.24 165.52 393.17 576.11 788.36 405.07 962.56 401.94 930.59 498.96 825.42 610.21 959.99 607.34
00003896 00000095 629.62 165.78 392.73 574.72 788.75 404.76 962.60 401.61 931.15 498.20 825.74 609.31 960.59 606.44
00003897 00000096 628.78 165.46 393.68 574.27 788.54 404.73 963.30 401.49 931.62 497.95 826.90 608.55 962.54 605.48
00003898 00000097 628.66 165.08 394.40 574.19 788.56 404.80 963.83 402.10 931.34 497.97 825.78 606.77 962.77 604.10
00003899 00000098 628.64 164.74 394.96 575.43 788.68 405.71 963.02 401.32 931.08 498.71 828.46 608.19 963.21 604.02
00003900 00000099 629.25 165.17 393.11 579.29 789.28 407.92 960.82 402.22 930.54 502.38 829.66 613.22 961.09 608.01
00003901 00000100 630.92 165.40 391.01 586.40 789.93 409.87 960.04 402.49 930.61 506.27 830.95 621.25 960.34 614.65
00003902 00000101 631.30 166.19 391.17 596.00 792.08 410.36 960.30 403.44 932.81 509.01 830.06 627.12 958.76 620.95
00003903 00000102 637.27 170.43 391.45 599.48 795.06 410.50 965.12 404.96 935.44 508.89 835.88 632.31 959.96 626.31
00003904 00000103 639.79 171.87 390.29 601.82 798.99 412.23 967.07 406.66 940.30 512.14 840.66 636.36 962.07 630.55
00003905 00000104 641.82 176.00 391.27 596.27 801.31 414.14 970.19 406.43 943.43 514.86 841.90 637.27 965.32 629.78
00003906 00000105 644.17 178.38 390.68 590.56 801.13 416.39 971.73 406.54 944.71 517.94 840.78 638.03 966.29 628.95
00003907 00000106 644.17 180.58 391.07 584.80 801.53 418.14 973.13 407.30 946.18 520.16 840.31 637.33 967.86 627.56
00003908 00000107 644.34 180.50 391.38 582.46 800.78 418.92 973.81 407.99 945.72 521.40 838.46 636.53 967.63 626.85
00003909 00000108 644.07 179.14 391.79 582.62 799.97 420.15 974.04 408.90 945.11 522.17 836.70 634.93 968.78 625.12
00003910 00000109 643.55 179.95 392.28 579.97 799.16 420.43 973.62 408.69 944.25 521.16 835.93 633.92 968.69 623.72
00003911 00000110 642.32 179.47 392.84 579.47 797.88 419.09 971.73 407.60 941.78 519.42 834.68 632.60 967.50 622.53
00003912 00000111 640.56 179.03 393.55 579.09 796.98 417.46 970.93 406.43 941.13 518.16 832.57 630.24 967.24 620.49
00003913 00000112 637.96 179.33 393.82 577.29 795.41 414.85 969.94 405.98 939.27 517.29 828.83 627.16 965.41 619.24
00003914 00000113 634.72 175.22 390.57 580.55 791.21 415.94 965.68 404.30 934.06 518.13 828.23 626.65 964.64 616.72
00003915 00000114 633.67 174.12 389.11 578.93 789.45 413.50 963.32 403.40 932.54 513.94 826.85 623.11 963.45 614.42
00003916 00000115 631.01 172.42 391.25 577.95 788.36 410.24 961.45 403.52 929.39 508.73 825.31 617.95 961.22 612.14
00003917 00000116 629.17 170.95 391.59 577.29 786.67 407.41 958.38 402.39 928.02 502.68 822.81 612.83 959.57 608.65
00003918 00000117 626.67 167.77 391.72 579.20 784.82 403.22 956.24 399.20 927.67 496.89 819.72 608.35 957.30 605.15
00003919 00000118 625.25 167.02 391.94 578.63 784.25 400.31 955.31 398.08 927.34 493.05 817.79 604.90 955.96 603.21
00003920 00000119 623.10 166.54 393.95 577.62 785.71 400.83 955.38 399.87 928.24 490.39 817.58 602.01 955.07 601.50
00003921 00000120 619.41 165.41 397.54 577.01 784.79 397.94 954.42 398.54 926.44 488.29 817.39 599.68 953.29 600.15
00003922 00000121 618.68 164.29 397.62 576.08 784.13 396.09 953.69 397.83 925.24 487.31 817.48 598.68 952.42 599.85
00003923 00000122 618.13 164.10 397.78 575.27 783.86 395.30 954.14 398.06 924.36 486.18 816.02 597.08 951.89 599.26
00003924 00000123 616.36 163.60 399.72 576.07 783.47 395.08 954.46 397.96 924.42 485.62 815.14 596.43 952.01 598.75
00003925 00000124 616.39 163.71 399.69 575.80 783.43 394.86 954.20 397.70 924.21 485.55 815.17 596.25 951.86 598.54
00003926 00000125 616.99 163.45 399.10 576.62 783.78 394.41 954.15 397.69 924.43 485.16 814.86 595.91 951.69 598.66
00003927 00000126 617.52 163.38 398.19 577.22 784.17 393.65 954.57 396.71 925.36 484.72 815.16 596.59 951.79 599.21
00003928 00000127 618.25 163.24 397.86 578.95 784.58 393.39 954.68 396.57 925.57 484.34 815.25 596.65 952.18 599.39
00003929 00000128 618.86 161.82 397.82 581.99 785.06 392.07 954.52 396.09 925.71 483.61 815.37 596.45 951.82 599.81
00003930 00000129 618.93 162.13 397.99 581.85 785.41 391.62 954.51 395.69 925.91 483.04 815.65 595.99 951.83 599.37
00003931 00000130 617.90 161.99 399.21 580.45 784.84 392.36 956.12 397.17 926.27 483.94 814.84 595.52 952.64 599.53
00003932 00000131 617.42 161.83 399.82 579.14 783.67 394.07 957.12 399.43 925.55 485.73 813.14 595.20 953.81 599.52
00003933 00000132 616.69 162.47 400.14 580.68 783.08 396.73 955.48 399.44 925.17 488.40 813.94 598.36 953.29 600.41
00003934 DELETE   615.52 167.47 400.56 574.16 783.16 411.66 954.50 411.32 921.32 494.00 813.00 600.49 952.54 600.47
00003935 DELETE   613.96 168.85 398.85 571.95 782.43 416.77 957.35 417.44 919.61 498.22 810.47 603.28 951.58 604.23
00003936 00000135 611.13 170.42 401.39 566.71 779.08 417.30 957.76 414.68 919.64 500.12 810.04 606.00 952.38 604.31
00003937 00000136 613.29 169.54 400.94 564.16 776.67 412.86 953.87 406.97 917.78 498.80 814.04 604.26 955.01 599.27
00003938 00000137 613.22 166.33 402.00 565.42 776.40 406.04 950.35 400.30 916.97 490.05 820.03 601.38 953.53 596.40
00003939 00000138 612.29 165.28 403.15 561.90 775.96 398.63 949.55 393.24 915.96 484.26 819.73 598.03 950.20 593.16
00003940 00000139 611.23 164.40 402.45 561.45 776.21 395.29 949.27 390.27 916.33 483.35 819.67 596.10 949.52 591.61
00003941 00000140 611.42 163.24 403.19 565.21 775.58 395.94 949.77 390.73 915.54 487.62 819.62 598.35 949.68 593.63
00003942 00000141 614.16 165.00 400.69 571.54 776.35 399.37 949.02 392.84 916.44 494.94 818.85 605.17 949.19 599.38
00003943 00000142 615.83 167.34 398.82 573.43 776.82 401.58 951.24 395.26 919.55 498.45 818.16 609.27 952.12 603.49
00003944 00000143 616.27 167.95 399.47 570.90 779.14 400.10 951.29 394.86 920.66 496.83 819.95 605.83 952.11 600.99
00003945 00000144 618.76 165.79 398.13 568.07 779.76 397.65 951.89 392.01 920.26 492.27 823.46 601.39 953.17 595.97
00003946 00000145 619.60 164.34 398.17 569.84 780.81 395.49 952.01 390.16 921.08 488.38 825.99 600.08 953.90 594.81
00003947 00000146 621.64 162.22 397.44 577.27 782.51 393.77 951.63 389.07 921.72 488.12 828.43 603.04 953.39 598.27
00003948 00000147 622.48 163.54 397.43 580.00 783.69 396.31 952.57 391.79 924.53 490.53 829.26 607.88 954.76 603.30
00003949 00000148 624.56 165.22 394.20 578.99 784.76 400.39 953.74 394.55 926.18 495.00 830.39 610.90 956.66 605.27
00003950 00000149 625.25 167.71 394.09 574.20 785.10 401.81 955.40 396.82 927.25 495.47 829.73 610.32 957.71 605.46
00003951 00000150 625.81 167.09 394.35 572.65 784.55 400.03 959.60 396.76 929.48 491.98 825.45 604.98 962.07 601.40
00003952 00000151 625.99 165.62 395.23 571.09 785.15 397.68 960.59 394.69 930.16 489.56 827.42 603.26 962.68 599.81
00003953 00000152 626.73 164.93 393.95 574.61 784.77 396.56 960.25 394.23 929.73 488.88 825.82 603.91 962.61 601.11
00003954 00000153 626.96 165.79 393.09 578.54 784.02 396.82 960.41 395.26 929.72 490.32 820.40 606.25 959.86 604.69
00003955 00000154 626.98 167.13 391.96 580.33 783.54 398.02 958.44 395.44 929.78 493.06 819.19 608.74 958.40 606.69
00003956 00000155 627.84 166.95 391.83 582.06 783.43 399.09 957.86 395.54 929.50 493.69 817.37 608.11 958.75 605.53
00003957 00000156 628.04 167.31 392.32 580.42 783.70 398.90 959.12 396.16 929.35 493.42 815.49 605.75 959.29 603.88
00003958 00000157 629.40 167.22 391.48 577.74 784.47 397.90 959.74 395.97 929.32 491.41 815.98 603.66 959.46 602.41
00003959 00000158 629.60 166.36 392.29 577.67 784.77 398.74 960.02 396.03 929.16 491.30 817.74 603.28 960.97 601.16
00003960 00000159 628.47 166.95 393.25 577.79 784.28 400.68 960.03 396.89 929.11 493.76 815.69 603.32 961.02 600.48
00003961 00000160 629.04 167.00 393.30 576.88 784.23 401.34 960.55 397.75 928.75 494.04 815.77 603.51 961.49 600.77
00003962 00000161 628.39 166.59 393.53 576.62 783.86 401.12 960.60 397.97 928.22 493.65 814.76 602.80 960.67 600.48
00003963 00000162 627.47 166.75 393.64 574.52 784.28 399.15 960.45 397.01 928.03 492.57 815.87 601.49 959.44 599.92
00003964 00000163 627.75 165.55 393.88 574.86 784.12 398.42 959.93 396.22 927.09 492.05 816.78 600.91 959.25 599.27
00003965 00000164 627.35 165.34 393.91 575.13 784.04 398.07 959.85 396.31 927.08 491.95 816.30 600.80 958.76 599.51
00003966 00000165 626.53 166.42 394.34 574.93 783.62 398.90 959.71 397.46 927.02 492.75 815.46 601.24 958.57 600.20
00003967 00000166 626.70 166.58 394.49 574.94 783.55 398.97 959.66 397.47 926.96 492.82 815.34 601.32 958.65 600.23
00003968 00000167 626.76 166.08 394.68 574.75 783.71 398.31 959.77 397.07 926.73 492.23 815.66 600.78 958.52 599.92
00003969 00000168 628.03 164.79 394.82 575.51 784.50 397.16 960.58 395.81 926.85 491.52 816.97 600.03 959.38 598.97
00003970 00000169 627.26 165.18 395.46 576.43 784.64 397.05 959.88 395.38 927.16 491.42 817.27 600.54 958.82 599.24
00003971 00000170 628.53 164.70 393.93 578.61 785.26 398.10 960.07 396.23 928.12 491.58 816.89 601.48 959.44 600.05
