Video ID: 	-7wvcOXXzsY
H: 	1080
W: 	1920
FPS: 	25.0

FRAME INDEX X0 Y0 W H [Landmarks (5 Points)]

00002204 00000000 702.10 200.14 395.78 593.74 816.38 454.98 996.64 459.78 913.12 595.68 826.01 650.58 974.17 656.51
00002205 00000001 699.95 201.64 398.29 588.93 812.50 456.78 995.17 461.67 908.43 596.25 822.61 650.90 973.09 656.73
00002206 00000002 703.40 204.13 396.12 585.95 815.18 457.92 997.76 463.99 908.91 598.30 821.86 651.89 973.22 658.88
00002207 00000003 708.40 203.25 394.96 589.21 817.11 457.57 999.29 466.13 908.05 598.92 821.21 651.99 974.01 660.85
00002208 00000004 713.78 200.53 392.46 595.69 818.83 452.22 1002.74 466.19 906.55 599.63 820.45 652.51 975.36 665.76
00002209 00000005 718.25 201.69 389.75 598.54 821.94 452.11 1005.07 469.23 907.29 603.51 820.08 653.07 976.07 668.92
00002210 00000006 722.97 206.65 389.42 598.14 828.08 459.47 1009.95 477.55 912.93 612.64 820.59 656.56 978.55 673.40
00002211 00000007 727.85 218.36 393.57 586.63 839.82 465.33 1017.98 483.33 923.90 622.31 828.26 657.46 984.38 674.48
00002212 00000008 734.86 228.39 396.08 575.29 851.67 469.07 1028.57 487.19 937.51 624.51 836.25 655.31 994.33 672.28
00002213 00000009 739.22 228.28 398.40 576.79 867.22 470.93 1050.57 482.56 960.39 621.89 855.52 657.83 1008.12 671.71
00002214 00000010 745.06 228.32 397.71 578.24 877.11 468.03 1058.33 481.30 971.20 622.78 863.12 657.33 1014.60 672.40
00002215 00000011 746.82 226.95 399.93 578.42 882.82 472.23 1063.90 481.99 979.25 621.16 870.17 658.00 1022.85 669.67
00002216 00000012 752.38 226.83 397.16 577.19 888.19 474.10 1068.30 481.55 986.13 621.40 880.75 662.07 1027.76 671.43
00002217 00000013 758.11 224.99 399.71 578.71 894.89 473.17 1076.41 480.98 993.63 622.46 885.23 660.01 1035.77 669.78
00002218 00000014 769.98 218.40 405.03 582.93 909.07 469.14 1092.42 482.09 1004.17 623.12 892.68 657.34 1047.47 671.55
00002219 00000015 784.99 219.12 402.90 582.33 931.54 465.35 1108.78 479.79 1029.00 620.82 910.61 656.76 1061.50 671.80
00002220 DELETE   801.52 218.67 402.09 585.47 951.52 462.60 1134.24 477.03 1052.42 615.89 929.48 658.73 1074.39 675.96
00002221 00000017 809.51 218.56 404.84 581.90 969.01 471.01 1146.25 482.51 1068.57 615.90 942.50 655.42 1083.76 670.01
00002222 DELETE   813.47 210.83 410.44 588.49 992.64 462.29 1166.65 478.89 1093.29 615.64 960.16 652.24 1100.25 670.65
00002223 00000019 823.36 197.85 404.58 597.59 998.34 458.26 1176.06 475.05 1109.91 603.32 971.44 655.94 1110.56 674.11
00002224 00000020 827.11 193.40 411.41 604.07 1012.02 447.61 1190.66 468.75 1126.31 598.60 983.46 654.37 1117.10 676.08
00002225 00000021 828.59 195.37 414.64 601.86 1028.26 446.07 1204.22 455.79 1154.36 595.76 1003.22 660.72 1132.52 673.74
00002226 00000022 833.71 196.94 413.28 601.71 1042.09 450.99 1210.92 464.13 1166.49 596.25 1015.80 664.20 1137.69 680.08
00002227 00000023 836.89 200.06 415.37 603.78 1048.40 454.93 1217.40 471.40 1170.14 600.83 1019.81 667.82 1140.35 686.50
00002228 00000024 841.42 195.81 410.05 611.01 1055.45 456.25 1218.65 473.94 1174.91 602.32 1025.88 670.79 1139.98 690.37
00002229 00000025 841.77 196.52 409.61 612.93 1058.33 457.41 1218.34 474.73 1177.79 604.34 1029.78 671.34 1141.40 690.81
00002230 00000026 839.42 198.57 406.51 609.77 1059.48 458.49 1215.46 478.06 1178.17 603.90 1030.62 670.14 1139.16 691.39
00002231 00000027 838.31 199.18 400.75 610.58 1058.15 460.14 1210.76 484.61 1173.44 605.11 1024.34 666.81 1132.46 692.34
00002232 00000028 833.32 200.55 400.78 608.24 1053.01 468.06 1203.52 485.78 1170.33 608.48 1018.62 668.87 1128.98 689.31
00002233 00000029 826.59 207.22 400.56 601.96 1047.13 469.55 1197.54 488.29 1165.56 611.88 1010.58 669.93 1122.09 691.33
00002234 00000030 818.95 205.31 402.14 602.57 1039.65 469.86 1190.54 486.83 1159.23 611.50 1005.87 669.54 1117.77 689.17
00002235 00000031 813.77 203.43 402.77 602.31 1035.07 466.10 1188.72 487.18 1154.08 611.10 1002.21 669.18 1114.77 691.65
00002236 00000032 811.52 200.14 401.77 603.78 1030.98 466.69 1184.42 483.10 1150.46 610.65 1000.74 669.24 1113.85 687.79
00002237 00000033 807.24 201.31 402.26 600.35 1026.95 467.14 1178.18 482.60 1143.91 608.53 1001.58 668.54 1111.98 685.84
00002238 00000034 809.14 200.32 399.65 601.52 1034.51 468.13 1183.25 475.23 1150.49 612.50 1009.56 672.41 1118.53 681.96
00002239 00000035 804.55 203.02 400.30 599.74 1031.07 467.85 1180.29 475.06 1147.42 613.28 1008.49 675.13 1116.54 684.74
00002240 00000036 800.13 202.84 402.48 603.01 1026.74 468.85 1177.09 475.16 1144.74 615.26 1005.31 677.19 1113.93 686.15
00002241 00000037 798.08 202.95 406.17 605.33 1025.10 471.88 1175.99 475.83 1144.33 618.93 1002.73 680.18 1112.35 687.35
00002242 00000038 794.07 206.40 408.68 604.83 1021.45 472.78 1174.48 476.63 1141.70 622.06 998.89 682.83 1109.48 690.21
00002243 00000039 790.42 205.05 409.38 608.07 1018.02 473.58 1171.19 477.04 1140.34 622.75 995.13 684.09 1106.03 691.23
00002244 00000040 786.03 202.16 410.06 611.64 1013.76 473.50 1167.20 475.91 1137.90 621.61 988.91 683.73 1099.98 690.56
00002245 00000041 780.99 202.35 413.15 610.29 1009.46 471.62 1165.59 471.20 1135.03 620.59 983.94 683.37 1094.89 688.65
00002246 00000042 779.48 200.74 410.94 609.12 1004.77 468.37 1162.26 471.86 1128.65 615.57 982.61 681.84 1092.91 689.85
00002247 00000043 777.24 201.67 411.60 608.40 999.94 468.86 1161.15 471.76 1125.35 614.61 979.04 681.57 1092.98 688.97
00002248 00000044 775.36 201.36 411.89 606.76 996.31 469.69 1157.25 471.48 1121.17 614.35 974.75 680.73 1088.31 687.45
00002249 00000045 772.55 203.13 411.40 600.69 993.49 469.08 1154.75 471.21 1118.27 613.96 971.84 678.66 1085.78 685.65
00002250 00000046 768.88 202.98 409.30 597.68 988.39 466.03 1150.20 471.53 1114.33 610.34 968.47 676.74 1081.04 686.37
00002251 00000047 766.93 203.36 409.35 595.29 984.52 463.77 1146.25 470.30 1109.99 607.73 965.40 675.39 1076.98 685.81
00002252 00000048 763.52 204.30 411.52 593.83 981.51 465.10 1142.71 470.74 1107.18 608.13 963.90 675.56 1076.08 685.13
00002253 00000049 760.27 210.13 413.05 587.97 978.58 465.94 1141.60 469.91 1106.62 609.69 959.87 675.36 1075.18 683.97
00002254 00000050 757.03 208.68 413.87 588.12 976.05 466.64 1140.74 470.19 1105.84 610.53 956.91 674.67 1074.10 683.15
00002255 00000051 755.75 207.35 412.69 588.29 975.24 465.87 1138.50 468.84 1104.10 608.83 956.78 672.89 1073.68 680.84
00002256 00000052 753.76 205.95 415.66 589.09 975.42 464.75 1139.48 467.94 1103.79 606.88 956.62 671.23 1074.44 679.29
00002257 00000053 754.68 203.41 414.42 591.79 975.45 464.96 1139.77 465.18 1104.94 605.75 957.51 670.19 1077.13 675.87
00002258 00000054 755.44 200.44 415.05 594.47 975.64 463.78 1140.99 463.29 1104.89 603.96 957.44 669.48 1078.31 674.51
00002259 00000055 755.92 200.00 416.19 595.86 975.61 462.48 1141.72 462.22 1105.55 602.76 959.09 669.52 1080.94 674.43
00002260 00000056 756.42 199.75 415.23 595.12 975.70 463.64 1142.22 462.21 1106.41 603.75 958.93 670.51 1080.31 674.64
00002261 00000057 756.76 200.66 415.12 594.40 975.48 464.08 1141.97 462.20 1106.97 604.46 959.71 671.39 1080.71 675.18
00002262 00000058 757.06 200.39 414.54 595.32 973.35 466.60 1141.34 463.07 1106.41 605.36 959.95 672.51 1082.46 674.88
00002263 00000059 756.99 203.60 414.21 592.57 972.93 467.90 1140.00 462.97 1105.83 606.40 960.45 672.72 1082.77 673.96
00002264 00000060 759.58 204.61 410.42 596.17 974.10 472.75 1136.29 463.73 1102.55 610.28 964.62 681.11 1084.30 675.89
00002265 00000061 759.68 212.11 405.95 590.44 970.20 482.49 1130.64 466.06 1099.29 618.36 960.57 686.39 1079.57 675.89
00002266 00000062 742.79 239.82 425.56 570.30 969.45 492.42 1129.11 475.42 1098.83 633.25 957.60 697.37 1068.66 686.81
00002267 00000063 741.06 252.81 421.58 570.99 953.94 509.84 1121.54 491.43 1082.87 654.44 942.54 706.19 1063.70 695.48
00002268 00000064 741.94 276.85 415.56 556.89 943.70 541.92 1111.35 524.21 1062.01 682.24 929.48 735.60 1044.10 726.03
00002269 00000065 731.73 311.48 431.04 556.22 927.84 567.46 1107.51 553.95 1043.51 726.11 897.21 762.64 1019.72 759.09
00002270 00000066 720.92 347.66 430.26 542.34 906.57 605.90 1089.26 593.01 1023.58 738.52 883.21 775.63 1014.56 770.97
00002271 00000067 716.86 378.91 426.07 531.91 882.19 640.00 1084.89 626.49 1002.10 777.33 862.99 808.78 1006.24 804.66
00002272 00000068 714.72 394.93 424.42 538.00 863.25 658.05 1067.16 657.77 973.13 807.10 844.51 825.86 993.05 832.43
00002273 00000069 709.68 423.47 421.75 501.96 859.56 658.97 1051.32 660.03 965.29 818.36 836.47 817.27 992.93 822.45
00002274 00000070 704.77 398.76 423.84 523.88 854.26 651.84 1047.43 649.12 959.29 809.06 835.69 818.02 986.65 820.06
00002275 00000071 698.89 388.25 424.97 523.04 849.09 644.03 1046.26 640.57 957.14 794.80 836.15 814.30 982.73 816.24
00002276 00000072 699.23 392.08 426.54 514.14 846.65 639.05 1045.20 635.06 954.37 792.98 835.01 809.17 982.53 810.78
00002277 00000073 697.92 390.18 427.16 517.74 847.28 641.09 1047.20 638.83 954.76 795.90 831.55 810.97 980.80 814.28
00002278 00000074 695.65 386.58 428.51 531.60 847.56 647.81 1050.04 649.47 955.60 811.12 825.04 815.03 982.33 821.63
00002279 00000075 694.93 391.27 431.95 530.25 845.62 654.23 1044.88 657.33 952.31 813.78 822.72 814.26 981.82 821.45
00002280 00000076 693.86 390.29 426.02 531.86 843.74 663.27 1040.32 661.27 953.19 811.25 821.97 816.40 983.37 819.36
00002281 00000077 694.20 401.63 427.05 515.96 842.34 659.05 1038.61 657.09 950.61 810.71 823.36 812.74 982.87 815.55
00002282 00000078 693.66 409.03 427.55 500.78 844.78 650.21 1041.20 650.60 950.98 809.21 823.41 805.49 978.93 810.30
00002283 00000079 693.42 398.33 429.84 512.25 841.07 649.09 1048.04 648.41 953.25 808.43 822.81 806.76 986.12 811.09
00002284 00000080 691.99 386.71 429.63 524.05 841.55 645.56 1049.74 645.55 953.85 807.55 823.25 807.99 986.38 813.10
00002285 00000081 691.76 385.38 430.71 526.90 841.20 646.58 1049.93 646.03 954.63 808.23 823.86 808.44 987.58 813.23
00002286 00000082 692.62 389.32 428.38 521.43 841.85 644.43 1050.28 645.72 954.09 808.21 824.14 808.81 985.51 815.14
00002287 00000083 691.83 380.94 429.70 527.68 842.80 643.45 1049.06 645.58 953.47 804.23 825.20 808.95 984.33 815.78
00002288 00000084 690.79 388.84 431.44 515.28 841.23 638.56 1050.01 640.04 953.18 798.60 823.42 802.36 983.58 808.73
00002289 00000085 687.65 381.23 433.56 521.02 841.25 632.69 1048.64 635.12 952.74 790.30 821.86 796.42 979.42 804.13
00002290 00000086 687.06 375.32 431.39 525.77 841.28 631.99 1046.63 632.58 953.01 786.24 822.91 794.32 979.47 800.57
00002291 00000087 686.71 375.34 431.93 525.69 840.33 631.87 1046.65 632.74 952.24 786.78 822.84 795.11 980.15 801.47
00002292 00000088 686.51 377.65 431.49 523.96 840.39 632.35 1047.21 634.08 952.40 788.88 820.98 794.70 979.50 801.95
00002293 00000089 685.99 373.40 430.69 527.15 838.51 633.57 1045.57 631.51 952.47 786.23 821.75 793.44 981.48 797.65
00002294 00000090 686.28 372.85 426.86 529.11 839.01 630.01 1044.46 629.54 951.62 787.06 821.61 793.73 979.88 799.15
00002295 00000091 685.64 367.29 427.56 534.69 836.90 629.73 1044.54 626.89 951.28 786.14 822.93 792.89 984.45 796.27
00002296 00000092 685.69 370.86 426.44 531.80 837.90 631.99 1043.23 628.39 951.59 787.11 823.36 794.70 981.12 797.73
00002297 00000093 684.96 376.88 428.84 529.45 838.54 633.19 1042.47 631.04 950.33 789.85 819.39 797.91 974.95 802.48
00002298 00000094 685.46 381.04 428.75 527.29 838.59 633.41 1042.50 632.91 949.87 792.77 818.85 799.15 974.42 804.99
00002299 00000095 685.22 375.76 429.43 532.96 838.90 633.41 1042.92 632.16 950.66 791.49 819.55 799.80 975.43 804.92
00002300 00000096 685.94 372.67 427.82 534.44 838.57 631.24 1044.16 628.95 951.42 789.80 820.93 797.29 979.65 801.68
00002301 00000097 684.93 360.78 432.23 543.74 837.69 630.37 1047.59 626.07 954.23 786.47 823.35 795.21 987.88 797.44
00002302 00000098 685.76 364.11 432.34 539.26 838.42 628.90 1050.14 624.80 956.29 788.07 821.47 792.08 991.14 794.66
00002303 00000099 687.54 364.58 432.66 537.79 839.53 629.06 1051.56 626.94 956.57 789.10 821.62 789.89 993.01 793.88
00002304 00000100 689.76 370.56 433.16 529.47 841.50 627.61 1052.61 628.53 956.30 789.97 823.47 790.37 991.96 796.73
00002305 00000101 691.30 372.29 438.84 526.78 842.41 630.49 1055.40 629.36 957.87 790.21 827.99 794.15 995.56 798.38
00002306 00000102 693.61 377.62 440.90 520.88 842.78 630.12 1056.75 628.72 958.39 791.35 830.77 794.37 998.99 797.88
00002307 00000103 698.03 377.17 438.63 519.31 846.37 628.53 1056.59 630.04 957.93 789.97 835.12 792.07 999.39 797.46
00002308 00000104 701.73 371.28 438.90 524.34 849.28 629.45 1058.85 629.39 960.56 792.75 840.17 794.19 1004.80 798.24
00002309 00000105 705.97 360.93 436.61 534.74 851.76 633.29 1058.23 630.53 962.24 792.56 846.03 795.13 1011.09 797.04
00002310 00000106 709.52 359.09 437.76 542.44 856.11 635.77 1060.92 634.46 965.03 793.27 847.82 797.53 1014.42 800.16
00002311 00000107 717.23 364.56 437.59 542.05 859.25 629.83 1077.71 633.46 971.02 790.57 846.79 799.37 1011.12 808.24
00002312 00000108 721.74 367.78 442.35 543.74 864.69 630.60 1083.89 634.02 976.28 793.26 849.00 799.65 1017.08 808.54
00002313 00000109 724.38 370.90 448.32 540.19 872.61 629.71 1093.73 633.47 984.97 794.23 853.51 800.08 1021.68 809.30
00002314 00000110 728.67 372.20 447.98 538.59 879.53 630.13 1099.15 632.41 992.14 792.70 860.06 800.61 1027.65 808.78
00002315 00000111 736.16 386.96 440.76 521.72 885.04 631.00 1101.70 634.38 996.45 793.62 865.75 797.37 1033.99 806.29
00002316 00000112 742.43 384.04 440.62 528.84 896.12 633.95 1110.15 636.67 1008.99 799.33 874.43 801.23 1042.55 809.48
00002317 00000113 746.36 384.47 440.51 531.82 904.12 634.97 1117.06 640.77 1016.62 806.06 874.45 801.11 1042.50 812.65
00002318 00000114 751.69 378.61 446.15 537.77 910.14 633.51 1122.17 640.49 1021.00 804.27 880.39 803.08 1044.58 815.25
00002319 00000115 754.66 380.93 453.22 534.89 915.65 633.37 1127.79 639.50 1026.30 805.24 886.57 805.85 1047.63 817.17
00002320 00000116 757.44 382.84 451.16 532.00 919.11 634.37 1130.03 637.82 1029.93 807.08 889.24 805.50 1049.44 814.69
00002321 00000117 760.57 383.26 449.55 532.08 919.61 637.18 1131.38 637.89 1032.12 807.46 893.28 806.67 1055.09 813.45
00002322 00000118 762.33 381.09 448.36 532.83 921.26 638.65 1130.76 639.26 1031.90 803.93 896.66 810.10 1054.53 816.37
00002323 00000119 762.33 379.97 449.34 534.13 921.66 638.45 1130.69 639.83 1031.62 804.02 897.26 810.98 1054.15 817.79
00002324 00000120 762.11 380.60 449.68 533.17 920.92 637.87 1130.20 637.78 1031.19 803.57 896.22 809.90 1053.72 815.68
00002325 00000121 760.05 377.89 451.01 537.82 920.05 634.92 1130.90 635.67 1031.21 804.40 893.72 807.47 1053.78 814.37
00002326 00000122 759.12 379.02 451.67 538.04 920.19 633.77 1131.32 636.23 1030.60 806.62 891.15 807.42 1051.00 815.93
00002327 00000123 758.33 378.48 452.58 539.07 919.48 633.73 1131.72 636.66 1030.37 807.67 889.75 807.57 1051.00 816.59
00002328 00000124 757.25 376.97 453.37 541.85 919.63 633.52 1131.41 637.81 1029.53 807.84 888.57 808.89 1048.06 819.03
00002329 00000125 754.79 374.21 454.55 544.56 917.98 634.26 1130.21 639.39 1028.12 807.99 887.05 810.33 1046.51 821.22
00002330 00000126 750.25 375.68 453.00 543.80 910.80 631.74 1125.18 639.62 1020.91 807.69 878.54 805.80 1043.84 819.14
00002331 00000127 745.73 379.13 444.81 537.52 905.17 632.34 1118.63 637.53 1017.20 804.35 875.24 803.09 1041.42 814.33
00002332 00000128 741.64 374.99 440.49 542.34 900.87 632.29 1115.44 636.06 1014.85 804.04 873.18 801.94 1043.35 811.74
00002333 00000129 738.79 375.72 443.41 541.19 895.70 632.26 1111.32 636.28 1009.07 801.12 869.89 801.26 1042.39 811.04
00002334 00000130 738.38 377.69 445.53 541.16 894.04 630.89 1110.97 636.46 1007.12 803.48 866.95 801.46 1042.06 812.64
00002335 00000131 739.37 379.61 445.00 540.69 895.39 631.30 1111.85 637.82 1008.64 806.44 866.72 800.79 1043.39 812.92
00002336 00000132 740.45 380.02 444.86 538.63 898.84 633.08 1113.42 640.11 1011.52 807.92 868.22 800.37 1042.13 812.85
00002337 00000133 741.94 380.75 443.74 542.24 901.60 635.26 1114.58 643.49 1013.49 813.56 866.37 802.92 1041.15 816.58
00002338 00000134 743.80 379.34 441.52 544.08 901.42 637.01 1115.86 644.06 1015.16 814.91 867.79 803.82 1045.89 816.35
00002339 00000135 743.80 378.69 442.10 544.67 902.59 636.97 1115.34 644.23 1015.83 814.36 869.36 803.90 1043.97 816.61
00002340 00000136 744.93 381.80 444.26 541.55 903.80 635.83 1119.76 644.36 1018.09 815.00 867.70 803.38 1046.08 817.33
00002341 00000137 745.82 381.32 448.30 543.79 905.96 637.17 1125.05 646.19 1021.88 817.81 866.03 804.68 1047.49 819.18
00002342 00000138 746.96 376.71 454.28 549.71 910.61 637.02 1128.14 647.87 1023.77 818.61 869.23 807.86 1045.54 823.83
00002343 00000139 751.47 379.69 452.87 547.46 913.55 636.58 1131.40 646.46 1026.74 820.15 874.80 808.71 1050.61 823.67
00002344 00000140 755.97 380.59 453.80 545.50 915.75 637.93 1131.66 644.76 1027.86 819.39 884.34 812.06 1052.72 823.87
00002345 00000141 758.65 379.73 455.28 541.56 918.42 639.87 1135.28 645.23 1032.06 817.91 888.41 811.06 1059.44 821.24
00002346 00000142 760.06 367.11 454.49 555.64 923.85 641.61 1135.90 644.25 1035.26 816.57 896.04 816.42 1061.94 824.23
00002347 00000143 763.30 366.77 455.81 557.15 928.80 641.48 1135.42 646.50 1035.24 816.69 901.25 814.41 1063.40 823.32
00002348 00000144 766.97 364.30 455.82 563.72 933.22 641.66 1140.04 647.31 1039.57 820.75 901.35 813.66 1069.58 822.87
00002349 00000145 778.55 369.35 453.35 562.69 935.07 636.23 1159.76 646.64 1050.29 816.36 903.82 808.90 1081.31 825.31
00002350 00000146 782.33 378.62 453.77 553.34 938.13 634.25 1166.90 643.57 1057.57 818.31 908.08 806.39 1092.17 822.17
00002351 00000147 785.52 386.43 448.58 542.77 939.08 635.92 1164.17 640.27 1059.03 815.90 913.65 807.27 1091.79 819.16
00002352 00000148 786.15 374.20 450.21 555.43 938.25 632.84 1164.66 636.63 1057.03 811.86 913.00 808.27 1090.72 819.59
00002353 00000149 784.09 369.38 452.18 557.97 937.63 629.29 1165.44 633.24 1056.34 808.45 911.33 805.28 1089.33 816.66
00002354 00000150 782.33 357.38 455.34 568.13 938.89 627.75 1166.06 629.96 1056.44 804.91 912.70 806.01 1088.90 815.43
00002355 00000151 780.21 351.83 453.91 574.19 940.75 629.05 1165.71 630.40 1058.91 806.09 913.47 809.58 1083.52 818.69
00002356 00000152 783.75 367.51 454.79 559.91 948.94 627.42 1173.09 631.87 1066.44 810.51 914.53 808.05 1087.56 820.68
00002357 00000153 784.71 360.04 456.38 565.55 958.17 633.32 1178.38 629.22 1081.46 804.74 923.58 812.22 1094.28 817.74
00002358 00000154 785.41 366.11 456.10 558.70 963.07 632.91 1181.39 628.73 1088.13 805.69 927.75 810.98 1096.71 816.69
00002359 00000155 781.87 363.72 461.87 558.80 957.21 631.02 1178.20 625.90 1082.94 803.30 924.88 810.65 1094.40 815.74
00002360 00000156 772.50 358.50 458.68 564.88 942.89 625.56 1168.87 625.29 1066.01 805.27 912.82 810.76 1080.24 819.34
00002361 00000157 760.03 365.76 453.84 561.87 931.17 636.66 1140.22 634.46 1047.69 813.45 900.61 810.98 1069.39 815.16
00002362 00000158 753.33 357.80 458.35 569.97 924.37 635.84 1133.82 638.89 1034.54 811.80 890.22 813.23 1053.32 822.47
00002363 00000159 746.38 360.72 463.62 573.33 914.24 635.87 1137.26 642.39 1032.15 821.07 871.44 809.82 1056.40 822.45
00002364 00000160 748.90 374.06 457.06 561.88 908.88 638.72 1132.08 648.67 1025.91 826.99 865.88 807.74 1059.28 822.65
00002365 00000161 746.38 372.70 456.64 564.96 907.56 639.85 1129.05 649.21 1024.80 826.79 865.23 810.09 1055.98 824.66
00002366 00000162 743.80 363.05 461.21 575.70 910.55 640.52 1131.12 650.19 1027.03 827.37 867.40 813.84 1053.09 828.51
00002367 00000163 744.50 369.10 460.44 570.56 912.29 641.96 1134.38 646.07 1032.57 826.68 871.70 818.94 1053.64 829.50
00002368 00000164 743.39 358.51 459.63 579.17 916.68 643.16 1135.96 643.04 1037.95 822.95 882.32 823.73 1056.73 830.15
00002369 00000165 743.87 363.01 461.13 576.78 924.27 645.44 1137.14 640.25 1045.32 822.83 888.13 827.45 1055.25 830.01
00002370 00000166 745.86 361.14 457.44 578.58 926.97 644.84 1137.01 637.21 1048.32 822.73 890.12 827.46 1054.90 828.60
