Video ID: 	y1TEj8cBBII
H: 	1080
W: 	1920
FPS: 	23.976023976023978

FRAME INDEX X0 Y0 W H [Landmarks (5 Points)]

00057586 00000000 512.89 148.83 416.77 641.45 629.47 385.08 831.98 377.11 744.95 509.09 659.78 625.98 824.93 618.38
00057587 DELETE   520.85 139.59 416.15 642.48 634.31 375.74 835.69 374.41 749.98 502.06 658.26 614.54 824.18 612.97
00057588 00000002 521.60 138.72 416.16 637.48 636.95 366.15 840.18 365.34 756.15 495.42 660.80 609.39 827.11 608.13
00057589 00000003 522.35 140.91 416.32 631.74 638.68 363.29 840.62 363.61 756.26 492.67 663.03 606.42 825.06 606.22
00057590 00000004 523.31 139.56 415.99 628.54 640.12 361.62 840.50 362.76 757.10 490.01 663.72 603.10 823.98 603.60
00057591 00000005 524.96 137.77 413.79 628.66 641.61 360.36 840.60 362.00 756.78 487.71 665.91 602.64 823.98 603.48
00057592 00000006 526.67 138.06 411.68 622.92 641.48 359.34 841.07 360.32 756.76 485.22 666.95 601.56 823.05 601.94
00057593 00000007 528.71 139.32 409.30 618.08 641.87 358.01 841.70 359.25 755.52 482.87 666.57 599.98 823.24 600.48
00057594 00000008 530.29 139.20 408.36 616.82 641.90 356.07 843.31 356.97 755.99 481.89 668.15 600.22 822.44 600.47
00057595 00000009 529.95 138.16 409.50 616.47 642.71 355.80 843.34 357.06 756.89 481.51 668.23 599.71 821.55 600.29
00057596 00000010 531.23 139.65 407.62 615.16 643.30 354.95 844.04 357.23 756.01 481.11 665.70 599.16 821.93 600.62
00057597 00000011 532.65 138.40 406.88 617.21 642.18 355.70 844.17 356.81 754.96 481.01 665.35 601.19 822.41 601.65
00057598 00000012 532.28 140.38 406.76 614.29 642.32 355.05 844.27 356.67 754.78 480.60 665.26 601.12 821.92 602.00
00057599 00000013 532.63 140.98 406.87 614.73 642.47 354.74 844.39 355.86 755.20 480.39 666.23 601.48 822.88 601.88
00057600 00000014 533.21 140.02 406.95 616.30 641.72 355.33 843.00 355.46 754.13 480.53 666.89 601.96 823.15 601.52
00057601 00000015 533.90 140.04 406.43 617.34 642.06 355.25 843.58 355.32 754.11 479.62 667.34 602.45 823.91 601.97
00057602 00000016 533.98 139.10 405.64 617.32 641.10 355.80 842.50 355.63 752.54 479.62 667.65 603.21 822.58 602.63
00057603 00000017 533.84 139.22 405.83 615.75 641.91 355.64 842.46 355.95 752.53 478.82 669.29 602.05 820.48 601.98
00057604 00000018 533.68 139.06 405.56 614.38 641.72 356.29 842.27 357.18 751.50 478.54 669.46 601.06 819.01 601.54
00057605 00000019 531.91 139.90 407.14 612.04 641.19 356.10 842.75 358.27 751.91 477.78 667.40 599.19 818.28 600.72
00057606 00000020 531.77 141.27 407.45 608.76 641.70 355.05 842.35 357.77 751.36 477.04 668.19 596.28 818.87 598.19
00057607 00000021 532.66 140.14 406.99 608.89 641.43 354.73 842.34 357.38 750.88 476.35 668.00 594.50 819.22 596.34
00057608 00000022 533.24 138.53 406.67 609.29 643.39 355.66 843.22 359.75 751.59 475.56 667.84 591.30 820.01 594.48
00057609 00000023 533.91 138.07 407.30 609.54 643.72 355.71 842.27 360.09 751.10 474.84 667.95 589.63 819.18 593.15
00057610 00000024 534.33 138.07 405.99 607.70 644.03 355.57 842.82 360.84 750.50 475.41 667.12 589.28 818.67 593.60
00057611 00000025 533.18 139.00 407.08 606.22 643.44 355.56 842.77 360.41 750.64 475.02 667.23 588.76 819.05 592.65
00057612 00000026 533.35 139.87 406.81 604.70 643.48 355.21 843.25 360.72 750.12 475.03 666.87 588.63 819.23 593.05
00057613 00000027 534.44 140.22 405.85 603.72 643.97 355.21 843.24 360.19 750.31 474.73 668.02 588.37 819.63 592.38
00057614 00000028 534.10 139.64 405.68 604.26 643.69 355.64 842.74 360.84 750.22 475.07 667.67 589.08 818.39 593.27
00057615 00000029 533.93 141.62 407.28 604.65 644.08 354.13 841.63 359.87 750.71 474.69 668.27 587.97 816.32 592.58
00057616 00000030 533.02 142.13 406.83 605.95 643.92 354.02 840.79 359.57 750.25 474.50 667.32 590.25 815.81 594.68
00057617 00000031 532.59 139.73 408.66 611.25 643.93 354.01 840.96 359.26 751.84 473.89 667.24 590.07 816.45 594.17
00057618 00000032 534.76 138.75 405.97 610.23 644.37 353.18 841.44 358.26 751.25 472.93 667.55 587.75 817.51 591.68
00057619 00000033 534.33 136.19 408.88 614.12 645.55 365.74 839.61 369.54 753.13 470.98 666.82 587.39 823.03 590.07
00057620 00000034 534.68 136.80 407.45 613.93 645.56 364.92 839.04 369.12 751.36 469.04 664.50 588.87 821.04 591.89
00057621 00000035 535.19 138.27 406.99 614.12 643.50 360.36 841.71 361.74 751.93 467.79 664.23 591.27 824.94 591.99
00057622 00000036 533.47 140.40 405.95 608.47 642.30 357.21 841.30 359.04 751.34 468.02 663.16 588.94 823.86 590.21
00057623 00000037 532.89 140.66 405.08 608.17 641.90 352.89 840.99 356.57 748.40 466.72 661.88 587.01 821.72 589.66
00057624 00000038 530.08 140.58 406.26 609.42 640.12 352.44 839.21 356.22 746.60 466.04 660.07 587.91 820.89 590.38
00057625 00000039 529.11 139.26 409.93 607.82 638.16 351.82 837.83 356.91 743.85 468.32 659.17 582.36 819.32 585.78
00057626 00000040 521.21 136.08 419.23 607.26 632.87 355.97 832.78 353.58 737.16 469.57 653.16 582.99 817.44 579.37
00057627 00000041 520.65 139.51 419.52 604.10 634.63 355.84 831.82 354.67 735.10 468.16 652.77 582.77 812.67 580.15
00057628 00000042 520.58 137.90 419.64 604.03 633.52 358.70 833.33 355.80 738.21 467.59 653.07 583.03 818.00 579.22
00057629 00000043 527.38 140.59 411.70 604.14 641.28 352.36 838.59 359.45 747.29 467.45 661.34 579.14 817.97 584.57
00057630 00000044 528.52 140.37 410.68 605.87 643.14 351.60 841.24 359.19 749.33 469.15 665.58 582.02 816.50 588.13
00057631 00000045 530.46 142.86 409.51 603.16 645.05 354.23 846.12 360.00 755.35 472.23 667.08 585.07 825.23 589.51
00057632 00000046 533.77 142.56 410.25 606.55 647.28 364.43 847.94 367.89 761.90 474.35 667.36 587.39 834.24 589.64
00057633 00000047 537.21 140.21 407.01 613.17 657.42 375.45 852.96 380.40 770.98 474.50 674.39 588.07 844.70 591.68
00057634 DELETE   538.45 141.02 411.77 612.48 663.66 380.13 861.62 385.60 782.89 478.52 683.30 589.58 853.81 593.66
00057635 00000049 542.11 140.78 412.80 614.35 669.57 379.40 870.49 382.69 792.73 480.51 692.37 593.01 861.23 594.55
00057636 00000050 543.55 140.68 413.56 618.98 674.68 381.60 873.97 380.54 801.75 486.27 705.06 600.11 868.24 597.75
00057637 00000051 542.69 142.22 416.13 621.20 675.24 381.16 875.72 377.62 805.55 490.06 708.42 604.77 871.55 600.26
00057638 00000052 542.94 140.34 415.76 623.19 677.26 379.66 877.96 377.08 808.48 490.24 708.58 604.23 871.53 600.51
00057639 00000053 543.82 139.56 415.76 626.11 677.27 377.77 877.37 376.64 808.03 490.94 707.60 606.41 869.31 604.06
00057640 00000054 544.03 144.57 416.24 620.55 675.90 377.87 878.05 377.98 806.12 491.69 705.45 607.32 869.60 606.02
00057641 00000055 543.40 144.42 417.70 616.69 674.51 377.68 877.32 377.93 803.59 491.13 704.58 604.92 868.30 603.69
00057642 00000056 544.16 143.04 417.08 619.28 671.87 376.11 875.05 374.71 801.13 491.02 703.91 606.14 867.23 603.51
00057643 00000057 543.97 143.59 414.89 618.38 669.65 373.14 872.36 373.59 798.46 487.93 701.18 606.23 862.10 605.37
00057644 00000058 543.61 143.90 413.87 617.03 667.61 371.25 872.61 372.35 795.49 486.79 698.09 606.76 860.12 606.72
00057645 00000059 541.30 146.62 414.64 613.20 663.22 369.04 871.17 370.99 790.82 484.14 690.38 603.81 858.94 604.49
00057646 00000060 540.20 147.93 416.12 613.33 660.43 369.94 869.41 371.01 787.62 483.90 686.35 603.53 860.04 603.42
00057647 00000061 538.22 148.03 418.53 620.82 658.48 370.34 865.39 371.19 786.02 484.07 682.86 604.90 858.44 604.67
00057648 00000062 536.86 144.46 420.96 630.04 657.41 371.33 865.18 373.01 784.65 485.55 678.24 606.45 856.54 606.95
00057649 00000063 536.48 142.91 421.63 632.81 658.17 378.07 864.02 381.56 781.64 486.64 674.83 604.83 855.21 607.43
00057650 00000064 536.76 142.89 420.49 631.03 656.27 378.64 862.52 382.70 777.07 485.74 672.86 604.05 854.11 606.93
00057651 00000065 535.80 145.05 419.67 622.45 653.58 378.25 859.72 380.85 774.64 486.04 673.43 603.22 851.05 604.55
00057652 00000066 537.90 146.26 417.36 613.02 652.98 378.87 860.09 381.86 772.09 485.80 675.42 600.60 849.09 602.48
00057653 00000067 538.00 146.03 417.26 612.44 651.65 378.09 855.76 380.34 769.00 486.52 673.38 597.83 845.34 599.38
00057654 00000068 538.26 143.49 414.26 612.36 653.37 381.33 852.86 386.93 767.14 485.36 671.81 593.77 842.86 597.81
00057655 00000069 538.41 141.77 410.37 613.23 653.60 382.73 849.10 388.82 765.02 484.56 670.72 592.34 841.33 596.92
00057656 00000070 536.19 143.63 414.10 610.94 649.28 379.71 850.21 382.72 763.31 483.84 669.91 593.89 841.75 595.69
00057657 00000071 535.53 143.18 412.24 609.21 647.55 376.66 847.12 378.42 761.55 484.23 668.16 592.83 838.79 593.57
00057658 00000072 533.94 143.09 412.42 608.31 645.74 378.18 845.12 378.46 760.79 484.76 665.99 592.21 840.47 591.71
00057659 00000073 531.84 144.60 413.19 606.66 645.03 377.77 845.01 378.69 760.14 484.53 663.53 590.07 841.58 590.04
00057660 00000074 521.48 138.90 421.88 607.57 639.33 381.92 841.80 373.60 755.29 488.23 663.30 586.73 839.10 580.87
00057661 00000075 521.36 142.32 417.68 607.37 637.14 379.45 838.23 373.58 750.99 489.76 656.67 592.58 833.83 587.48
00057662 00000076 518.26 146.46 419.52 602.62 635.01 377.03 838.15 372.25 749.17 489.61 654.48 592.99 832.05 588.63
00057663 00000077 516.19 147.77 420.80 601.80 633.80 375.67 837.39 371.64 747.92 488.79 653.73 592.72 830.45 588.68
00057664 00000078 515.48 144.77 418.61 601.77 631.15 377.13 835.36 372.16 744.45 487.63 652.73 594.67 827.40 589.98
00057665 00000079 514.73 143.50 418.75 604.18 630.50 376.43 833.85 371.99 743.18 487.82 652.38 595.55 824.45 591.50
00057666 00000080 513.28 143.55 419.06 605.02 629.21 375.29 832.16 371.11 741.15 488.25 652.42 597.05 821.35 592.98
00057667 00000081 511.37 143.06 420.20 609.64 628.12 375.41 829.65 370.62 739.06 486.97 652.99 599.43 818.08 594.41
00057668 00000082 510.81 146.39 418.75 607.59 628.93 373.61 828.91 369.36 740.38 486.67 651.81 599.36 815.07 594.86
00057669 00000083 510.54 146.94 416.75 605.64 628.07 372.14 828.97 368.41 739.57 486.43 650.66 598.96 814.19 594.95
00057670 00000084 510.35 144.69 416.57 608.06 627.40 372.40 827.98 368.65 739.36 486.24 649.46 598.38 814.30 594.48
00057671 00000085 510.03 145.28 416.07 607.70 626.08 372.50 826.56 368.25 737.61 484.96 648.85 598.26 814.22 593.81
00057672 00000086 509.78 145.90 415.48 607.44 625.68 372.00 826.08 367.96 737.67 484.42 648.42 597.80 814.53 593.58
00057673 00000087 510.98 144.84 414.03 607.99 625.43 371.56 825.99 366.72 736.93 483.49 648.15 597.54 814.77 592.77
00057674 00000088 511.78 146.01 412.68 606.63 626.61 370.55 826.59 366.79 737.91 482.11 648.61 596.05 815.50 592.32
00057675 00000089 512.12 144.65 413.79 607.57 626.59 369.84 826.88 365.90 737.09 481.60 648.70 595.55 815.50 591.58
00057676 00000090 511.91 144.61 414.18 608.69 627.59 369.47 827.05 365.13 738.45 481.23 649.81 595.26 816.21 590.89
00057677 00000091 512.58 144.32 414.03 607.52 627.78 369.27 827.66 364.77 738.20 480.98 649.57 594.56 816.81 590.13
00057678 00000092 512.78 143.87 415.02 608.88 627.86 368.67 827.94 364.46 738.16 480.16 649.11 594.23 816.83 589.94
00057679 00000093 513.31 145.34 414.19 607.91 627.43 368.16 828.72 363.02 737.90 478.78 649.59 594.74 817.64 589.70
00057680 00000094 512.52 145.76 414.83 608.08 627.18 367.77 828.37 363.24 738.00 478.79 649.02 594.27 817.74 589.76
00057681 00000095 512.21 145.68 415.32 609.10 627.41 367.67 828.43 363.45 737.90 478.58 649.16 594.52 817.20 590.22
00057682 00000096 512.85 145.06 415.16 608.81 627.75 367.49 828.44 363.59 737.53 478.95 649.44 595.09 816.29 591.10
00057683 00000097 514.21 143.51 413.44 610.06 627.69 368.80 827.97 364.35 736.26 479.73 649.30 595.55 816.46 591.17
00057684 00000098 513.23 145.04 415.18 609.57 627.68 368.77 828.33 364.58 736.61 480.32 649.92 596.25 816.47 591.93
00057685 00000099 513.76 145.18 414.89 609.76 628.27 368.58 828.62 364.92 737.03 481.11 649.94 596.13 816.37 592.25
00057686 00000100 514.78 145.27 414.44 610.17 629.26 368.38 829.77 364.93 737.87 480.76 650.16 596.11 817.36 592.47
00057687 00000101 515.34 145.26 415.13 611.65 629.92 369.14 830.35 365.27 738.74 480.94 651.33 596.93 818.60 592.79
00057688 00000102 515.59 144.77 414.76 612.07 629.73 369.19 830.33 364.88 738.31 480.67 651.25 597.05 818.71 592.50
00057689 00000103 515.16 144.03 415.07 611.58 630.18 368.50 829.71 364.61 738.28 479.20 652.24 596.48 817.46 592.17
00057690 00000104 515.88 144.15 414.16 611.01 630.48 367.98 829.85 364.38 738.40 478.25 652.01 596.05 817.53 592.07
00057691 00000105 517.52 142.39 414.03 613.91 631.37 367.72 830.72 364.39 738.33 478.49 651.88 595.87 817.72 592.29
00057692 00000106 517.42 144.41 414.07 611.08 631.71 367.23 831.99 363.90 739.53 478.19 652.36 595.50 819.20 591.84
00057693 00000107 520.17 142.16 414.97 613.45 634.17 366.33 831.36 369.47 744.08 476.15 654.26 592.77 819.86 594.49
00057694 00000108 519.07 136.78 413.54 616.11 633.65 375.76 831.20 373.90 741.13 479.68 652.61 595.60 818.64 594.29
00057695 00000109 519.35 132.31 418.66 615.67 634.49 369.81 832.08 370.26 743.56 476.55 660.31 587.56 821.46 589.64
00057696 00000110 517.85 135.19 418.09 607.09 633.51 370.40 832.90 365.63 743.56 476.53 655.38 588.95 822.75 584.66
00057697 00000111 518.70 135.58 416.72 603.65 633.39 366.01 833.29 359.05 744.73 473.52 657.56 587.40 823.70 580.98
00057698 00000112 519.87 137.92 416.12 601.13 633.45 362.36 833.79 355.72 743.79 471.31 657.80 586.41 822.37 579.91
00057699 00000113 519.09 135.52 416.41 599.36 632.07 360.67 833.22 354.52 741.21 469.82 656.35 585.16 818.95 578.91
00057700 00000114 519.43 136.88 414.90 600.21 631.08 359.46 833.36 355.00 738.27 469.46 652.95 585.41 817.25 580.40
00057701 00000115 516.59 137.41 415.36 611.19 628.72 359.51 831.35 356.93 733.93 470.21 647.73 590.25 813.32 586.86
00057702 00000116 513.08 138.22 413.01 608.46 622.32 358.91 823.63 356.79 723.90 471.37 642.94 591.73 803.57 588.66
00057703 00000117 511.16 139.06 413.06 603.87 617.09 357.37 815.71 357.15 712.53 471.42 636.59 586.53 794.19 584.63
00057704 00000118 509.91 137.06 415.71 603.43 612.09 355.06 811.22 354.76 704.95 468.68 632.94 582.19 790.28 579.90
00057705 00000119 510.65 138.60 415.06 604.86 616.39 352.85 812.63 353.68 709.06 467.17 636.29 583.01 786.52 582.21
00057706 00000120 513.52 132.62 415.16 610.45 621.55 354.98 821.86 354.28 720.59 469.55 642.99 585.67 800.61 583.28
00057707 DELETE   519.22 133.89 416.63 610.48 630.72 356.56 832.65 354.30 736.46 469.59 652.10 584.93 815.94 581.52
00057708 00000122 526.60 138.03 409.46 611.76 641.54 351.06 839.61 356.76 749.23 467.58 664.78 585.17 816.76 589.41
00057709 00000123 531.11 141.50 408.55 601.55 645.78 349.72 842.81 356.81 753.71 467.74 667.28 581.41 820.05 587.01
00057710 00000124 531.52 143.40 409.78 597.36 646.05 349.31 841.87 357.21 753.42 466.74 667.14 578.27 818.73 584.59
00057711 00000125 530.43 140.70 409.60 600.29 644.94 350.40 839.37 360.08 749.22 467.63 662.92 576.10 814.91 583.88
00057712 00000126 529.16 141.28 409.70 600.38 643.27 350.69 837.56 360.68 746.19 467.79 660.38 576.90 811.60 584.91
00057713 00000127 529.32 138.60 410.16 608.45 644.03 348.25 838.08 358.73 745.91 467.96 662.69 581.65 806.33 590.36
00057714 00000128 531.96 138.30 408.02 610.99 644.89 348.79 840.30 357.16 748.39 468.51 663.96 584.95 810.76 591.72
00057715 00000129 533.75 138.90 407.80 609.90 645.47 350.79 842.89 357.99 750.73 468.85 663.97 584.27 820.63 589.86
00057716 00000130 533.41 139.04 407.66 609.50 645.83 349.82 842.47 358.57 750.66 468.91 662.04 583.45 818.64 590.40
00057717 00000131 534.27 139.94 408.27 608.06 646.38 347.75 842.16 357.17 749.61 468.48 664.19 582.05 812.87 589.80
00057718 00000132 534.27 141.21 409.06 608.18 645.48 348.28 843.36 357.32 748.31 470.05 662.03 584.69 813.56 592.02
00057719 00000133 534.30 143.27 410.73 603.42 645.81 350.07 845.52 358.54 750.93 470.55 662.43 586.12 817.13 592.91
00057720 00000134 535.30 144.98 413.49 604.07 647.99 348.68 848.45 356.45 754.81 471.12 667.67 586.91 820.09 592.96
00057721 00000135 535.36 146.69 413.44 603.83 648.58 349.73 850.00 356.04 757.99 471.06 668.88 590.00 824.54 594.68
00057722 00000136 536.75 145.61 412.23 606.09 648.89 348.66 851.43 354.73 758.96 471.18 669.47 590.67 826.95 595.00
00057723 00000137 539.08 142.87 410.95 610.90 648.02 358.55 851.08 362.26 760.00 471.41 668.47 593.03 833.15 595.39
00057724 00000138 537.43 138.78 409.55 614.23 650.21 365.25 848.79 368.97 761.38 470.06 668.41 591.87 834.65 594.09
00057725 00000139 538.04 140.92 409.16 609.86 648.23 361.70 849.46 364.91 760.33 470.78 667.70 591.59 831.92 593.66
00057726 00000140 536.02 143.00 410.49 603.60 647.01 360.39 847.82 363.96 760.46 472.16 667.02 588.06 830.62 590.62
00057727 00000141 535.35 145.29 410.00 598.49 647.14 355.75 846.32 360.37 758.88 471.26 666.54 584.80 826.73 588.41
00057728 00000142 531.17 143.11 410.94 600.34 645.88 355.13 843.09 362.32 755.25 471.68 664.18 582.25 821.71 588.05
00057729 00000143 527.92 141.21 411.60 605.71 642.77 356.76 842.22 363.15 752.88 473.73 660.96 586.84 820.58 591.83
00057730 00000144 527.73 141.18 410.27 606.38 641.36 358.79 840.67 363.63 750.68 476.15 662.65 590.21 818.44 594.02
00057731 00000145 526.03 143.26 410.79 605.67 640.53 359.01 839.72 364.58 748.85 477.63 662.54 591.98 816.63 596.46
00057732 00000146 525.20 141.30 410.53 608.17 640.05 359.53 838.74 364.97 748.82 478.19 662.37 591.99 816.32 596.32
00057733 00000147 525.21 140.02 410.54 609.39 639.57 359.67 839.77 365.07 749.16 478.81 662.34 592.28 817.29 596.46
00057734 00000148 520.47 139.76 413.61 605.87 636.92 366.33 836.67 362.21 748.21 480.05 660.75 594.39 822.42 590.24
00057735 00000149 526.13 141.52 409.50 606.72 640.23 360.07 840.62 365.92 749.52 480.54 662.61 593.03 817.87 597.64
00057736 00000150 526.28 141.98 410.76 607.82 639.94 361.90 840.70 367.08 749.49 482.22 663.45 594.78 819.41 598.78
00057737 00000151 527.62 143.37 411.83 608.75 640.18 362.81 839.63 367.19 750.24 483.13 663.22 595.50 817.92 598.98
00057738 00000152 530.20 144.63 410.60 607.88 641.36 362.81 840.42 367.00 751.48 483.82 664.97 595.87 817.85 599.27
00057739 00000153 532.19 144.30 411.51 611.21 642.42 360.40 839.65 364.51 751.63 483.07 666.65 596.21 815.17 599.54
00057740 00000154 530.57 143.32 413.65 613.85 642.73 358.78 838.64 362.37 752.29 480.94 668.49 596.59 813.61 599.46
00057741 00000155 532.48 140.85 411.24 615.83 642.96 359.46 838.70 362.45 752.24 480.25 667.13 596.15 815.85 598.35
00057742 00000156 533.97 140.97 410.97 614.57 643.76 359.33 840.94 362.76 752.58 481.00 665.85 593.96 820.79 596.37
00057743 00000157 533.21 142.14 411.62 613.38 643.61 359.61 839.59 362.63 753.19 481.82 666.42 593.97 818.27 596.11
00057744 00000158 531.92 141.65 415.40 614.77 644.06 361.20 840.58 364.89 753.57 485.05 665.49 595.24 816.84 597.97
00057745 00000159 530.90 146.60 416.92 611.03 642.94 363.40 843.57 366.50 754.50 488.32 665.70 600.36 820.27 602.61
00057746 00000160 529.53 150.93 420.64 613.60 642.25 365.36 846.17 367.73 753.22 491.76 663.33 605.97 824.13 607.36
00057747 00000161 530.90 150.80 419.97 614.29 643.22 366.61 846.34 369.44 753.96 494.89 662.23 607.10 823.72 608.95
00057748 00000162 530.35 152.91 420.99 611.89 643.45 366.85 847.22 369.82 754.86 494.08 662.51 606.56 825.73 608.51
00057749 00000163 529.96 152.66 421.04 608.01 642.41 366.25 846.40 368.39 755.02 493.18 664.73 605.21 825.71 606.44
00057750 00000164 529.89 150.46 419.43 606.86 642.16 366.11 845.30 368.88 754.34 490.92 663.62 601.46 824.64 603.22
00057751 00000165 530.54 147.47 417.22 609.66 642.27 365.28 843.56 368.82 753.55 490.01 662.96 599.96 822.30 602.54
00057752 00000166 529.56 146.69 415.29 610.06 641.16 364.84 841.67 368.18 752.37 489.16 662.13 600.22 820.79 602.68
00057753 00000167 526.67 147.85 416.52 608.84 640.12 364.92 841.01 368.06 751.72 488.79 660.53 600.71 819.46 602.96
00057754 00000168 527.10 145.61 413.83 612.05 638.20 374.18 838.91 376.26 750.46 488.93 659.35 602.23 821.48 603.49
00057755 00000169 526.36 143.92 413.72 609.81 637.56 375.79 835.77 377.30 747.60 485.89 660.76 598.01 817.56 598.98
00057756 00000170 524.97 145.81 414.62 605.93 635.55 371.60 834.20 372.50 746.17 482.11 659.68 592.66 817.16 593.20
