Video ID: 	5n7BOxyxO6c
H: 	1080
W: 	1080
FPS: 	25.0

FRAME INDEX X0 Y0 W H [Landmarks (5 Points)]

00004212 00000000 418.28 139.81 373.17 521.51 586.47 314.69 735.08 339.98 687.49 420.20 587.20 514.66 705.44 534.40
00004213 00000001 419.26 136.47 370.48 518.07 585.38 309.88 737.53 335.71 687.57 418.67 588.65 511.31 707.34 531.40
00004214 00000002 419.87 135.16 369.02 516.73 585.67 305.60 740.85 334.54 691.39 413.96 589.35 509.70 709.66 532.44
00004215 00000003 419.48 137.84 372.32 519.36 591.40 302.01 740.77 334.43 693.55 406.49 592.46 504.96 707.03 530.68
00004216 00000004 419.04 142.12 370.73 516.11 591.15 303.45 737.45 335.84 688.75 402.59 592.48 505.85 695.36 533.04
00004217 00000005 413.60 143.27 369.28 504.94 585.87 303.84 728.29 337.55 676.54 405.14 580.99 499.77 683.12 526.54
00004218 00000006 412.29 141.33 367.30 500.01 580.05 306.74 723.46 337.33 671.04 400.73 579.24 495.66 681.71 519.79
00004219 00000007 408.67 142.55 368.13 497.44 575.20 302.75 721.87 336.01 667.91 396.38 575.13 491.58 680.04 517.67
00004220 00000008 409.16 139.10 364.38 501.01 576.92 297.68 720.34 331.76 668.72 389.35 574.61 489.47 678.71 516.32
00004221 00000009 408.37 135.97 364.33 505.66 578.43 295.16 719.69 333.35 670.22 384.32 571.65 485.58 680.10 515.87
00004222 00000010 403.64 131.91 364.10 507.70 572.41 294.27 715.14 332.28 666.64 379.18 566.43 480.27 679.57 510.19
00004223 DELETE   393.33 130.98 364.22 494.13 550.00 296.70 703.79 322.85 654.26 376.31 554.97 481.77 678.22 502.41
00004224 DELETE   383.91 131.85 360.42 484.48 525.31 293.66 685.39 314.15 626.16 374.57 531.51 475.25 663.42 490.92
00004225 DELETE   367.40 121.78 366.55 489.31 506.85 291.59 660.53 311.37 601.22 371.77 511.44 471.10 639.01 487.81
00004226 00000014 360.85 121.05 369.73 496.36 498.87 288.86 655.77 308.48 596.63 367.36 506.08 473.05 637.12 489.60
00004227 00000015 362.91 124.05 364.98 487.16 506.18 290.52 658.29 309.99 605.95 366.51 517.90 473.68 640.08 490.15
00004228 00000016 366.04 123.01 359.94 484.06 506.63 291.89 663.49 312.54 610.76 370.02 520.48 475.35 644.81 492.54
00004229 00000017 360.89 126.15 363.38 485.84 506.44 293.14 656.55 313.29 602.45 372.08 516.89 475.59 634.66 492.70
00004230 00000018 359.95 128.84 358.22 492.84 500.92 296.10 647.01 315.37 589.86 369.57 513.50 474.30 622.62 489.13
00004231 00000019 357.00 132.46 357.90 493.27 494.31 298.24 639.95 315.03 581.15 375.44 506.95 476.03 617.34 488.95
00004232 00000020 357.64 134.98 357.57 494.70 495.13 300.34 643.00 319.14 582.55 386.41 504.40 480.15 618.99 494.64
00004233 DELETE   354.29 132.67 358.26 503.42 492.77 306.60 642.78 319.61 587.83 397.77 504.91 492.42 625.52 503.83
00004234 00000022 354.59 140.87 361.87 500.35 493.72 307.13 643.78 324.19 584.40 403.96 500.45 493.40 617.84 506.38
00004235 00000023 350.45 139.54 360.86 503.24 481.04 312.00 635.47 323.40 574.03 408.13 490.61 501.86 610.53 510.17
00004236 00000024 349.05 136.31 361.91 504.52 475.78 310.07 633.09 322.47 567.65 406.94 485.01 501.65 603.23 510.86
00004237 00000025 351.96 135.63 361.68 502.51 478.50 309.87 636.03 320.26 571.56 407.28 491.65 500.84 610.14 508.34
00004238 DELETE   357.65 134.17 362.65 504.47 495.69 306.68 648.02 324.60 587.20 405.41 503.87 495.24 619.24 508.99
00004239 00000027 362.52 135.85 360.76 503.21 502.36 306.49 657.73 328.52 596.98 407.29 508.06 497.58 628.60 514.65
00004240 00000028 361.40 137.61 361.17 502.71 501.44 306.85 656.54 331.05 593.74 408.53 500.57 497.11 623.95 516.21
00004241 00000029 362.59 138.54 360.14 508.63 493.68 313.98 652.78 330.64 592.61 411.05 495.60 502.27 627.78 517.00
00004242 00000030 363.95 142.37 365.57 509.31 505.36 312.23 661.41 338.80 596.99 418.82 498.21 504.26 630.43 525.34
00004243 00000031 368.86 142.96 366.90 514.61 516.64 314.44 666.67 341.25 609.91 425.42 506.70 508.52 637.40 530.09
00004244 00000032 373.02 144.00 365.31 518.63 520.68 317.02 670.32 342.60 614.67 427.78 508.67 513.05 640.55 534.08
00004245 00000033 368.71 144.79 369.12 524.21 517.25 318.11 666.04 345.17 609.33 429.07 504.33 514.07 636.89 536.41
00004246 00000034 370.14 145.57 367.23 530.51 514.74 321.76 669.93 345.30 606.77 428.39 507.25 518.55 634.35 537.75
00004247 00000035 369.95 145.67 365.44 529.97 516.06 322.06 671.05 343.39 611.70 427.25 509.51 518.37 638.80 535.82
00004248 00000036 365.60 142.23 369.58 528.64 516.31 316.90 664.86 342.55 611.63 427.59 503.17 513.13 638.79 534.21
00004249 00000037 366.47 142.14 364.29 524.01 501.75 317.96 663.19 337.12 598.56 421.70 500.61 512.42 633.66 527.86
00004250 00000038 356.42 139.14 366.72 526.47 486.91 313.66 645.81 328.34 576.04 414.82 492.72 505.73 618.66 517.53
00004251 00000039 354.60 135.54 367.58 521.69 481.84 307.98 640.94 319.59 569.38 405.16 495.36 500.69 611.90 510.95
00004252 00000040 354.03 129.85 369.76 522.78 482.79 303.54 641.01 314.46 570.98 396.47 499.31 497.36 611.92 507.48
00004253 00000041 354.44 120.50 370.41 528.00 481.01 302.10 644.83 313.02 573.50 401.26 497.97 502.50 617.12 512.13
00004254 00000042 357.15 120.30 369.29 529.79 480.91 308.77 648.86 318.10 577.94 408.18 499.39 509.23 622.31 516.98
00004255 00000043 358.63 133.88 369.17 526.76 485.30 314.66 648.83 325.12 579.39 414.78 502.49 514.18 619.83 522.49
00004256 00000044 359.68 140.51 371.15 537.04 489.36 320.33 650.46 334.45 578.07 424.43 496.64 520.02 620.14 531.19
00004257 00000045 356.58 141.05 376.03 531.80 488.22 322.76 646.71 343.60 574.92 436.93 482.78 521.42 615.51 538.39
00004258 00000046 361.03 145.43 375.11 531.71 484.68 331.69 649.14 344.55 577.34 440.41 484.13 526.67 623.22 537.97
00004259 00000047 360.82 148.11 379.09 533.57 485.59 335.98 650.79 349.54 578.47 446.20 486.18 530.66 625.77 542.38
00004260 00000048 361.49 150.14 381.84 536.24 493.49 335.49 658.25 356.45 580.71 453.35 492.27 531.08 623.14 547.57
00004261 00000049 362.53 149.50 386.93 546.59 498.28 337.02 663.06 359.12 585.38 456.35 495.81 538.80 625.27 556.03
00004262 00000050 363.98 150.53 384.96 548.47 500.49 339.38 665.02 361.70 588.34 462.26 498.84 544.07 625.46 561.50
00004263 00000051 367.60 154.37 379.76 544.88 503.69 348.59 662.40 371.68 589.54 472.52 497.26 550.34 626.12 569.83
00004264 00000052 366.67 164.81 379.55 539.06 502.53 367.29 664.76 385.41 592.45 480.35 498.23 561.21 631.17 576.54
00004265 00000053 367.88 170.32 380.89 548.83 508.29 380.89 665.06 397.79 596.77 495.68 502.34 574.53 630.70 588.97
00004266 00000054 365.99 183.09 386.73 559.60 513.91 397.26 673.19 414.29 602.60 512.02 506.88 593.44 634.34 608.44
00004267 00000055 372.34 202.06 381.71 549.34 528.70 417.61 685.24 435.45 622.87 545.34 519.60 611.56 644.07 627.23
00004268 DELETE   383.66 225.00 379.86 555.06 543.32 447.81 701.60 455.98 643.73 573.85 537.18 640.36 665.09 648.15
00004269 DELETE   392.57 243.83 381.63 547.57 566.54 473.00 718.09 474.52 673.19 602.30 560.82 665.68 681.95 667.96
00004270 00000058 396.39 253.95 385.22 547.20 580.94 493.73 733.02 483.70 696.37 617.02 575.33 685.85 694.48 679.53
00004271 00000059 402.02 259.58 385.96 548.39 589.27 500.13 740.07 489.50 705.47 623.93 581.31 691.80 698.55 685.01
00004272 00000060 406.50 269.44 384.23 543.65 593.37 504.45 742.67 491.12 710.02 628.18 583.51 693.91 701.59 685.37
00004273 00000061 408.44 280.78 382.45 533.76 595.94 506.56 742.45 494.70 711.30 627.02 582.82 689.54 701.52 682.38
00004274 00000062 410.44 278.90 380.60 535.21 598.29 506.64 743.48 496.70 711.96 627.37 580.35 684.71 701.67 679.12
00004275 00000063 411.47 276.17 380.03 537.68 599.38 504.17 743.96 495.99 712.41 625.07 579.50 681.75 702.05 677.67
00004276 00000064 410.47 274.69 381.61 539.10 598.77 501.78 743.72 492.91 711.98 623.40 579.22 680.77 702.32 676.31
00004277 00000065 410.52 273.96 381.13 539.42 598.04 501.11 743.24 492.27 711.58 622.69 579.41 680.28 703.07 675.79
00004278 00000066 410.36 275.98 381.20 536.11 597.12 502.72 742.58 494.46 710.43 623.87 578.91 679.37 703.46 675.23
00004279 00000067 410.11 279.66 381.08 532.06 594.60 504.40 740.98 495.21 707.88 625.10 578.17 679.48 703.34 674.61
00004280 00000068 409.81 282.87 381.75 529.49 592.29 504.19 740.16 495.10 705.56 625.53 577.39 679.80 703.33 675.02
00004281 00000069 410.29 281.54 381.30 531.96 591.98 504.15 740.13 494.18 705.12 625.40 580.14 683.75 703.30 677.98
00004282 00000070 411.68 279.10 380.42 534.27 591.31 504.67 741.97 491.29 706.71 625.62 586.89 692.48 705.86 683.77
00004283 00000071 414.55 274.62 377.66 536.52 593.00 502.24 742.88 489.77 707.05 622.25 593.22 693.39 708.33 685.02
00004284 00000072 417.37 261.37 375.57 541.51 592.23 495.82 743.55 484.98 706.29 618.11 594.47 689.84 709.79 682.35
00004285 00000073 412.49 248.07 383.82 551.14 593.76 481.09 741.56 478.93 704.20 607.62 591.15 677.58 705.64 676.89
00004286 00000074 412.73 241.21 385.54 559.37 595.19 461.71 741.56 467.05 703.30 597.64 587.37 670.18 703.34 675.32
00004287 00000075 415.15 236.35 385.63 558.25 591.70 444.40 752.24 459.09 698.92 585.48 595.19 659.13 709.93 670.39
00004288 00000076 421.57 225.11 384.42 555.28 606.66 435.93 762.21 447.64 718.96 577.59 602.19 649.18 715.97 659.27
00004289 00000077 439.85 223.00 380.85 546.17 627.38 424.74 777.65 440.80 735.10 561.52 616.77 632.98 727.76 646.99
00004290 00000078 444.57 195.07 384.01 565.10 636.83 407.27 784.01 431.11 742.50 544.48 618.61 618.89 733.09 638.88
00004291 00000079 448.59 192.24 385.01 553.41 637.91 385.56 785.82 416.07 733.92 527.26 619.56 599.25 731.70 624.24
00004292 DELETE   436.81 181.33 386.25 530.25 620.65 355.71 772.92 390.98 715.45 489.64 607.80 563.72 719.10 592.09
00004293 DELETE   420.79 161.22 387.45 528.61 592.73 330.59 745.19 360.57 685.10 453.39 594.54 538.09 694.49 562.21
00004294 00000082 414.40 146.15 382.59 523.31 573.47 316.07 730.90 344.18 663.99 423.88 573.42 517.83 680.03 541.00
00004295 00000083 408.10 136.65 378.14 519.51 563.28 305.71 719.12 336.47 653.10 410.89 559.41 504.32 676.23 528.93
00004296 00000084 410.26 137.07 375.23 521.15 559.73 305.80 719.45 334.00 650.47 410.38 556.21 500.73 676.56 524.29
00004297 00000085 407.12 134.34 373.92 522.91 548.42 307.63 711.74 335.51 640.39 411.26 543.78 501.78 671.41 525.13
00004298 00000086 401.56 141.06 369.44 518.34 533.22 314.12 693.88 338.88 617.24 413.69 528.04 502.69 655.50 523.97
00004299 00000087 392.71 140.29 368.66 518.84 512.40 309.18 679.09 336.23 594.86 417.77 499.72 509.18 639.55 531.40
00004300 00000088 380.00 136.60 376.01 535.79 495.95 314.08 663.94 335.30 578.52 416.76 490.49 511.57 627.10 529.22
00004301 00000089 368.21 140.39 373.15 532.77 480.11 319.05 643.09 337.86 554.54 421.81 471.54 515.79 607.83 531.63
00004302 00000090 365.90 138.77 371.95 540.75 474.40 323.81 637.44 339.84 546.06 424.53 475.65 517.08 604.65 530.43
00004303 00000091 360.66 138.12 368.98 532.76 464.48 326.29 628.70 341.67 539.07 432.89 461.95 519.98 598.43 533.33
00004304 00000092 357.49 138.16 367.18 528.36 456.71 327.70 622.39 342.44 529.56 433.88 455.93 521.01 592.81 534.05
00004305 00000093 354.91 138.70 366.04 528.99 450.83 328.16 615.66 342.98 520.82 433.96 450.66 521.31 586.58 534.53
00004306 00000094 352.01 138.72 368.74 539.00 448.35 329.20 611.23 342.66 517.01 433.90 449.35 525.00 583.51 536.91
00004307 00000095 352.28 138.84 368.01 538.25 448.07 329.79 609.90 341.87 516.58 433.32 450.78 526.31 582.28 537.10
00004308 00000096 356.43 140.77 358.51 528.41 449.53 327.16 616.06 339.79 520.45 429.73 453.81 527.90 587.88 537.32
00004309 00000097 355.32 141.52 359.46 525.84 448.60 327.47 615.72 338.90 520.70 429.96 455.43 529.29 586.91 537.76
00004310 00000098 355.00 140.52 359.51 529.52 447.56 328.88 615.71 339.73 521.43 433.33 454.93 532.30 585.65 540.40
00004311 00000099 354.25 140.24 360.40 530.09 445.70 330.29 614.42 340.03 520.26 435.63 454.79 535.28 582.77 542.56
00004312 00000100 352.69 141.36 367.14 536.00 445.62 334.24 607.45 342.70 516.86 440.09 456.16 535.70 576.47 543.78
00004313 00000101 350.74 143.23 368.95 540.27 445.17 334.61 605.30 343.04 515.67 440.94 456.91 538.07 574.43 546.20
00004314 00000102 350.48 142.71 368.16 537.35 441.94 334.78 603.67 342.92 512.88 441.41 452.64 536.77 573.45 544.76
00004315 00000103 350.28 143.96 361.36 531.81 436.51 334.13 606.08 343.36 509.69 439.37 444.39 538.15 575.38 545.62
00004316 00000104 345.53 144.37 369.57 543.26 436.05 335.85 597.10 343.55 506.12 442.98 446.99 538.47 570.36 545.98
00004317 00000105 343.06 145.99 369.75 544.25 432.11 338.05 594.26 345.44 502.24 445.54 440.65 540.85 569.46 548.13
00004318 00000106 341.81 146.53 371.32 541.63 428.02 340.75 590.67 346.65 496.39 446.67 437.49 541.26 567.52 547.12
00004319 00000107 340.30 146.92 371.33 541.83 424.38 342.95 585.90 347.49 489.58 447.52 435.51 542.58 563.60 547.19
00004320 00000108 334.81 148.51 372.71 539.67 419.50 345.04 585.99 351.87 489.81 452.47 432.62 540.36 559.79 545.33
00004321 00000109 332.13 152.22 374.14 537.50 414.91 347.32 581.59 354.02 485.16 455.42 428.91 542.76 556.27 548.05
00004322 00000110 330.09 152.77 373.72 538.93 410.80 348.06 577.03 354.33 479.54 457.07 425.49 544.57 551.28 549.96
00004323 00000111 329.85 150.51 371.81 540.58 406.29 349.01 568.93 351.59 467.16 455.96 420.08 547.65 546.38 550.80
00004324 00000112 330.11 151.08 368.60 540.35 404.24 347.98 564.73 350.86 462.15 452.47 416.27 547.79 539.84 551.52
00004325 00000113 329.79 149.60 367.82 541.27 402.75 345.86 561.26 348.64 458.78 450.54 414.24 546.22 536.12 549.93
00004326 00000114 328.66 149.20 369.12 542.23 401.89 344.08 559.27 347.41 455.62 449.89 412.57 545.73 533.68 549.88
00004327 00000115 328.43 149.11 368.60 545.22 400.75 343.39 556.17 346.30 452.29 449.51 411.59 546.31 530.73 550.24
00004328 00000116 329.21 148.10 366.43 544.80 399.00 342.15 553.06 344.77 447.44 447.08 408.97 545.43 526.37 549.22
00004329 00000117 331.01 147.15 364.60 542.70 398.19 340.90 549.90 342.86 444.03 444.59 409.31 543.35 525.70 546.52
00004330 00000118 332.36 146.48 362.95 539.66 397.65 339.14 547.08 341.08 442.10 443.64 409.15 540.85 523.85 544.01
00004331 00000119 331.88 146.04 364.14 536.21 397.42 337.03 545.18 338.56 439.37 439.48 408.39 536.75 522.39 539.48
00004332 00000120 337.31 144.91 362.82 533.23 399.75 333.99 546.47 336.33 438.18 433.01 408.21 532.44 520.00 535.94
00004333 00000121 339.53 141.24 361.69 532.64 401.24 330.99 548.42 334.07 439.47 429.29 408.21 527.67 519.33 531.90
00004334 00000122 341.46 138.57 361.11 531.92 402.90 326.91 550.36 331.42 440.71 425.78 408.33 523.52 520.11 528.95
00004335 00000123 345.42 137.40 358.43 524.36 406.57 325.72 553.47 330.20 444.98 422.39 412.80 519.26 521.08 524.65
00004336 00000124 347.53 135.31 356.74 519.89 406.88 323.64 553.54 328.44 446.31 420.03 413.71 515.99 518.71 521.89
00004337 00000125 351.56 133.79 354.59 516.89 407.97 322.07 554.92 328.25 446.62 419.00 414.71 513.43 519.36 520.46
00004338 00000126 355.20 131.83 354.85 515.01 409.99 321.05 558.47 327.51 449.01 417.26 417.03 511.62 522.43 518.79
00004339 00000127 357.12 130.34 358.20 512.04 416.06 324.66 567.21 326.67 451.08 414.13 421.50 514.25 530.09 517.06
00004340 00000128 361.23 130.03 357.21 512.71 418.49 324.78 572.59 326.83 456.25 414.54 425.23 516.02 536.73 518.85
00004341 00000129 361.01 135.57 365.53 516.60 426.27 319.88 577.52 325.94 461.81 417.15 429.98 515.85 541.46 522.12
00004342 00000130 362.00 136.37 367.94 522.57 430.12 319.17 580.60 327.16 465.67 418.44 431.95 517.18 543.65 525.06
00004343 00000131 361.66 135.96 366.90 522.36 429.17 320.60 579.85 328.97 463.78 418.94 430.11 517.70 539.23 526.14
00004344 00000132 361.11 136.27 364.38 519.18 426.55 323.17 577.93 330.88 460.68 419.84 427.32 518.59 534.66 526.64
00004345 00000133 360.54 137.64 361.82 515.38 424.61 324.47 576.61 333.00 459.59 421.35 424.78 519.00 531.40 527.76
00004346 00000134 359.70 139.02 362.32 513.16 425.20 324.97 577.98 334.44 461.31 421.52 424.12 518.46 531.76 528.09
00004347 00000135 358.95 139.72 362.61 512.53 425.51 325.12 579.04 334.55 463.49 422.31 425.24 518.61 533.06 528.23
00004348 00000136 363.10 137.18 357.22 520.77 426.42 323.06 575.84 333.03 465.18 419.33 429.23 516.73 531.45 526.85
00004349 00000137 353.83 136.87 369.77 531.28 427.57 327.25 580.10 333.68 465.73 422.47 430.17 524.35 537.60 531.23
00004350 00000138 353.16 137.54 370.68 536.07 428.37 329.34 581.32 333.68 468.67 424.21 432.03 528.65 541.27 533.72
00004351 00000139 359.56 137.95 361.81 541.03 427.64 327.29 576.72 333.64 470.54 424.83 436.11 529.86 541.25 536.43
00004352 00000140 355.97 137.21 370.78 555.73 435.55 331.22 581.34 339.78 476.36 428.94 445.55 530.71 550.53 539.27
00004353 00000141 357.73 138.14 369.00 558.15 436.49 331.93 582.58 340.99 477.52 430.17 446.10 533.13 553.30 541.93
00004354 00000142 356.00 141.06 370.91 546.76 433.98 329.08 585.67 335.00 476.40 429.70 437.01 533.76 552.83 539.95
00004355 00000143 357.60 141.46 370.84 546.83 435.27 328.62 588.30 334.82 478.59 429.58 437.54 533.28 554.98 539.76
00004356 00000144 359.66 141.10 368.88 546.41 437.19 328.47 589.59 334.66 480.58 429.31 439.63 531.97 557.49 538.42
00004357 00000145 361.16 139.59 368.53 546.69 438.68 327.12 590.46 334.47 481.04 429.45 440.01 529.84 558.26 537.32
00004358 00000146 364.05 139.92 367.45 544.08 440.56 326.08 593.26 334.16 483.06 428.24 441.85 528.71 558.93 536.87
00004359 00000147 366.26 141.11 368.22 541.66 442.54 325.68 595.21 334.69 484.45 428.38 443.21 528.21 558.92 537.29
00004360 00000148 369.19 141.45 367.07 540.50 444.19 327.56 597.36 336.48 486.00 429.32 444.45 528.83 560.79 537.98
CROP_BBOX: 102 0 1074 953
