Video ID: 	Vz_tXKMJ9NM
H: 	1080
W: 	1920
FPS: 	29.97002997002997

FRAME INDEX X0 Y0 W H [Landmarks (5 Points)]

00072707 00000000 858.12 222.65 340.82 527.74 918.19 430.84 1084.41 421.71 988.80 533.85 945.94 623.37 1084.20 616.25
00072708 00000001 857.57 223.63 340.90 527.17 918.57 429.23 1085.20 419.92 992.37 534.37 948.44 624.91 1085.89 617.62
00072709 00000002 857.25 223.25 341.42 527.90 917.95 428.70 1085.38 418.30 992.77 534.85 950.15 626.93 1087.37 618.65
00072710 00000003 855.81 221.76 342.40 529.48 916.88 429.74 1086.24 417.02 993.52 535.60 953.87 631.21 1087.03 621.01
00072711 00000004 853.67 221.89 344.23 524.60 915.42 431.86 1086.49 416.60 993.76 537.45 955.21 633.69 1086.65 621.53
00072712 00000005 851.90 224.05 345.05 516.39 914.73 433.70 1086.66 416.25 995.13 538.11 956.18 635.04 1087.08 621.09
00072713 00000006 849.64 224.99 346.54 511.87 914.58 434.04 1086.91 415.89 996.43 537.55 957.49 633.97 1087.82 619.42
00072714 00000007 804.15 219.59 333.48 499.48 847.33 401.92 967.35 379.61 851.46 468.73 856.23 593.02 945.32 576.05
00072715 00000008 806.04 212.26 331.78 510.43 846.60 398.84 965.88 375.56 849.55 464.95 854.66 595.16 940.24 577.43
00072716 00000009 809.38 210.02 334.06 514.45 844.66 403.72 978.15 379.83 860.81 457.48 857.21 598.63 949.02 579.37
00072717 00000010 823.76 212.96 325.65 515.44 864.35 399.37 995.25 380.22 871.93 465.22 877.13 597.93 971.14 582.57
00072718 00000011 827.91 204.82 331.85 536.03 869.86 395.15 1008.70 383.76 892.62 477.05 885.93 593.67 1003.29 587.55
00072719 00000012 837.66 209.68 331.92 537.03 885.37 399.91 1034.31 391.08 918.47 487.03 897.46 593.85 1025.46 589.12
00072720 DELETE   849.47 223.10 331.43 533.26 901.23 401.83 1057.33 388.49 948.82 490.35 917.82 603.89 1049.98 594.78
00072721 DELETE   855.59 211.91 336.60 542.52 920.95 407.92 1084.66 400.31 990.08 506.82 941.20 606.81 1080.65 601.45
00072722 00000015 859.42 210.91 341.59 545.51 934.50 415.03 1099.74 405.56 1014.05 515.10 958.25 611.09 1099.15 603.60
00072723 00000016 863.18 202.48 341.68 546.58 943.72 420.61 1110.04 421.64 1023.04 525.41 961.67 606.98 1107.16 608.47
00072724 00000017 864.18 204.94 344.46 543.75 947.59 425.66 1116.15 426.31 1030.07 530.62 966.18 610.87 1110.95 612.23
00072725 00000018 860.84 207.09 345.34 542.61 941.93 426.58 1109.81 425.77 1022.44 527.91 963.23 614.11 1106.22 614.37
00072726 00000019 857.60 214.46 343.60 541.29 932.63 429.12 1096.09 416.09 1011.23 528.50 959.20 622.56 1093.47 612.64
00072727 00000020 848.86 219.56 342.56 530.39 913.11 423.30 1078.98 417.05 981.14 524.43 934.66 621.43 1072.45 617.27
00072728 00000021 835.77 217.96 347.65 535.42 897.06 419.70 1061.91 414.16 959.66 520.60 925.43 624.41 1050.86 620.96
00072729 00000022 824.13 208.60 357.10 548.78 881.48 415.62 1049.38 406.91 941.31 520.29 912.47 631.52 1032.72 626.36
00072730 00000023 821.88 209.20 355.42 537.63 874.93 425.60 1036.55 415.94 925.07 524.58 901.49 624.44 1023.38 619.55
00072731 00000024 818.25 207.95 351.14 552.47 872.62 429.09 1030.45 417.53 922.95 526.04 902.29 632.50 1020.10 626.27
00072732 00000025 821.97 216.92 341.16 556.55 873.75 426.67 1032.72 410.70 930.56 524.11 909.02 640.55 1027.90 630.79
00072733 00000026 818.25 218.16 342.65 557.22 874.30 431.64 1034.94 414.14 937.37 532.18 914.50 646.33 1030.86 634.84
00072734 00000027 814.82 218.98 347.48 560.26 871.46 436.97 1032.30 419.74 938.38 541.11 913.31 649.52 1031.55 637.85
00072735 00000028 801.41 215.80 356.82 562.20 866.32 441.79 1023.32 425.83 932.97 548.40 909.06 644.64 1030.78 633.06
00072736 00000029 797.14 215.30 357.74 562.29 859.65 444.09 1015.90 425.31 925.40 548.76 905.12 644.10 1029.69 629.89
00072737 00000030 793.13 216.08 358.59 564.21 851.89 442.28 1006.59 421.11 913.07 545.05 899.31 643.84 1025.71 627.22
00072738 00000031 793.67 216.28 358.12 564.80 847.61 453.88 1001.73 427.56 902.91 540.33 892.07 643.00 1025.12 622.06
00072739 00000032 792.33 218.05 360.46 559.51 847.30 460.46 1001.86 430.77 902.31 537.15 891.77 640.76 1027.08 617.03
00072740 00000033 793.78 216.19 360.29 552.89 850.86 456.27 1005.97 429.00 907.78 535.28 895.99 636.83 1027.83 614.88
00072741 00000034 797.40 208.72 361.22 553.76 857.09 450.34 1013.71 427.33 917.78 534.57 900.78 634.77 1027.96 616.71
00072742 00000035 801.66 210.60 362.28 547.85 864.39 444.93 1021.70 423.95 928.29 533.48 908.85 633.10 1033.34 616.63
00072743 00000036 807.27 214.36 362.27 539.68 872.55 440.20 1031.20 420.98 941.56 532.83 918.46 633.03 1039.79 618.44
00072744 00000037 814.48 214.30 356.76 540.37 881.36 438.18 1040.13 418.47 954.20 535.14 927.44 634.82 1046.95 620.22
00072745 00000038 828.53 218.90 348.81 536.80 888.29 432.03 1052.43 408.11 962.65 527.04 927.71 635.93 1053.41 618.77
00072746 00000039 831.73 220.85 348.93 536.94 890.08 430.07 1053.06 404.55 960.80 520.93 925.80 632.23 1055.48 613.46
00072747 00000040 832.44 220.52 350.77 539.01 888.18 429.39 1050.99 403.81 954.58 518.66 919.82 629.39 1054.38 610.63
00072748 00000041 830.24 217.81 351.69 543.40 882.95 429.43 1044.74 405.13 944.01 517.79 911.39 626.68 1050.08 609.41
00072749 00000042 825.23 216.65 354.91 542.84 876.97 429.09 1039.18 407.90 934.18 516.86 903.46 624.81 1042.62 610.21
00072750 00000043 823.93 216.67 355.73 545.45 873.95 428.06 1033.80 411.42 926.67 517.21 897.36 621.93 1036.48 610.93
00072751 00000044 822.93 218.58 354.70 548.00 872.29 427.41 1029.55 412.11 920.80 516.30 894.82 621.59 1032.74 611.87
00072752 00000045 821.80 217.69 355.01 547.89 871.22 427.81 1030.87 412.86 920.86 516.48 894.00 623.44 1032.10 614.01
00072753 00000046 821.60 218.32 354.90 547.84 871.86 427.91 1031.80 412.55 922.18 517.57 895.38 624.70 1033.27 614.82
00072754 00000047 821.67 220.24 354.76 548.84 873.13 429.21 1033.69 412.86 923.18 517.77 897.23 626.87 1036.10 615.96
00072755 00000048 822.55 221.65 352.47 549.45 874.34 434.26 1034.04 416.34 925.48 520.76 899.96 631.59 1038.55 619.32
00072756 00000049 818.16 218.41 356.18 556.41 873.14 451.06 1031.87 431.45 924.03 529.40 899.51 633.86 1037.52 619.79
00072757 00000050 823.54 230.53 351.92 545.67 876.44 454.64 1035.37 432.69 929.01 528.34 903.01 639.30 1044.78 622.14
00072758 00000051 823.30 232.32 351.47 546.06 876.86 453.68 1037.13 429.69 930.69 530.39 902.92 641.06 1045.95 622.55
00072759 00000052 823.33 231.66 351.23 548.34 876.22 448.67 1035.90 423.25 931.17 530.97 905.23 642.93 1045.59 623.57
00072760 00000053 821.91 229.81 353.21 550.43 874.31 443.79 1034.67 419.61 930.63 529.97 906.36 642.95 1044.31 624.64
00072761 00000054 822.33 230.21 353.22 551.66 874.04 442.02 1035.49 416.71 931.22 527.95 907.11 642.20 1046.55 622.81
00072762 00000055 824.21 230.16 350.87 551.89 875.68 439.94 1038.16 413.46 935.24 527.03 909.62 641.81 1049.99 621.77
00072763 00000056 828.05 229.38 349.31 550.52 879.58 440.32 1043.23 411.15 940.61 525.22 913.44 641.89 1055.21 619.58
00072764 00000057 831.44 230.17 347.68 547.28 883.64 439.86 1045.38 409.22 945.87 524.91 919.66 640.98 1059.43 617.28
00072765 00000058 835.04 229.05 345.54 543.34 886.86 438.95 1046.68 406.80 949.27 522.04 924.50 639.64 1062.07 614.78
00072766 00000059 835.97 228.62 346.83 539.06 888.92 436.76 1047.46 404.36 952.12 520.47 927.91 637.16 1062.27 612.11
00072767 00000060 839.70 229.40 344.46 534.52 892.00 434.65 1050.14 401.11 954.74 517.17 931.50 636.20 1064.29 610.13
00072768 00000061 830.33 226.47 349.77 532.36 885.72 429.28 1052.51 401.51 956.65 513.21 936.64 628.52 1069.97 605.90
00072769 00000062 844.96 226.74 342.56 531.73 895.49 429.64 1054.31 396.21 961.61 514.01 939.96 634.18 1071.26 607.44
00072770 00000063 840.86 226.88 343.46 531.37 893.67 425.52 1056.64 399.89 960.56 506.87 940.83 624.39 1072.86 603.45
00072771 00000064 847.56 226.10 338.93 529.61 899.78 423.45 1060.93 400.36 962.86 504.12 942.77 621.84 1073.71 602.84
00072772 00000065 855.31 226.34 333.75 527.72 907.97 419.55 1067.76 400.48 968.83 501.16 943.95 617.87 1076.31 601.99
00072773 00000066 860.67 223.57 330.69 527.36 912.81 415.90 1075.00 398.54 972.51 499.15 943.32 613.93 1078.82 599.74
00072774 00000067 865.55 215.34 327.33 531.82 924.32 414.54 1079.03 399.95 985.62 497.63 947.29 614.94 1083.38 603.28
00072775 00000068 868.81 216.55 328.70 524.78 931.58 426.13 1083.84 413.69 989.12 495.24 948.20 611.87 1082.64 602.47
00072776 00000069 869.30 213.86 332.44 524.23 934.36 429.22 1089.17 419.66 992.60 492.33 945.05 608.24 1081.21 601.01
00072777 00000070 869.76 213.41 333.11 523.00 936.32 419.07 1092.29 417.81 991.62 490.92 940.76 600.98 1078.03 600.57
00072778 00000071 870.30 212.68 336.04 518.18 935.07 411.28 1095.02 414.81 986.89 486.21 936.06 595.59 1072.87 598.73
00072779 00000072 869.01 211.03 336.63 517.01 933.12 405.91 1090.24 410.28 982.35 484.53 933.22 593.54 1066.03 597.52
00072780 00000073 867.31 210.09 336.28 513.36 931.44 402.47 1086.86 407.58 976.42 484.75 930.04 593.30 1060.00 597.80
00072781 00000074 865.09 205.40 335.90 522.48 927.64 400.44 1083.20 407.53 972.81 489.17 928.79 593.65 1053.94 600.53
00072782 00000075 862.86 208.37 334.51 519.11 924.84 401.12 1078.84 407.51 968.01 491.24 925.83 593.89 1050.46 600.08
00072783 00000076 861.29 209.00 332.88 518.31 922.61 400.97 1076.13 407.16 965.35 491.09 924.33 594.55 1047.02 600.41
00072784 00000077 858.85 209.84 334.16 515.20 920.31 401.80 1074.08 407.49 962.90 491.17 922.56 594.20 1045.45 599.63
00072785 00000078 857.73 209.30 334.82 514.09 918.08 402.78 1072.82 406.52 963.07 491.87 922.56 594.75 1045.68 598.69
00072786 00000079 857.04 209.86 335.08 512.59 917.39 402.90 1072.14 405.72 963.67 492.62 923.00 594.27 1046.76 597.53
00072787 00000080 856.42 209.33 335.89 509.39 916.29 403.56 1071.89 405.52 964.68 493.79 923.23 593.80 1046.21 596.42
00072788 00000081 856.17 210.03 336.36 508.95 916.26 404.16 1071.47 406.31 964.68 495.49 922.99 593.79 1045.08 596.60
00072789 00000082 855.05 215.52 338.97 503.83 916.63 403.60 1075.41 407.31 968.42 494.29 925.93 594.06 1045.25 597.74
00072790 00000083 855.63 216.93 339.46 502.69 917.75 405.85 1075.59 408.30 971.03 495.06 931.17 595.84 1044.08 598.45
00072791 00000084 857.30 216.82 338.39 501.53 919.93 407.08 1078.10 409.24 974.54 494.45 934.35 595.97 1046.15 598.44
00072792 00000085 860.14 215.96 332.89 501.64 920.48 410.85 1082.12 410.14 972.97 490.28 930.35 603.67 1051.02 604.41
00072793 00000086 861.16 214.63 332.76 503.73 920.83 412.91 1082.84 411.32 973.88 493.44 932.81 605.82 1052.85 605.77
00072794 00000087 859.81 213.36 333.89 505.94 920.81 414.26 1082.24 411.43 975.18 495.63 936.38 607.37 1053.41 606.29
00072795 00000088 860.13 214.82 334.01 504.22 921.07 415.06 1081.25 410.64 976.54 495.92 939.39 607.83 1054.41 605.26
00072796 00000089 858.75 216.29 333.67 502.79 920.41 415.87 1079.38 409.87 974.59 495.01 942.11 608.01 1054.72 603.94
00072797 00000090 857.09 208.44 331.71 514.13 917.65 413.01 1067.67 405.52 969.51 505.82 939.77 607.24 1051.88 602.41
00072798 00000091 854.41 208.45 333.44 515.92 914.44 413.34 1065.53 405.43 966.38 506.41 937.21 609.33 1049.36 604.03
00072799 00000092 852.07 208.04 334.11 516.11 912.41 412.81 1064.27 404.91 964.62 507.05 935.40 610.67 1048.50 605.30
00072800 00000093 852.35 209.41 334.22 515.11 911.94 412.00 1062.74 402.97 963.04 504.86 934.48 608.84 1049.58 602.58
00072801 00000094 853.08 218.78 336.96 501.79 910.69 409.77 1064.88 403.85 967.44 500.34 937.54 601.94 1043.82 597.22
00072802 00000095 854.95 218.60 337.38 501.60 912.49 408.82 1067.21 403.22 968.94 498.27 938.47 600.77 1046.02 596.37
00072803 00000096 856.78 218.28 336.01 500.86 914.53 409.25 1069.38 404.28 971.24 497.93 939.74 601.15 1047.32 597.25
00072804 00000097 858.20 219.56 335.36 502.84 915.99 410.36 1069.81 405.67 972.12 500.08 941.72 603.42 1046.69 599.74
00072805 00000098 860.02 224.07 330.32 507.25 919.34 415.86 1076.32 405.93 968.59 495.63 944.32 616.76 1053.72 608.97
00072806 00000099 858.44 225.53 330.83 513.93 918.06 415.54 1077.79 405.88 968.29 498.92 944.48 623.60 1053.80 615.89
00072807 00000100 858.55 223.71 330.62 515.22 916.90 415.82 1077.06 405.14 967.40 499.86 945.46 626.07 1053.95 617.57
00072808 00000101 857.52 223.66 333.31 518.40 917.44 416.53 1077.49 404.69 969.28 499.31 946.30 627.16 1053.71 617.65
00072809 00000102 858.75 220.01 333.27 517.62 919.21 419.21 1077.80 405.97 972.27 498.06 947.73 625.47 1054.73 614.99
00072810 00000103 860.20 218.65 332.60 514.51 921.14 417.87 1080.91 406.85 976.14 498.33 950.01 622.87 1056.69 614.25
00072811 00000104 861.60 216.88 333.82 512.43 922.02 416.40 1083.74 405.49 979.95 495.85 951.53 619.23 1059.50 610.79
00072812 00000105 862.64 216.50 332.83 510.89 923.11 413.34 1086.56 403.17 984.76 496.15 951.39 614.79 1067.15 606.88
00072813 00000106 864.69 205.92 331.62 519.19 928.81 408.23 1084.73 397.28 994.48 496.94 955.14 609.50 1073.16 601.61
00072814 00000107 863.37 208.57 341.76 515.34 936.45 411.77 1099.66 401.00 1010.44 491.72 966.16 603.86 1088.05 597.22
00072815 00000108 868.09 202.83 331.67 511.84 938.92 409.62 1098.91 398.13 1011.54 495.80 969.09 603.00 1089.37 593.56
00072816 00000109 865.26 209.05 336.97 498.20 939.18 409.33 1103.58 395.84 1017.54 494.27 971.48 604.68 1095.01 593.68
00072817 00000110 866.93 212.20 334.97 498.41 941.04 410.84 1105.45 395.21 1022.05 492.94 974.55 607.95 1100.52 595.00
00072818 00000111 865.89 213.83 335.81 505.67 941.25 410.43 1102.69 392.97 1022.82 489.99 983.30 608.48 1096.61 593.80
00072819 00000112 863.05 216.41 343.40 505.19 936.47 408.01 1101.54 389.57 1018.86 491.31 984.43 606.23 1097.52 590.42
00072820 00000113 860.23 218.10 343.83 503.68 932.56 408.36 1094.74 390.33 1011.77 492.75 979.53 601.89 1091.51 586.26
00072821 00000114 855.93 222.48 344.00 499.16 925.87 410.22 1084.43 391.50 1001.77 492.97 973.07 600.81 1082.78 584.37
00072822 00000115 852.83 223.37 343.44 494.79 918.51 411.63 1074.41 393.53 989.71 493.72 962.85 599.96 1069.06 584.62
00072823 00000116 852.32 225.07 342.83 492.58 914.21 409.59 1067.12 393.89 979.01 492.80 954.81 597.60 1059.51 584.79
00072824 00000117 856.37 215.68 333.89 506.47 916.09 410.04 1063.49 391.46 970.80 496.03 947.48 602.36 1059.74 588.79
00072825 00000118 857.43 214.38 332.64 506.58 917.21 410.50 1063.90 394.33 971.07 498.65 947.23 603.93 1057.16 592.31
00072826 00000119 859.87 214.89 329.97 505.96 920.46 413.19 1065.55 397.71 974.38 502.63 950.79 607.53 1057.74 596.51
00072827 00000120 861.74 213.09 329.10 509.73 922.23 416.60 1068.38 401.18 978.78 507.01 954.25 612.88 1060.64 601.82
00072828 00000121 863.60 212.54 328.75 513.91 927.08 418.88 1076.01 401.44 991.04 509.64 962.55 619.43 1070.56 606.34
00072829 00000122 865.99 212.13 328.68 520.85 934.60 418.40 1086.22 401.25 1006.60 510.31 973.54 624.73 1080.09 611.42
00072830 00000123 870.86 210.85 330.46 529.32 945.18 417.14 1106.27 403.99 1024.66 513.47 987.09 628.79 1094.74 619.94
00072831 00000124 879.66 209.34 329.87 536.67 957.08 418.38 1117.53 408.78 1039.80 523.11 998.93 631.66 1105.97 625.85
00072832 00000125 885.98 208.94 327.98 535.35 963.71 420.61 1126.51 411.61 1048.89 528.04 1005.87 631.19 1116.20 625.94
00072833 00000126 886.07 210.67 332.03 525.54 964.19 420.56 1130.59 412.51 1051.46 529.95 1006.68 627.15 1120.24 622.48
00072834 00000127 881.48 215.04 337.73 510.80 958.85 420.81 1126.66 414.04 1044.13 526.42 999.26 620.58 1114.86 616.66
00072835 DELETE   874.92 215.54 341.73 511.50 947.54 426.86 1109.63 418.04 1023.14 516.89 983.28 611.42 1104.73 606.06
00072836 00000129 868.39 217.57 342.79 510.00 940.21 431.39 1095.51 420.30 1009.61 508.42 972.76 608.42 1090.78 601.19
00072837 00000130 861.75 223.09 342.48 496.45 930.31 425.28 1078.62 407.04 994.29 503.43 967.72 607.41 1076.08 593.48
00072838 00000131 861.72 218.92 338.75 495.26 924.90 417.15 1073.65 400.00 986.00 496.52 960.98 602.24 1067.98 589.00
00072839 00000132 865.74 208.73 332.94 509.34 924.85 413.59 1070.55 392.43 983.60 494.50 956.91 605.10 1069.89 590.24
00072840 00000133 870.80 207.54 334.32 507.60 923.75 412.13 1079.19 392.09 984.00 491.89 961.65 607.47 1071.33 591.64
00072841 00000134 871.25 206.77 336.97 509.93 928.37 410.35 1085.74 393.82 992.20 494.44 964.23 605.07 1078.01 591.98
00072842 00000135 869.41 205.01 340.13 519.87 935.67 410.86 1090.18 396.00 1002.29 493.87 967.12 605.19 1081.07 595.85
00072843 00000136 868.87 202.92 342.94 522.35 938.80 412.12 1095.25 402.21 1007.13 499.54 967.84 606.37 1084.55 600.91
00072844 00000137 868.69 204.91 341.92 521.09 937.21 411.45 1092.67 403.23 1004.38 504.81 967.56 608.06 1082.21 603.72
00072845 00000138 865.99 210.72 338.86 512.21 929.03 415.67 1088.83 401.14 998.03 503.28 970.70 615.25 1076.58 603.27
CROP_BBOX: 600 5 1411 897
