Video ID: 	cwEhKn0eDkU
H: 	1080
W: 	1920
FPS: 	25.0

FRAME INDEX X0 Y0 W H [Landmarks (5 Points)]

00021725 00000000 555.47 107.02 334.00 514.16 681.65 314.81 830.47 321.95 790.88 395.42 695.35 490.45 821.45 499.10
00021726 00000001 549.51 105.71 338.87 525.02 673.21 314.01 822.01 325.19 778.62 393.82 683.04 490.74 809.95 502.37
00021727 00000002 539.00 115.06 344.97 524.35 663.36 313.70 813.68 329.38 768.13 393.52 666.60 491.23 797.25 506.77
00021728 00000003 530.06 114.10 350.59 532.62 652.76 313.67 804.53 331.06 751.92 396.71 648.58 490.75 786.52 507.98
00021729 00000004 525.73 107.67 350.26 544.42 640.54 315.50 797.43 334.90 731.66 402.10 633.09 492.52 779.36 511.14
00021730 00000005 522.72 105.55 347.03 549.40 629.66 312.22 788.57 335.56 711.08 403.63 618.33 494.90 764.30 516.63
00021731 00000006 521.26 109.29 344.35 541.21 624.80 311.33 785.27 336.50 702.83 402.60 612.71 494.20 757.91 517.51
00021732 00000007 522.70 111.69 337.52 532.95 621.41 309.93 780.08 336.63 693.66 401.19 608.48 491.93 749.42 516.60
00021733 00000008 522.52 112.71 337.65 525.30 620.49 308.68 778.67 335.59 690.39 398.75 607.03 488.77 746.56 513.72
00021734 00000009 523.14 115.57 337.32 513.30 620.05 308.87 778.13 334.03 690.80 396.95 609.78 485.29 748.74 508.57
00021735 00000010 526.54 116.37 337.61 510.44 624.22 312.11 781.36 334.20 696.14 395.80 616.61 486.25 753.24 506.96
00021736 00000011 528.24 115.85 342.11 513.45 633.11 314.24 791.34 335.97 713.74 395.64 630.26 488.96 764.42 509.03
00021737 00000012 528.71 117.57 351.10 513.96 642.38 318.63 799.75 339.49 730.70 394.49 640.32 489.66 777.92 509.18
00021738 DELETE   537.88 120.06 349.13 509.59 659.10 322.19 815.37 343.92 753.14 402.06 657.33 491.42 793.59 511.99
00021739 00000014 551.44 118.24 344.10 513.16 672.04 326.46 828.60 346.61 769.17 408.56 674.11 494.09 811.61 513.07
00021740 00000015 560.64 118.71 339.10 517.32 688.69 330.60 840.84 343.98 792.49 412.24 690.59 498.57 825.20 512.56
00021741 00000016 568.17 117.92 338.73 524.64 701.90 328.11 851.68 339.09 810.91 411.99 706.47 503.27 836.70 515.15
00021742 00000017 568.83 120.39 337.87 519.11 708.99 331.40 853.05 345.96 816.26 412.41 721.34 503.98 838.90 517.36
00021743 00000018 572.65 124.97 337.84 500.13 716.27 331.05 863.01 341.44 828.99 414.64 726.55 508.29 847.34 517.44
00021744 00000019 573.77 125.82 336.97 498.96 716.54 331.53 863.63 341.71 829.81 415.22 727.32 509.76 848.30 518.57
00021745 00000020 569.99 124.86 337.02 514.50 712.68 334.51 856.58 350.44 821.93 412.94 723.93 508.01 838.47 522.80
00021746 00000021 568.17 122.10 336.01 524.83 708.12 328.54 852.51 348.16 816.33 414.69 714.29 508.06 832.16 525.68
00021747 00000022 568.94 128.12 338.41 522.40 705.35 330.19 852.60 341.53 814.50 420.05 706.43 509.69 832.78 522.09
00021748 00000023 563.00 127.31 341.73 514.25 697.79 331.77 851.25 344.56 806.53 421.54 700.86 508.18 829.97 521.78
00021749 00000024 558.70 127.06 341.74 504.80 690.34 335.66 849.01 349.12 798.88 422.43 697.53 507.28 828.76 521.39
00021750 00000025 556.94 126.29 343.57 507.76 689.72 334.67 845.69 346.84 797.68 421.81 696.33 506.21 827.12 519.10
00021751 00000026 556.87 128.70 344.27 511.79 690.71 334.26 843.91 346.97 797.87 423.02 695.61 508.04 824.19 521.25
00021752 00000027 555.76 131.35 344.57 508.20 689.56 334.93 842.92 348.06 797.14 424.26 695.20 509.34 821.93 522.84
00021753 00000028 554.50 127.22 344.96 507.22 687.31 336.18 844.69 347.54 797.61 425.56 697.90 511.26 825.64 523.00
00021754 00000029 554.31 128.11 344.26 506.25 686.93 336.75 843.93 347.62 797.81 425.26 698.41 511.40 826.04 522.66
00021755 00000030 553.93 128.30 345.21 509.05 687.11 337.47 842.42 347.42 798.24 427.07 699.87 513.52 825.42 523.79
00021756 00000031 553.50 129.16 345.29 510.34 685.93 338.81 841.36 349.91 797.23 428.10 699.31 515.58 824.41 526.67
00021757 00000032 552.48 128.67 346.42 511.98 685.30 338.91 839.14 350.15 794.56 428.95 699.42 516.59 821.93 527.68
00021758 00000033 551.77 131.08 346.31 513.17 685.06 338.00 835.63 348.95 791.53 429.31 699.63 518.04 818.43 528.76
00021759 00000034 551.24 130.66 346.66 514.78 684.53 338.21 835.64 349.53 791.54 430.17 697.79 518.38 817.89 529.41
00021760 00000035 552.90 128.82 346.07 519.57 684.51 339.04 834.84 350.00 791.43 431.27 697.49 519.22 817.97 529.90
00021761 00000036 553.29 130.39 345.99 520.24 685.08 338.66 835.23 350.23 791.84 430.57 696.83 519.08 817.68 530.32
00021762 00000037 552.90 132.49 346.74 519.86 685.16 338.25 835.98 350.52 792.14 430.54 695.68 519.11 817.72 530.98
00021763 00000038 552.55 134.54 347.23 519.58 683.52 337.85 836.24 350.94 791.27 430.61 693.77 519.76 817.75 532.39
00021764 00000039 552.01 134.54 347.79 519.84 683.43 337.16 836.65 351.41 791.08 430.92 691.79 518.91 816.88 532.64
00021765 00000040 551.95 133.02 348.13 520.06 682.85 337.09 838.77 351.44 792.29 430.94 691.64 519.25 818.98 533.06
00021766 00000041 552.59 132.31 347.76 519.54 682.25 337.27 839.55 352.37 792.11 430.06 690.99 519.11 819.58 533.70
00021767 00000042 554.52 132.41 347.10 517.04 685.21 336.21 844.30 351.91 795.54 428.65 692.52 517.69 822.84 533.11
00021768 00000043 556.34 131.93 346.12 518.53 685.81 336.42 845.00 351.19 796.21 428.26 692.86 517.96 823.83 532.65
00021769 00000044 557.49 132.16 345.83 516.85 687.48 336.74 846.69 350.20 798.48 428.43 695.62 518.76 825.24 532.42
00021770 00000045 559.65 133.10 345.55 520.34 691.36 337.43 849.38 350.48 803.25 429.29 698.94 520.46 828.62 533.69
00021771 00000046 561.98 131.07 342.61 522.61 692.00 338.54 849.78 350.57 803.02 430.91 700.64 522.70 829.39 535.00
00021772 00000047 563.51 134.73 342.06 521.36 695.32 340.76 850.64 352.52 804.96 431.86 703.03 525.02 829.23 537.02
00021773 00000048 563.87 137.35 341.51 521.32 697.13 344.86 850.94 355.82 806.05 432.52 704.75 526.69 830.87 537.98
00021774 00000049 565.33 136.76 339.95 523.15 697.60 346.20 850.02 355.89 806.21 433.65 705.94 528.43 830.78 538.60
00021775 00000050 565.17 138.18 340.72 522.82 698.67 346.85 850.42 356.35 807.41 433.88 706.90 529.43 830.75 539.46
00021776 00000051 565.82 135.96 339.74 523.95 698.03 347.36 849.79 356.15 806.74 434.20 707.37 530.38 830.67 539.83
00021777 00000052 564.95 138.12 341.00 521.37 698.02 348.23 850.30 357.28 806.98 434.93 707.89 530.98 830.86 540.59
00021778 00000053 565.30 139.93 340.87 520.19 698.65 349.50 850.63 358.37 807.77 435.14 709.56 532.04 831.85 541.33
00021779 00000054 565.44 140.16 340.10 519.84 699.39 351.44 851.65 361.41 808.42 435.12 709.55 532.18 832.11 542.36
00021780 00000055 560.29 130.24 340.19 523.97 702.57 348.86 851.84 365.98 809.88 428.19 715.70 524.82 832.90 540.09
00021781 00000056 561.63 131.06 339.77 522.51 704.06 349.88 852.59 366.34 811.22 428.59 717.39 525.09 834.00 539.88
00021782 00000057 561.51 130.13 339.46 522.81 706.08 350.35 854.53 367.22 814.17 430.08 719.44 525.65 835.31 540.64
00021783 00000058 562.05 130.17 341.17 523.90 707.57 351.04 856.69 367.33 816.04 431.81 720.54 527.05 835.76 541.54
00021784 00000059 562.72 132.73 341.27 521.65 710.02 353.07 857.56 367.38 818.76 434.41 722.65 528.22 835.78 541.03
00021785 00000060 561.92 134.03 343.67 522.76 710.42 354.67 858.02 367.20 819.95 438.03 722.95 531.17 835.87 542.44
00021786 00000061 562.68 135.80 343.44 522.50 711.86 356.36 858.46 368.38 820.63 440.82 724.02 532.80 836.15 543.63
00021787 00000062 562.76 138.28 343.21 521.44 713.76 357.09 859.27 368.01 822.08 444.55 724.39 534.20 835.26 543.94
00021788 00000063 562.09 134.62 345.00 526.16 714.44 358.88 859.53 370.45 822.72 447.41 724.97 535.08 836.07 545.47
00021789 00000064 561.25 138.09 345.28 523.15 714.64 359.74 859.34 371.14 823.27 448.35 724.55 534.92 835.79 545.10
00021790 00000065 561.53 137.66 344.17 524.46 715.69 362.00 858.94 374.69 824.58 450.53 724.65 536.02 835.32 547.37
00021791 00000066 561.90 140.99 343.24 520.89 715.69 362.80 859.14 375.83 824.70 450.87 724.04 536.01 835.37 547.55
00021792 00000067 560.70 142.98 344.45 518.88 716.19 362.10 860.25 375.68 825.67 451.30 724.06 536.47 835.71 548.34
00021793 00000068 561.30 146.81 343.16 515.72 716.81 364.82 860.09 376.90 825.66 453.24 724.73 537.85 835.66 548.31
00021794 00000069 561.28 146.38 343.91 517.33 716.17 367.53 859.29 378.99 824.17 454.95 723.54 538.61 834.78 548.59
00021795 00000070 561.37 147.58 344.28 516.99 715.68 368.07 860.29 380.86 825.19 455.20 723.44 539.67 835.75 550.79
00021796 00000071 561.25 146.84 344.00 520.14 715.57 368.85 859.97 381.89 824.44 457.05 722.65 541.38 834.55 552.70
00021797 00000072 560.10 147.44 345.37 521.84 716.36 371.07 859.69 383.99 825.25 458.75 722.74 543.07 833.77 554.23
00021798 00000073 561.36 149.67 344.04 521.27 715.08 371.38 860.53 385.01 824.71 459.85 720.57 544.09 833.01 555.85
00021799 00000074 562.24 151.59 343.15 521.13 715.26 374.10 859.90 388.74 824.13 461.05 719.46 544.92 831.68 557.65
00021800 00000075 565.58 155.13 343.11 518.76 722.06 369.95 859.46 390.07 823.10 465.06 719.53 541.08 831.38 559.03
00021801 00000076 561.45 159.76 344.29 517.34 717.81 367.87 851.80 381.47 822.24 461.74 717.12 546.91 823.98 560.21
00021802 00000077 562.28 157.64 343.10 521.75 717.16 367.70 852.61 381.73 822.48 461.48 717.21 548.24 824.99 561.99
00021803 00000078 561.92 159.49 344.34 520.95 716.40 368.98 853.67 382.08 822.64 463.18 716.09 549.64 826.74 562.53
00021804 00000079 562.24 156.78 345.17 524.52 717.57 369.57 855.71 384.09 824.59 464.16 715.45 550.11 828.19 564.33
00021805 00000080 563.79 157.43 343.45 525.02 717.20 370.65 856.26 385.31 825.33 464.45 715.30 550.00 830.70 564.30
00021806 00000081 564.63 152.60 337.92 520.67 716.52 376.03 862.67 387.98 824.39 470.30 712.71 547.14 837.41 560.57
00021807 00000082 566.29 152.20 335.53 518.39 717.35 378.77 862.74 388.92 825.36 472.00 714.15 548.09 838.31 560.05
00021808 00000083 569.07 161.07 339.52 509.97 723.48 380.59 864.02 398.54 828.00 475.00 718.69 546.64 838.44 562.89
00021809 00000084 572.91 160.38 338.53 509.60 725.64 382.70 862.23 399.98 825.46 474.63 724.72 547.26 836.85 562.97
00021810 00000085 572.87 160.13 337.62 510.47 724.26 386.10 863.94 400.55 827.33 477.11 725.68 550.49 842.11 563.64
00021811 00000086 575.01 160.55 336.88 511.79 725.99 386.13 865.87 398.75 831.15 478.37 727.94 551.60 844.19 563.43
00021812 00000087 576.95 162.58 337.88 511.81 727.90 383.81 870.72 400.22 833.62 475.92 727.01 553.43 844.89 568.29
00021813 00000088 573.07 154.18 342.57 526.47 726.64 377.31 861.11 392.16 833.28 468.68 727.30 554.87 835.60 569.76
00021814 00000089 573.54 151.30 346.20 539.36 729.14 382.15 863.33 393.52 834.71 478.20 727.26 563.39 834.63 574.99
00021815 00000090 573.92 159.35 346.27 538.16 732.27 387.86 867.24 401.30 839.05 481.94 725.65 565.54 836.34 579.12
00021816 00000091 576.20 162.16 347.39 541.56 735.65 387.40 869.62 401.30 840.81 483.88 723.59 565.12 835.99 579.30
00021817 00000092 579.24 171.11 345.21 532.95 736.30 389.48 872.73 404.31 841.79 485.02 723.77 565.33 839.19 580.38
00021818 00000093 579.95 174.17 345.18 529.61 737.97 394.77 874.27 410.30 842.47 487.46 724.96 565.70 841.54 581.45
00021819 00000094 582.64 177.62 345.85 531.25 738.65 395.28 876.59 411.17 843.87 488.75 723.57 564.70 845.20 581.03
00021820 00000095 582.73 178.89 347.26 534.30 740.79 391.94 879.57 409.12 848.18 490.55 720.17 563.84 845.28 581.53
00021821 00000096 581.60 175.72 350.17 541.44 742.03 391.40 880.49 408.15 852.30 489.84 720.67 564.11 846.59 581.55
00021822 00000097 581.46 174.40 351.43 538.41 744.13 393.66 880.22 410.67 850.50 487.79 728.62 563.83 848.82 580.90
00021823 00000098 587.15 173.65 347.97 531.27 743.38 394.34 879.22 410.29 847.24 485.76 736.48 564.21 851.92 579.83
00021824 00000099 590.90 173.76 343.98 526.99 741.11 396.49 879.19 410.70 846.34 485.62 739.81 564.54 856.24 578.46
00021825 00000100 589.49 177.43 343.62 521.45 740.36 398.48 879.70 409.61 846.44 487.64 740.04 565.56 856.74 577.12
00021826 00000101 588.06 182.46 343.11 514.29 740.93 400.93 878.96 410.27 845.42 490.08 741.57 566.34 856.13 576.35
00021827 00000102 587.38 181.37 341.17 516.93 741.42 400.45 876.43 409.71 844.09 491.02 741.27 565.70 853.70 575.65
00021828 00000103 587.00 179.45 340.59 522.27 741.38 398.19 874.68 408.59 842.28 492.39 739.59 566.28 850.88 577.16
00021829 00000104 582.31 174.81 346.05 536.27 741.85 396.99 873.31 410.60 842.47 493.18 736.32 566.92 848.45 580.24
00021830 00000105 581.85 173.47 345.49 536.29 741.62 396.10 873.49 410.25 842.66 491.89 734.85 567.45 845.34 581.40
00021831 00000106 580.66 175.61 344.97 524.85 737.09 400.67 873.41 413.15 840.02 491.07 732.40 566.13 846.85 578.72
00021832 00000107 575.98 172.03 348.00 528.56 736.49 401.64 873.63 405.51 844.24 494.50 732.77 566.83 849.70 573.01
00021833 00000108 574.35 170.01 349.86 536.51 738.68 400.50 870.51 408.24 841.95 493.86 729.83 565.63 844.15 574.62
00021834 00000109 573.06 170.69 347.54 541.66 737.34 397.51 866.36 405.39 842.32 493.20 722.96 567.06 837.64 576.55
00021835 00000110 569.47 168.28 348.20 546.09 732.90 394.35 866.01 403.02 840.61 492.39 717.01 567.04 835.47 577.01
00021836 00000111 568.12 160.75 345.69 553.64 729.67 386.92 862.94 398.34 840.02 488.32 714.22 566.27 832.63 578.13
00021837 00000112 567.87 155.22 342.06 554.50 726.61 381.81 862.02 393.71 836.63 487.00 712.47 564.95 830.79 576.83
00021838 00000113 565.27 153.95 340.24 542.46 723.43 382.87 859.08 391.37 834.10 483.48 713.23 562.52 830.47 571.80
00021839 00000114 564.40 152.87 338.15 535.18 721.63 383.57 856.67 391.10 830.75 482.53 718.43 562.87 831.78 571.29
00021840 00000115 567.45 150.96 329.65 531.07 725.71 387.96 863.39 387.75 835.62 485.85 725.30 560.44 842.24 565.29
00021841 00000116 567.04 154.14 329.36 526.72 725.06 386.16 863.07 387.35 834.59 484.40 726.26 559.33 843.00 565.22
00021842 00000117 566.69 152.88 329.93 529.07 725.19 387.28 862.69 387.30 834.77 482.20 730.19 560.58 843.43 565.37
00021843 00000118 565.36 153.17 330.69 528.05 724.61 385.38 862.47 385.75 834.23 481.56 727.97 559.74 841.37 564.87
00021844 00000119 564.25 151.82 331.12 526.93 720.88 381.93 861.14 384.42 830.90 479.03 723.70 556.06 840.00 562.62
00021845 00000120 563.21 158.31 336.73 512.36 718.47 379.63 861.89 380.99 829.63 474.47 722.03 556.69 840.05 560.59
00021846 00000121 559.54 154.08 332.62 517.48 711.40 378.77 855.73 382.61 821.70 474.40 715.60 551.77 834.84 558.86
00021847 00000122 556.44 150.81 334.87 520.27 702.73 374.46 850.75 379.30 813.88 469.89 706.19 547.69 831.14 555.36
00021848 00000123 554.28 149.85 333.82 522.68 697.94 372.53 842.73 378.56 805.54 465.38 702.39 546.24 822.38 554.70
00021849 00000124 548.87 151.48 341.61 525.18 686.10 378.80 832.85 388.95 796.37 468.57 694.37 548.58 816.72 557.37
00021850 00000125 544.74 150.71 342.40 527.11 677.44 373.70 823.74 385.04 785.34 466.66 686.12 546.14 807.95 556.14
00021851 00000126 539.73 153.79 343.61 525.53 672.50 369.41 819.22 381.62 777.41 461.90 675.88 541.99 801.77 553.06
00021852 00000127 538.47 154.63 341.44 522.53 666.93 368.99 815.41 381.32 771.32 461.15 671.08 540.58 798.50 551.77
00021853 00000128 535.74 149.63 343.08 528.37 663.27 367.16 812.57 381.00 766.80 461.55 668.41 540.19 796.70 552.46
00021854 00000129 534.64 150.03 343.38 524.33 660.75 366.09 811.25 379.99 764.41 460.73 667.04 538.47 796.21 550.97
00021855 00000130 533.76 150.11 343.53 521.15 657.66 364.80 808.61 376.41 761.60 459.22 666.61 537.71 794.97 548.38
00021856 00000131 532.38 148.70 345.05 518.68 657.10 363.56 810.90 375.32 761.44 458.53 668.06 537.74 796.22 548.61
00021857 00000132 532.96 148.99 344.64 513.55 657.37 362.38 811.92 373.87 762.04 457.37 668.86 535.43 797.70 546.26
00021858 00000133 533.35 149.11 344.37 510.98 657.06 361.47 811.86 370.68 762.57 456.62 670.47 534.34 799.29 543.29
00021859 00000134 534.70 147.38 343.85 515.85 658.00 360.60 810.89 369.30 763.68 455.90 671.06 534.45 799.47 542.89
00021860 00000135 534.65 146.20 344.05 518.00 658.19 360.25 809.61 368.69 762.78 455.06 671.50 535.04 797.72 543.29
00021861 00000136 534.22 145.76 344.79 515.13 658.39 360.11 811.60 368.49 763.20 454.74 671.89 534.31 798.90 542.58
00021862 00000137 535.01 147.51 343.87 513.20 658.72 360.79 813.20 370.26 764.41 454.42 671.29 533.69 800.70 542.85
00021863 00000138 534.42 150.11 343.03 510.69 658.94 365.43 814.11 375.18 763.94 453.71 669.53 534.60 800.55 543.85
00021864 00000139 533.10 151.08 344.40 508.79 661.56 365.81 816.07 374.22 766.51 454.10 670.17 534.07 799.78 542.56
00021865 00000140 533.92 152.11 343.42 508.03 662.80 368.76 813.99 377.84 765.18 454.26 670.80 533.64 797.82 542.53
00021866 00000141 533.78 150.74 346.06 509.24 662.22 366.15 817.11 374.94 766.05 454.31 671.62 535.17 800.25 543.99
00021867 00000142 535.53 150.99 342.60 512.56 662.67 365.36 816.93 377.95 766.90 453.24 670.77 534.60 800.56 546.30
00021868 00000143 535.74 147.02 344.84 516.02 661.86 361.21 817.82 373.04 767.20 453.46 671.83 534.78 802.19 545.87
00021869 00000144 536.80 144.82 345.52 520.98 662.42 358.56 817.79 371.01 767.90 454.63 671.98 534.59 802.45 546.18
00021870 00000145 536.58 146.39 346.83 520.51 663.56 356.60 819.40 370.48 769.66 453.70 672.17 533.88 803.05 546.74
00021871 00000146 537.09 143.75 347.53 524.06 666.13 354.97 819.78 370.63 771.17 453.48 672.42 532.94 801.58 547.57
00021872 00000147 538.35 143.59 347.09 525.97 668.38 353.51 820.35 370.64 771.55 453.38 672.35 532.21 800.34 548.05
00021873 00000148 538.71 144.59 347.96 527.25 670.13 352.59 820.45 370.78 772.72 452.22 671.88 530.92 799.46 547.60
00021874 00000149 538.95 142.62 347.38 529.43 670.34 351.82 819.98 370.49 772.81 452.36 672.32 531.73 797.91 548.92
00021875 00000150 538.98 146.46 347.02 526.12 671.64 351.17 821.00 369.87 774.08 451.71 674.02 533.22 797.53 550.44
00021876 00000151 539.84 144.37 346.55 528.56 671.13 351.42 821.66 370.54 773.53 453.24 674.73 534.63 798.65 552.12
00021877 00000152 541.20 142.23 345.81 530.93 670.92 352.62 821.71 371.21 773.15 454.21 677.20 536.25 800.46 553.05
00021878 00000153 540.75 141.56 346.52 528.74 670.40 351.89 823.71 369.83 774.10 455.33 677.91 536.39 802.74 552.75
00021879 00000154 539.99 144.34 347.83 527.16 670.45 351.20 825.45 370.08 775.00 454.16 676.97 536.25 803.26 553.42
00021880 00000155 540.44 143.86 347.18 527.60 670.49 351.82 825.57 370.72 775.14 454.79 677.05 536.11 803.99 553.25
00021881 00000156 540.59 142.87 346.93 529.37 671.17 352.10 824.57 370.82 774.79 454.75 677.57 536.31 803.26 553.25
00021882 00000157 541.85 143.60 345.76 529.04 671.64 352.64 823.01 370.13 774.25 454.07 679.30 538.01 800.85 554.02
00021883 00000158 541.81 142.17 345.86 529.81 671.26 352.95 823.67 370.49 774.73 454.33 678.73 538.12 801.36 554.23
00021884 00000159 541.12 143.43 346.59 528.03 671.08 352.64 825.44 370.77 775.92 454.15 678.48 537.88 802.94 554.50
00021885 00000160 541.36 141.47 347.10 529.42 671.88 351.98 826.35 369.23 776.95 454.41 679.81 537.86 804.48 553.73
00021886 00000161 543.99 141.64 346.86 529.70 674.70 350.44 825.56 366.97 778.37 452.88 683.14 537.51 803.35 552.58
00021887 00000162 544.90 140.07 347.36 530.31 678.17 348.27 826.64 365.10 780.58 452.15 686.22 536.18 803.64 551.43
00021888 00000163 547.42 141.36 346.68 528.94 681.58 347.08 828.13 365.24 783.17 451.85 688.47 534.75 803.75 551.07
00021889 00000164 547.91 143.01 346.82 526.65 682.18 347.69 827.60 365.79 783.52 452.00 688.04 533.94 802.86 550.34
00021890 00000165 548.17 140.65 346.93 527.45 682.17 348.79 830.29 366.88 784.95 454.15 687.85 532.88 806.79 549.14
00021891 00000166 548.96 142.81 347.28 525.34 682.61 347.58 831.08 365.73 784.66 453.05 687.08 531.20 807.18 547.59
00021892 00000167 548.96 143.23 347.12 524.85 683.06 346.60 831.11 365.86 784.44 453.07 684.84 529.95 805.16 547.45
00021893 00000168 549.59 141.94 346.07 527.73 683.30 347.63 831.04 368.22 784.87 453.28 683.90 529.42 805.76 547.99
00021894 00000169 549.75 142.26 345.93 527.94 683.17 347.84 831.41 368.97 784.97 453.28 683.25 529.16 806.46 548.21
00021895 00000170 549.93 141.96 346.38 527.66 683.50 347.72 831.73 368.88 785.13 453.18 683.04 528.88 806.25 548.07
