Video ID: 	7tqypS2cm0g
H: 	1080
W: 	1920
FPS: 	25.0

FRAME INDEX X0 Y0 W H [Landmarks (5 Points)]

00055072 00000000 906.13 185.28 462.89 614.56 987.48 400.36 1175.16 422.98 1024.43 507.76 983.43 632.55 1115.85 651.46
00055073 00000001 909.16 182.49 462.67 614.22 986.40 398.48 1173.25 415.93 1022.88 502.31 987.07 630.60 1120.32 645.12
00055074 00000002 912.15 179.50 459.99 621.26 987.74 398.09 1171.52 411.70 1023.98 499.27 991.44 633.06 1123.48 644.12
00055075 00000003 914.29 177.30 461.03 624.02 989.56 397.59 1172.75 412.22 1024.03 498.41 992.57 631.85 1124.01 643.80
00055076 00000004 912.17 176.42 462.63 625.57 989.86 397.11 1174.70 413.13 1025.82 499.53 991.76 632.35 1124.29 645.48
00055077 00000005 911.48 176.84 462.19 616.81 989.79 398.91 1176.17 418.78 1024.27 505.72 987.11 631.73 1120.57 648.19
00055078 00000006 910.00 177.29 463.93 627.05 987.88 405.57 1179.03 425.87 1025.84 517.48 984.44 643.91 1122.76 660.79
00055079 00000007 914.23 187.76 460.67 621.55 989.12 412.95 1179.64 434.83 1026.51 527.09 986.82 651.25 1124.75 669.06
00055080 00000008 918.66 187.94 455.13 619.04 992.96 419.08 1179.14 442.61 1026.91 531.74 989.36 651.13 1123.58 670.44
00055081 00000009 918.63 193.18 455.31 619.07 992.40 423.74 1179.79 448.29 1026.61 536.09 989.73 655.33 1126.09 675.41
00055082 00000010 919.84 188.18 456.36 624.09 995.30 424.51 1181.14 448.06 1028.06 533.72 992.25 655.55 1124.74 675.02
00055083 00000011 920.77 187.58 459.93 624.59 998.72 418.83 1183.69 441.63 1034.09 530.33 997.37 652.36 1127.68 671.36
00055084 DELETE   921.87 177.41 468.06 639.44 999.47 409.38 1190.57 431.52 1034.23 524.72 997.10 650.10 1135.89 669.02
00055085 DELETE   917.82 170.98 477.60 638.53 1001.00 395.34 1196.95 420.99 1034.94 509.45 993.76 636.18 1135.71 658.22
00055086 DELETE   917.68 156.12 475.98 640.82 1003.49 383.83 1200.16 411.28 1040.69 497.41 992.23 619.55 1140.76 642.93
00055087 00000015 922.36 148.38 469.59 627.89 1005.68 372.85 1198.67 402.01 1043.11 490.64 992.35 606.66 1137.96 631.57
00055088 00000016 924.80 149.78 470.27 633.16 1009.19 370.10 1200.13 397.79 1044.03 483.38 993.00 606.74 1134.56 631.01
00055089 00000017 929.95 147.76 467.34 645.25 1012.31 371.25 1200.96 393.64 1047.38 483.52 1000.40 612.58 1141.14 632.41
00055090 00000018 933.00 149.23 462.09 635.75 1012.59 372.45 1201.48 394.85 1050.13 486.50 1001.79 612.51 1142.67 632.37
00055091 00000019 933.36 149.65 462.07 631.95 1013.19 376.73 1200.71 398.44 1049.99 488.35 1003.00 612.80 1142.78 632.21
00055092 00000020 933.72 152.70 462.73 633.55 1012.83 379.10 1201.92 401.70 1050.34 494.36 1003.67 616.60 1146.32 636.61
00055093 00000021 931.38 156.36 463.30 633.87 1010.17 383.59 1201.31 405.78 1049.56 499.28 1002.13 621.34 1147.45 640.65
00055094 00000022 931.48 157.77 461.94 634.71 1010.89 387.17 1201.16 412.35 1047.76 504.36 1001.73 623.46 1145.37 645.10
00055095 00000023 928.35 168.63 461.94 624.44 1010.80 390.43 1198.37 417.19 1046.77 507.67 1002.84 627.01 1140.57 649.81
00055096 00000024 933.35 170.91 456.12 624.76 1010.58 393.95 1198.32 420.49 1046.02 512.34 1002.60 630.94 1139.36 653.83
00055097 00000025 932.59 172.30 457.29 625.51 1009.89 393.91 1198.48 421.35 1046.14 513.73 1002.39 632.25 1138.39 655.89
00055098 00000026 932.50 171.34 456.04 622.80 1010.68 392.91 1197.77 419.41 1046.23 510.82 1002.62 628.70 1139.10 651.58
00055099 00000027 933.10 163.91 457.31 627.43 1011.71 390.34 1196.04 416.39 1044.13 506.74 1003.87 625.41 1139.56 647.89
00055100 00000028 935.73 166.32 454.90 619.07 1013.40 386.10 1196.22 411.66 1045.77 501.14 1004.90 620.73 1138.85 642.66
00055101 00000029 934.60 161.78 458.28 625.12 1012.91 384.37 1197.79 408.50 1045.26 496.94 1003.66 619.38 1139.59 640.37
00055102 00000030 933.29 162.18 460.15 623.95 1011.98 382.41 1198.24 407.65 1043.72 495.55 1001.41 617.38 1139.43 639.26
00055103 00000031 932.01 161.46 462.02 626.48 1011.69 382.85 1197.92 408.60 1042.36 494.60 999.96 617.38 1137.18 639.70
00055104 00000032 930.70 162.33 461.48 626.23 1011.77 385.47 1196.55 411.53 1042.73 496.66 1000.63 618.40 1136.43 640.78
00055105 00000033 929.06 166.55 463.33 623.05 1011.39 388.55 1196.30 414.38 1042.93 498.42 1000.83 620.14 1137.54 642.31
00055106 00000034 928.03 175.97 462.73 613.87 1010.04 391.00 1196.50 417.47 1043.69 502.50 999.57 623.30 1136.44 645.92
00055107 00000035 930.44 182.92 456.06 607.59 1010.68 394.13 1197.01 420.41 1045.32 504.84 1000.94 627.00 1135.27 649.40
00055108 00000036 930.69 183.12 455.86 606.98 1012.17 394.23 1197.35 421.52 1045.91 505.37 1000.80 626.80 1134.54 650.08
00055109 00000037 931.47 183.80 454.72 606.79 1013.10 394.01 1198.03 421.45 1046.45 504.44 1001.13 625.64 1135.16 649.06
00055110 00000038 931.60 184.99 455.83 603.52 1014.34 393.97 1198.78 420.62 1047.25 501.32 1002.20 622.27 1136.69 645.08
00055111 00000039 930.68 180.32 458.73 609.29 1013.72 392.74 1198.82 419.55 1046.38 499.28 1001.22 621.55 1136.65 644.46
00055112 00000040 931.10 179.05 459.02 609.98 1014.04 391.87 1199.18 418.68 1046.51 497.99 1001.22 620.32 1136.77 643.24
00055113 00000041 928.67 180.16 460.44 608.27 1013.85 392.10 1199.33 419.30 1046.81 497.34 1000.53 620.16 1135.72 643.30
00055114 00000042 928.40 174.24 459.60 613.19 1013.53 392.65 1198.36 419.69 1045.84 497.18 999.60 618.69 1135.31 641.77
00055115 00000043 925.41 172.76 461.87 618.44 1012.52 391.77 1197.95 419.24 1044.64 495.45 997.38 618.47 1134.44 641.84
00055116 00000044 924.87 171.27 460.49 616.77 1012.74 388.19 1197.79 418.50 1044.38 493.61 995.50 614.08 1132.56 639.69
00055117 00000045 924.11 169.14 460.05 616.78 1013.44 385.97 1197.08 417.83 1045.04 492.26 994.75 612.23 1129.51 639.18
00055118 00000046 926.62 171.30 456.90 605.32 1016.06 381.25 1206.95 413.96 1042.82 488.21 983.65 608.05 1129.68 635.97
00055119 00000047 924.80 170.40 461.03 608.44 1014.48 381.88 1197.36 415.56 1044.09 487.67 993.89 606.19 1126.16 634.88
00055120 00000048 925.54 173.12 461.31 596.19 1019.13 378.00 1209.11 412.29 1045.09 483.79 984.63 601.62 1129.25 631.03
00055121 00000049 925.90 164.35 462.26 608.48 1016.93 379.18 1199.69 413.97 1045.97 485.32 994.96 600.76 1128.08 630.40
00055122 00000050 925.49 162.32 463.41 610.49 1017.20 377.94 1200.58 413.34 1046.73 484.47 994.10 600.74 1128.37 630.94
00055123 00000051 926.95 160.07 461.31 604.39 1017.73 375.49 1201.47 411.75 1049.03 484.68 994.03 597.29 1129.76 628.29
00055124 00000052 929.47 155.75 459.19 602.71 1017.92 374.00 1202.64 410.09 1050.00 483.76 994.16 595.08 1132.12 626.01
00055125 00000053 932.30 152.87 459.03 607.30 1020.20 372.71 1204.13 408.02 1051.48 482.38 995.72 594.60 1136.08 624.96
00055126 00000054 937.20 152.31 457.10 612.08 1023.47 374.40 1204.03 406.70 1052.10 479.64 1000.63 595.62 1136.56 623.47
00055127 00000055 940.29 150.29 452.80 614.13 1026.72 374.90 1205.99 405.05 1054.97 478.79 1004.96 598.14 1138.38 624.36
00055128 00000056 942.89 147.72 451.24 613.29 1026.92 374.49 1207.47 405.03 1056.13 479.18 1004.82 598.98 1140.16 625.75
00055129 00000057 946.20 149.04 449.62 612.31 1027.92 375.85 1208.42 404.26 1056.92 478.39 1006.80 600.98 1142.11 626.03
00055130 00000058 948.12 149.77 449.53 613.73 1028.83 376.99 1209.08 404.27 1058.30 478.23 1008.56 602.19 1143.94 626.25
00055131 00000059 949.42 148.17 447.87 614.95 1029.50 377.88 1210.01 404.87 1059.41 479.29 1009.50 603.66 1144.17 627.61
00055132 00000060 948.63 147.34 448.48 613.86 1029.16 377.43 1210.79 405.03 1060.04 480.10 1008.91 603.71 1144.15 628.28
00055133 00000061 949.35 148.41 449.32 615.99 1028.89 378.08 1210.72 405.40 1059.72 481.08 1008.44 605.43 1143.51 629.77
00055134 00000062 949.29 150.38 450.46 614.82 1029.70 378.85 1211.57 406.64 1060.50 482.25 1008.78 605.47 1143.89 630.21
00055135 00000063 948.97 149.54 449.19 615.80 1029.87 378.50 1212.41 407.30 1061.52 483.16 1008.44 604.63 1143.86 630.32
00055136 00000064 949.00 149.86 449.90 614.95 1030.02 378.12 1212.88 407.20 1061.27 483.63 1008.35 605.00 1144.03 630.95
00055137 00000065 948.10 149.34 451.37 616.85 1030.18 378.55 1213.49 407.69 1061.23 483.77 1008.02 605.31 1143.42 631.41
00055138 00000066 948.78 150.00 450.85 617.34 1030.73 378.76 1213.86 408.25 1061.41 482.95 1008.36 605.29 1143.53 631.65
00055139 00000067 950.24 148.21 451.48 619.98 1031.28 378.48 1214.26 408.18 1061.75 483.09 1009.25 604.03 1145.52 630.64
00055140 00000068 950.31 148.04 450.25 620.50 1031.58 377.80 1214.98 408.26 1061.84 482.72 1008.84 603.74 1145.06 631.02
00055141 00000069 949.34 149.68 451.76 619.78 1031.95 377.68 1215.57 408.18 1062.19 482.18 1008.77 604.30 1144.25 631.61
00055142 00000070 949.18 148.96 451.99 620.35 1031.98 377.81 1216.00 408.27 1062.46 482.04 1008.63 604.08 1144.44 631.43
00055143 00000071 949.33 150.08 452.27 619.69 1031.99 378.34 1215.63 408.80 1062.11 482.10 1008.65 604.06 1145.06 631.33
00055144 00000072 948.14 151.67 452.12 617.82 1031.73 379.14 1215.77 409.26 1063.15 483.24 1009.08 604.54 1145.87 631.47
00055145 00000073 947.41 152.40 452.73 616.82 1031.79 379.05 1215.93 409.46 1063.41 483.59 1009.01 604.32 1145.73 631.43
00055146 00000074 947.04 152.36 453.80 618.62 1031.54 380.54 1215.52 410.42 1063.39 483.82 1008.87 605.48 1146.36 632.06
00055147 00000075 944.86 157.16 455.16 615.20 1031.25 381.35 1216.40 411.28 1064.04 485.49 1008.31 606.60 1147.13 633.06
00055148 00000076 944.94 157.55 455.46 615.73 1031.86 381.68 1216.53 412.22 1064.13 486.19 1009.00 606.95 1147.27 633.90
00055149 00000077 945.84 158.19 453.68 614.40 1031.21 383.09 1215.47 413.46 1062.98 486.40 1008.38 606.94 1147.14 633.65
00055150 00000078 942.29 158.08 456.06 616.86 1029.32 382.91 1215.34 413.15 1062.81 487.30 1006.67 608.21 1147.11 634.81
00055151 00000079 939.75 158.79 456.80 616.30 1027.35 384.40 1213.21 414.69 1060.81 488.17 1005.91 609.35 1145.84 635.76
00055152 00000080 936.43 161.02 458.59 620.35 1025.32 384.75 1211.98 415.74 1059.16 490.42 1004.74 611.02 1145.45 637.87
00055153 00000081 936.53 163.99 457.12 620.71 1023.50 384.70 1209.86 416.82 1056.96 493.18 1002.56 611.82 1143.79 639.48
00055154 00000082 932.47 165.82 460.00 619.75 1022.10 386.56 1208.28 418.84 1055.03 494.23 1000.23 611.75 1140.76 639.67
00055155 00000083 928.10 176.14 462.70 608.54 1018.25 388.32 1205.36 419.64 1052.66 494.39 997.78 612.89 1139.20 639.46
00055156 00000084 924.19 176.55 464.79 613.55 1012.83 390.68 1200.69 420.66 1047.24 496.29 994.60 616.90 1134.52 642.41
00055157 00000085 922.91 178.06 461.61 608.00 1011.32 391.46 1196.74 421.81 1044.94 497.11 994.35 616.29 1130.04 642.01
00055158 00000086 915.20 177.59 468.29 610.89 1006.15 393.19 1193.87 423.05 1044.12 497.60 990.95 617.34 1128.90 642.52
00055159 00000087 913.73 176.96 469.16 613.64 1004.13 392.67 1192.39 422.16 1041.51 497.43 989.83 618.48 1127.07 643.29
00055160 00000088 911.34 180.09 468.92 611.76 1002.34 394.02 1189.90 422.60 1040.25 498.99 990.07 620.76 1126.29 644.79
00055161 00000089 908.08 179.66 469.42 610.15 999.74 394.00 1188.05 422.59 1040.16 499.64 989.08 620.10 1126.78 644.06
00055162 00000090 907.55 181.47 466.88 611.51 999.03 393.77 1185.48 422.89 1037.72 500.11 987.94 620.89 1126.70 645.14
00055163 00000091 906.64 178.81 465.98 615.37 998.66 393.56 1184.74 423.27 1035.97 500.52 987.20 621.04 1126.04 645.69
00055164 00000092 910.49 177.06 457.18 608.26 998.18 391.04 1187.43 422.54 1030.05 499.82 972.28 615.28 1122.13 641.08
00055165 00000093 911.00 175.16 456.24 609.31 998.23 390.74 1186.43 422.45 1031.04 498.65 973.67 614.36 1122.93 640.32
00055166 00000094 910.61 174.02 458.64 610.66 998.93 389.51 1187.28 421.20 1032.05 497.38 973.69 613.27 1123.82 639.31
00055167 00000095 911.23 168.93 457.27 612.16 999.91 386.89 1187.60 419.97 1033.61 494.80 973.72 610.61 1123.53 637.85
00055168 00000096 911.35 166.27 457.48 607.91 1000.86 383.07 1188.75 418.46 1034.44 491.43 974.20 606.80 1121.37 636.07
00055169 00000097 911.95 168.69 458.15 599.98 996.99 379.17 1185.98 411.23 1029.50 487.53 979.75 604.47 1120.77 630.81
00055170 00000098 914.11 164.52 455.04 603.56 998.17 374.83 1187.16 409.93 1031.04 486.71 979.32 601.39 1121.21 630.33
00055171 00000099 914.15 162.81 455.21 604.63 998.55 374.23 1188.03 409.88 1032.21 485.39 978.93 600.55 1120.57 630.15
00055172 00000100 915.01 162.71 455.55 604.64 999.10 373.96 1188.66 410.38 1033.25 485.90 979.61 600.24 1121.22 630.60
00055173 00000101 915.82 163.76 456.86 602.98 999.86 374.11 1189.81 411.07 1033.13 485.18 980.51 599.88 1122.08 630.71
00055174 00000102 916.23 162.76 456.84 603.78 1000.45 373.41 1190.26 410.84 1033.91 484.97 979.96 599.78 1121.01 631.20
CROP_BBOX: 681 0 1761 1059
