Video ID: 	GVgZJnac3nA
H: 	1080
W: 	1920
FPS: 	29.97002997002997

FRAME INDEX X0 Y0 W H [Landmarks (5 Points)]

00006688 00000000 1313.02 76.61 393.56 588.20 1371.49 317.82 1521.18 338.00 1407.65 453.72 1400.07 522.78 1511.94 538.77
00006689 00000001 1313.40 80.77 397.52 584.27 1377.61 320.56 1528.14 343.26 1416.55 455.39 1401.56 523.75 1511.43 542.07
00006690 00000002 1316.88 87.79 399.78 582.55 1382.30 323.06 1534.55 346.35 1420.18 463.63 1403.43 528.57 1514.70 548.10
00006691 00000003 1322.23 81.53 402.77 602.24 1382.72 334.27 1544.38 353.30 1420.86 473.87 1405.06 543.07 1522.03 557.83
00006692 00000004 1322.83 86.67 405.83 608.58 1385.01 342.95 1547.16 362.74 1422.02 481.69 1405.84 551.45 1527.05 567.01
00006693 DELETE   1324.75 101.12 403.36 600.74 1390.13 352.21 1553.31 374.82 1436.32 496.89 1413.07 559.57 1539.88 577.15
00006694 00000006 1316.33 109.75 408.12 607.86 1384.93 368.38 1550.22 390.58 1434.87 513.49 1410.17 577.36 1535.51 595.33
00006695 DELETE   1305.39 131.67 406.47 598.30 1373.18 383.95 1539.77 406.44 1428.18 534.96 1405.17 596.52 1522.15 614.89
00006696 DELETE   1299.29 160.52 397.56 557.67 1366.66 399.68 1531.01 418.11 1416.77 547.79 1400.14 616.60 1505.43 631.77
00006697 00000009 1280.47 158.86 401.05 566.27 1354.57 412.19 1515.47 432.17 1411.24 562.46 1387.82 631.20 1507.10 645.95
00006698 DELETE   1270.17 179.98 406.33 557.33 1341.69 427.64 1512.62 440.12 1403.89 578.83 1381.37 635.41 1492.97 645.68
00006699 00000011 1261.36 172.88 402.04 580.14 1332.87 429.91 1492.42 450.23 1387.10 582.92 1374.82 641.77 1490.07 657.62
00006700 00000012 1255.51 176.76 401.23 581.16 1323.75 430.72 1482.78 449.89 1377.12 584.56 1368.66 641.01 1481.59 655.91
00006701 00000013 1249.38 174.24 402.59 584.93 1317.22 427.59 1476.82 444.90 1371.44 582.01 1364.55 636.95 1479.85 650.15
00006702 00000014 1242.23 167.56 411.28 594.29 1304.58 425.06 1471.43 433.39 1361.02 575.30 1359.52 633.18 1476.65 638.54
00006703 DELETE   1241.53 170.88 410.42 580.53 1310.33 412.36 1475.92 423.24 1366.64 560.01 1356.23 621.36 1472.20 630.42
00006704 00000016 1247.93 155.82 409.57 582.15 1315.84 402.30 1478.95 417.93 1369.53 553.82 1362.88 609.35 1480.20 622.32
00006705 00000017 1254.34 146.51 412.12 590.64 1326.47 395.49 1484.21 411.55 1376.93 545.09 1372.66 601.48 1491.51 614.33
00006706 00000018 1261.03 131.29 408.30 597.24 1335.02 385.56 1494.36 402.11 1388.79 535.12 1377.54 598.93 1492.40 612.40
00006707 00000019 1267.17 122.63 405.56 597.06 1345.35 379.44 1508.99 394.76 1404.11 524.18 1382.15 593.46 1501.31 606.14
00006708 00000020 1268.79 122.98 412.04 594.23 1349.05 378.30 1524.20 392.84 1416.85 532.86 1386.17 586.88 1509.16 598.81
00006709 00000021 1272.49 121.27 412.72 596.16 1354.53 378.13 1529.91 392.60 1422.97 534.25 1391.12 585.08 1514.24 597.35
00006710 00000022 1270.23 120.27 415.17 597.13 1359.13 377.13 1530.97 390.71 1428.16 519.59 1392.19 587.66 1522.01 598.83
00006711 00000023 1268.96 122.61 419.44 593.39 1360.15 378.77 1532.79 392.17 1429.12 523.22 1393.55 590.24 1522.72 601.24
00006712 00000024 1268.13 123.37 421.67 593.83 1359.43 381.93 1533.89 393.87 1429.58 524.53 1392.13 591.82 1522.34 601.78
00006713 00000025 1267.57 128.16 419.88 587.98 1360.97 383.62 1534.49 397.05 1431.86 526.00 1388.33 592.95 1513.29 604.60
00006714 00000026 1265.77 127.17 425.37 591.15 1356.10 387.02 1534.57 397.99 1425.85 535.61 1386.02 594.34 1509.74 603.99
00006715 00000027 1260.58 134.78 422.52 587.16 1356.31 390.71 1532.81 402.04 1428.97 529.88 1382.11 595.95 1511.66 606.34
00006716 00000028 1259.03 138.52 421.28 584.38 1353.20 394.00 1528.12 405.22 1423.70 533.96 1380.64 595.58 1511.02 605.58
00006717 00000029 1255.84 140.03 415.49 580.61 1348.78 395.21 1522.58 405.19 1420.99 535.39 1376.81 600.33 1499.28 609.61
00006718 00000030 1247.73 140.30 412.03 583.35 1339.17 395.21 1514.79 404.78 1413.87 535.68 1367.93 602.91 1490.06 612.06
00006719 00000031 1240.32 145.65 411.17 580.65 1332.80 402.22 1511.79 409.67 1410.49 540.28 1362.68 609.30 1482.32 616.92
00006720 00000032 1232.72 152.57 413.04 576.83 1326.74 411.06 1505.49 417.54 1403.17 547.28 1358.82 612.20 1478.23 619.30
00006721 00000033 1227.20 160.53 409.70 571.76 1318.90 420.95 1500.61 422.99 1398.26 557.18 1352.46 620.33 1472.88 624.00
00006722 00000034 1208.17 157.52 422.93 578.23 1306.90 425.69 1481.64 429.66 1389.70 567.89 1350.76 634.02 1475.86 636.90
00006723 00000035 1200.63 158.84 420.97 574.34 1298.86 427.88 1477.42 431.24 1384.34 570.43 1339.91 636.56 1468.32 639.30
00006724 00000036 1199.93 171.59 414.96 559.85 1292.55 432.41 1472.58 431.08 1374.20 571.87 1332.18 633.82 1451.71 633.31
00006725 00000037 1194.31 171.18 413.00 564.64 1285.52 429.46 1463.14 430.50 1365.03 568.75 1326.34 628.53 1444.77 630.31
00006726 00000038 1192.16 167.99 408.63 553.62 1278.38 421.02 1451.47 424.51 1353.05 559.85 1321.34 618.98 1434.38 623.25
00006727 00000039 1187.50 165.71 408.99 555.66 1267.89 412.29 1440.60 417.96 1339.59 557.57 1318.72 615.20 1433.71 620.94
00006728 00000040 1183.51 156.34 416.14 567.00 1266.35 405.25 1434.21 413.49 1332.18 548.66 1314.12 607.09 1432.51 614.27
00006729 00000041 1188.06 149.94 407.21 555.35 1265.86 396.30 1428.02 407.29 1327.44 542.40 1316.78 600.56 1426.16 609.97
00006730 00000042 1189.43 140.98 408.10 563.93 1265.71 388.72 1427.66 402.56 1324.06 537.33 1313.43 594.66 1426.02 606.22
00006731 00000043 1193.14 136.59 408.14 565.49 1269.55 385.23 1432.08 398.92 1329.28 533.08 1314.41 594.65 1428.10 606.03
00006732 00000044 1198.71 130.99 409.92 573.88 1271.03 385.30 1444.99 397.67 1338.72 541.31 1318.33 592.69 1436.22 602.14
00006733 00000045 1205.92 130.65 408.16 575.58 1278.45 386.72 1450.33 397.13 1346.75 540.02 1321.88 595.36 1436.89 603.56
00006734 00000046 1213.66 136.22 404.07 572.06 1286.41 388.54 1459.06 400.10 1355.22 543.10 1327.74 596.82 1447.87 606.18
00006735 00000047 1216.60 141.01 408.86 587.04 1299.74 394.73 1464.11 404.47 1367.96 540.73 1334.60 607.98 1461.87 614.31
00006736 00000048 1222.40 147.23 410.48 585.45 1307.35 402.99 1472.39 412.53 1373.91 546.63 1341.05 618.07 1469.94 624.60
00006737 00000049 1234.60 159.03 407.23 577.86 1313.59 409.80 1492.90 419.61 1385.76 556.47 1345.56 618.70 1466.53 628.07
00006738 DELETE   1235.40 168.45 419.53 593.90 1318.24 424.29 1501.17 431.84 1393.00 566.32 1349.43 632.27 1478.07 639.25
00006739 00000051 1236.98 163.27 421.98 596.73 1325.39 431.72 1502.36 440.61 1401.24 575.14 1358.50 634.41 1492.56 642.14
00006740 00000052 1243.76 179.93 409.07 569.18 1328.64 436.88 1513.08 439.14 1410.59 576.59 1362.47 631.63 1497.31 634.31
00006741 00000053 1244.40 164.73 421.71 598.75 1332.61 433.29 1506.99 440.80 1406.61 575.59 1368.84 634.39 1505.89 640.97
00006742 00000054 1243.30 161.39 419.96 594.54 1330.72 424.55 1507.11 434.64 1405.14 569.60 1367.24 627.83 1503.93 636.25
00006743 00000055 1247.79 166.00 417.76 583.67 1327.95 417.12 1504.59 424.64 1398.92 559.88 1370.28 617.20 1503.89 623.77
00006744 00000056 1249.90 158.76 413.64 581.77 1330.66 405.28 1503.67 415.93 1398.39 551.18 1371.18 606.51 1501.51 616.04
00006745 00000057 1254.33 144.24 408.13 593.06 1334.76 394.35 1503.13 409.41 1397.86 539.72 1369.47 595.92 1500.65 608.68
00006746 00000058 1262.03 127.48 403.71 599.33 1340.46 381.17 1506.24 400.99 1396.19 526.15 1369.76 585.37 1501.93 601.82
00006747 00000059 1267.91 117.87 409.68 605.90 1344.35 369.57 1510.28 391.20 1396.12 515.19 1371.23 577.86 1505.61 595.31
00006748 00000060 1275.41 115.56 399.81 598.61 1349.86 362.54 1515.18 384.07 1399.91 505.96 1374.15 572.19 1508.76 589.21
00006749 00000061 1285.06 113.29 393.64 598.93 1355.48 362.21 1523.35 385.85 1411.85 516.61 1375.67 569.49 1506.37 589.14
00006750 00000062 1289.73 111.60 401.56 600.23 1359.43 358.80 1526.86 382.08 1413.40 513.61 1384.12 565.35 1513.90 584.53
00006751 00000063 1296.69 111.10 402.45 587.38 1361.87 357.70 1528.33 381.50 1414.74 509.52 1387.16 560.57 1513.91 579.82
00006752 00000064 1302.51 115.88 406.79 581.82 1370.34 362.67 1533.57 385.33 1416.41 504.41 1385.95 559.40 1509.16 576.75
00006753 00000065 1304.76 110.76 397.33 589.05 1367.58 358.25 1532.11 386.58 1416.32 510.91 1387.40 563.12 1510.99 585.86
00006754 00000066 1311.22 115.14 398.26 603.08 1371.61 362.16 1535.97 391.72 1415.15 517.01 1392.03 572.30 1517.78 596.31
00006755 00000067 1314.21 122.28 400.42 606.89 1372.32 368.20 1533.42 397.18 1410.17 520.75 1395.76 577.19 1525.92 600.51
00006756 00000068 1312.13 137.26 397.40 589.69 1368.89 376.36 1526.06 406.79 1408.17 528.55 1392.85 580.91 1517.63 605.43
00006757 00000069 1306.64 145.29 395.95 575.77 1365.35 387.40 1518.79 411.21 1401.99 532.49 1387.43 592.19 1515.40 609.97
00006758 00000070 1299.37 150.06 395.68 577.60 1360.78 392.16 1513.56 419.01 1396.04 538.34 1384.79 598.64 1510.87 618.42
00006759 00000071 1292.83 154.13 394.28 578.39 1354.24 399.39 1506.79 427.10 1390.15 548.59 1380.14 613.59 1499.78 633.73
00006760 00000072 1287.24 162.73 399.31 583.47 1348.53 405.29 1502.49 433.73 1383.62 557.89 1376.50 623.23 1491.69 644.80
00006761 00000073 1280.88 163.79 396.57 563.25 1341.36 413.62 1493.60 442.68 1380.58 564.93 1370.98 628.18 1486.41 649.35
00006762 00000074 1275.61 172.90 400.19 569.79 1337.58 420.47 1490.59 447.18 1375.21 571.14 1369.57 634.24 1484.18 653.78
00006763 00000075 1273.57 176.28 393.08 566.21 1334.50 420.99 1483.01 450.31 1366.30 575.01 1368.90 628.79 1479.50 650.54
00006764 00000076 1265.25 170.15 383.68 584.40 1318.86 424.93 1478.13 449.37 1362.88 582.74 1356.60 632.31 1473.17 650.57
00006765 00000077 1261.96 165.66 393.22 601.50 1314.67 419.14 1473.39 444.28 1353.00 575.52 1349.84 628.70 1469.30 648.00
00006766 00000078 1258.33 162.89 396.29 601.99 1313.00 412.67 1467.54 435.72 1347.20 563.16 1346.65 623.16 1460.17 641.16
00006767 00000079 1259.14 158.03 396.94 594.51 1312.49 408.50 1462.62 431.99 1343.13 554.24 1345.82 612.94 1454.24 630.61
00006768 00000080 1258.45 153.50 400.97 594.70 1313.82 402.25 1461.57 424.31 1339.01 545.42 1345.27 603.38 1455.44 619.59
00006769 00000081 1259.99 154.92 396.40 584.67 1314.64 392.31 1461.59 417.95 1341.75 541.35 1347.39 597.82 1458.72 618.39
00006770 00000082 1263.56 151.01 387.57 572.56 1317.31 386.01 1465.02 412.00 1347.57 532.38 1349.31 590.58 1458.45 611.05
00006771 00000083 1266.70 140.65 389.84 583.85 1322.82 378.78 1469.39 403.35 1352.46 524.76 1352.83 588.76 1461.76 607.76
00006772 DELETE   1269.34 128.00 389.53 590.51 1329.31 375.08 1475.34 400.74 1359.65 519.81 1360.00 584.95 1467.76 604.87
00006773 00000085 1274.91 125.55 385.16 594.27 1338.91 372.66 1483.76 400.64 1368.10 517.51 1366.58 584.03 1472.15 606.13
00006774 00000086 1279.40 123.61 393.38 589.29 1347.85 373.65 1496.44 400.58 1381.05 519.93 1375.50 584.75 1483.47 605.81
00006775 00000087 1285.18 122.28 395.09 592.43 1354.99 371.71 1505.28 396.93 1392.37 516.77 1383.04 583.93 1494.20 603.88
00006776 00000088 1286.14 124.05 399.35 585.29 1357.49 371.97 1513.06 392.32 1405.47 518.18 1392.65 592.53 1502.41 608.68
00006777 00000089 1287.51 126.96 401.93 585.51 1363.17 373.77 1522.25 393.75 1414.18 520.80 1395.39 592.49 1508.69 608.68
00006778 00000090 1291.80 124.07 409.27 588.68 1362.76 377.54 1534.33 394.99 1425.56 530.70 1397.13 589.94 1517.56 604.29
00006779 00000091 1284.77 127.58 412.98 599.99 1369.47 386.73 1536.61 399.60 1436.07 532.49 1396.84 604.85 1524.30 614.08
00006780 00000092 1282.18 140.17 422.03 591.47 1371.59 395.30 1539.88 405.86 1441.60 539.42 1401.43 611.66 1530.73 618.97
00006781 00000093 1275.86 151.43 426.62 581.19 1370.61 403.25 1543.60 414.34 1444.63 545.69 1400.04 616.94 1533.89 624.98
00006782 00000094 1269.59 153.63 430.17 589.99 1367.91 410.42 1542.64 422.27 1444.20 551.65 1395.44 620.01 1533.35 629.21
00006783 00000095 1264.92 159.43 428.85 595.58 1361.65 418.61 1539.57 429.33 1439.50 562.50 1392.84 631.68 1530.45 640.10
00006784 00000096 1260.48 161.21 421.53 591.17 1357.53 427.39 1533.74 436.58 1437.11 573.32 1391.88 638.10 1524.34 645.44
00006785 00000097 1258.23 179.14 417.06 568.18 1351.42 435.25 1534.17 436.17 1434.46 574.18 1385.63 638.13 1509.50 639.74
00006786 00000098 1250.15 171.06 413.90 580.19 1348.00 436.05 1523.97 444.37 1427.39 580.00 1380.98 635.19 1507.96 643.19
00006787 00000099 1243.35 185.22 413.35 553.29 1338.53 441.32 1522.09 441.87 1424.00 570.90 1368.32 633.69 1491.57 635.28
00006788 00000100 1224.99 169.81 417.91 569.29 1321.66 441.97 1495.80 445.70 1404.59 580.47 1374.31 644.11 1493.47 645.95
00006789 00000101 1219.03 177.32 419.95 552.33 1316.99 441.68 1489.90 445.28 1401.03 581.90 1368.06 647.88 1483.44 649.88
00006790 00000102 1224.00 179.70 404.73 540.73 1307.65 432.44 1492.14 429.23 1393.39 576.98 1351.16 642.72 1469.39 639.26
00006791 00000103 1208.98 166.89 419.07 558.58 1301.97 434.04 1480.10 433.91 1387.64 577.15 1352.55 642.65 1483.39 641.12
00006792 00000104 1205.01 162.30 420.86 576.59 1295.86 426.59 1473.32 428.04 1378.55 572.90 1344.66 639.58 1477.63 639.68
00006793 00000105 1197.66 157.52 422.68 584.99 1292.27 419.05 1464.30 420.74 1372.41 559.52 1337.30 629.19 1469.27 629.71
00006794 00000106 1195.92 152.10 417.89 581.28 1288.02 409.56 1458.64 410.56 1368.12 554.64 1333.49 623.93 1463.53 623.67
00006795 00000107 1194.81 140.30 420.00 595.65 1282.87 401.28 1450.76 400.35 1361.47 542.42 1329.95 613.43 1457.97 611.56
00006796 00000108 1195.48 124.83 420.08 605.98 1282.21 383.48 1447.67 382.83 1351.91 517.33 1328.70 591.14 1460.38 590.20
00006797 00000109 1199.81 107.84 414.14 606.40 1284.34 369.69 1448.34 368.33 1354.04 503.81 1331.43 581.46 1461.42 579.82
00006798 00000110 1202.80 96.62 408.14 595.27 1289.81 358.80 1453.08 360.55 1359.65 491.85 1332.68 574.54 1455.66 575.26
00006799 00000111 1205.02 93.34 414.08 586.93 1297.03 348.46 1457.68 351.78 1367.75 483.95 1340.37 566.17 1459.95 567.79
00006800 00000112 1210.80 88.93 420.78 583.41 1304.35 345.65 1469.34 349.72 1376.67 476.15 1343.21 556.43 1468.51 558.85
00006801 00000113 1218.63 86.13 423.07 587.66 1315.41 343.55 1481.03 345.38 1389.53 472.22 1354.29 552.56 1477.15 553.37
00006802 00000114 1233.25 85.57 418.06 590.91 1326.27 335.50 1498.35 341.25 1397.04 463.42 1359.40 544.52 1476.32 550.99
00006803 00000115 1244.19 84.37 416.56 588.60 1336.99 334.17 1510.65 340.00 1411.57 463.73 1370.32 544.95 1486.42 551.74
00006804 00000116 1252.44 84.75 413.22 584.96 1345.75 336.47 1520.03 341.12 1422.34 466.38 1377.22 545.83 1492.89 551.94
00006805 00000117 1256.69 86.74 416.16 581.10 1355.11 339.29 1531.23 345.55 1431.41 467.31 1382.38 544.10 1502.34 551.18
00006806 00000118 1258.55 89.20 418.76 582.48 1366.49 339.20 1535.61 346.13 1446.76 475.43 1394.68 557.00 1509.09 564.04
00006807 00000119 1263.66 95.39 422.11 578.61 1371.97 344.12 1541.70 350.91 1452.42 477.35 1401.67 561.11 1518.74 567.83
00006808 00000120 1267.41 97.55 424.26 581.55 1376.31 352.40 1547.47 358.03 1458.23 480.45 1405.93 564.80 1528.10 570.12
00006809 00000121 1271.97 100.15 422.35 585.87 1379.73 359.16 1549.53 364.86 1460.34 491.11 1411.12 572.41 1529.02 578.02
00006810 00000122 1274.25 106.76 423.07 587.97 1382.77 367.59 1554.27 372.11 1463.67 503.96 1415.67 578.49 1537.06 582.97
00006811 00000123 1275.09 114.38 425.19 601.32 1383.99 378.96 1557.63 383.26 1465.99 515.77 1417.24 587.35 1545.59 591.56
00006812 00000124 1280.62 122.50 423.27 606.20 1386.57 389.88 1561.88 393.40 1470.02 524.97 1415.89 595.31 1552.37 598.63
00006813 00000125 1288.52 134.57 421.42 593.55 1392.73 402.80 1570.84 407.55 1471.66 535.94 1417.50 600.86 1541.37 606.44
00006814 00000126 1288.19 148.23 416.94 574.04 1394.67 411.19 1573.45 414.37 1474.66 544.80 1418.57 609.25 1536.84 613.47
00006815 00000127 1279.94 164.18 415.73 555.26 1384.97 419.24 1561.45 418.08 1469.01 558.62 1419.54 624.84 1534.20 625.42
00006816 00000128 1280.67 170.78 414.36 555.18 1379.25 426.46 1558.55 424.28 1462.76 564.76 1414.99 631.87 1532.67 631.44
00006817 00000129 1272.86 164.04 419.69 575.04 1376.92 428.42 1554.01 431.90 1464.92 570.96 1414.27 642.09 1540.38 645.10
00006818 00000130 1270.51 167.28 422.01 583.93 1375.09 432.28 1553.83 435.09 1463.05 573.37 1412.05 645.44 1539.96 648.21
00006819 00000131 1269.97 166.38 423.01 592.91 1375.21 434.97 1552.52 436.37 1462.11 575.54 1411.95 645.17 1540.91 646.83
00006820 00000132 1268.27 168.49 424.77 578.78 1373.50 435.12 1553.39 435.07 1462.35 574.33 1411.58 640.45 1543.98 640.52
00006821 00000133 1268.25 163.53 425.62 577.80 1370.98 432.40 1553.65 433.54 1460.36 573.03 1407.69 641.69 1543.04 642.63
00006822 00000134 1279.05 172.81 414.19 551.43 1371.38 431.34 1552.42 429.67 1454.52 569.98 1407.71 635.33 1523.94 634.82
00006823 00000135 1267.53 157.58 420.66 589.39 1366.36 425.44 1545.54 431.54 1449.11 565.64 1399.22 623.03 1539.82 627.87
00006824 00000136 1268.65 164.74 418.30 574.44 1360.10 420.49 1538.66 429.20 1436.48 562.31 1389.39 621.08 1514.29 628.86
00006825 00000137 1266.33 151.80 412.99 588.61 1354.75 412.45 1525.05 426.60 1423.87 559.52 1384.26 618.10 1512.54 629.44
00006826 00000138 1264.27 160.88 411.19 575.68 1343.51 410.01 1513.82 424.02 1405.11 548.74 1373.91 608.69 1497.74 620.46
00006827 00000139 1262.74 159.76 409.89 573.36 1337.65 400.60 1501.98 420.92 1390.49 546.74 1367.65 601.79 1487.22 618.81
00006828 00000140 1262.20 156.28 403.90 576.12 1332.38 395.80 1492.18 418.91 1380.29 543.99 1362.03 601.59 1476.75 621.02
00006829 00000141 1260.36 151.98 400.07 576.17 1330.11 393.75 1489.40 416.40 1377.69 539.12 1360.45 600.03 1472.42 618.66
00006830 00000142 1261.61 152.18 393.63 565.40 1328.75 388.30 1482.82 412.34 1372.30 534.84 1359.51 598.10 1463.69 617.66
00006831 00000143 1266.65 149.62 389.47 550.57 1326.84 383.46 1479.83 410.56 1368.38 530.56 1356.69 593.30 1458.51 614.95
00006832 00000144 1266.15 146.19 395.24 566.35 1330.03 382.14 1480.32 410.00 1366.03 526.12 1357.45 590.65 1460.95 613.07
00006833 00000145 1267.66 140.58 396.16 583.67 1333.72 380.17 1483.73 407.79 1367.17 525.85 1360.95 592.38 1467.39 614.56
00006834 00000146 1271.11 140.10 394.06 577.47 1334.69 378.24 1484.12 407.39 1366.43 522.89 1360.54 588.36 1467.06 611.68
00006835 00000147 1273.76 139.43 391.98 573.33 1335.76 378.23 1484.87 405.85 1368.52 521.33 1362.18 591.50 1465.61 613.25
00006836 00000148 1276.49 141.58 390.56 568.47 1337.61 378.29 1484.86 405.09 1369.47 519.65 1363.73 592.90 1464.57 613.89
00006837 00000149 1278.02 139.43 396.18 581.07 1337.92 379.14 1489.28 405.13 1369.39 521.83 1365.79 598.12 1472.64 618.00
00006838 00000150 1281.25 140.06 392.22 570.29 1341.31 378.31 1492.11 403.81 1374.27 518.01 1368.80 597.50 1470.66 617.02
00006839 00000151 1283.29 134.76 397.04 583.62 1342.42 375.44 1497.71 401.30 1375.75 517.21 1371.18 598.12 1480.22 617.91
00006840 00000152 1286.84 133.62 396.37 597.53 1346.71 373.53 1503.54 398.47 1382.22 519.24 1377.17 605.76 1486.54 625.02
00006841 00000153 1288.49 128.07 394.48 595.58 1350.88 369.17 1505.79 397.21 1388.05 518.53 1380.55 597.75 1489.59 619.40
00006842 00000154 1293.54 132.77 398.31 599.79 1347.28 370.56 1509.79 397.24 1391.74 526.26 1378.89 600.84 1482.66 621.87
00006843 00000155 1292.15 132.63 404.39 597.12 1354.43 375.28 1517.15 401.62 1399.07 533.90 1386.19 590.30 1504.39 611.35
00006844 00000156 1287.37 141.38 401.63 584.97 1357.32 383.07 1516.63 407.12 1402.84 530.96 1389.21 601.17 1502.46 620.99
00006845 00000157 1278.25 144.46 410.49 599.46 1355.14 391.08 1518.26 405.98 1413.86 534.44 1384.32 608.69 1509.61 619.74
00006846 00000158 1271.51 147.62 415.84 603.54 1349.34 396.59 1518.62 409.19 1410.74 541.26 1378.95 615.66 1510.16 624.62
00006847 00000159 1266.80 147.71 410.13 599.72 1346.76 402.82 1517.56 417.61 1411.48 548.92 1377.39 620.68 1504.97 631.59
00006848 00000160 1262.83 165.38 408.29 567.62 1342.09 416.06 1514.15 425.88 1408.44 558.64 1378.98 628.45 1488.46 637.51
CROP_BBOX: 980 0 1920 930
