Video ID: 	Frnyng3nPJ4
H: 	1080
W: 	1920
FPS: 	25.0

FRAME INDEX X0 Y0 W H [Landmarks (5 Points)]

00011576 00000000 818.29 183.89 378.62 530.59 902.07 390.93 1070.16 433.01 942.38 505.78 880.76 570.03 1025.98 605.66
00011577 00000001 817.40 189.23 381.97 525.81 903.74 389.58 1070.93 439.62 940.22 503.85 874.69 568.87 1016.99 610.78
00011578 00000002 815.89 193.82 387.76 523.73 908.13 387.96 1074.01 445.97 938.94 506.79 873.67 566.73 1012.47 615.09
00011579 00000003 817.70 209.20 384.13 516.39 921.56 383.47 1079.41 458.93 950.48 508.41 871.57 558.00 1010.34 621.00
00011580 00000004 817.32 201.07 394.35 522.91 919.08 384.73 1082.71 453.32 944.61 505.56 877.80 561.22 1014.41 618.77
00011581 00000005 819.69 207.57 388.95 519.00 929.82 382.39 1089.81 459.78 957.90 504.96 874.23 555.00 1018.23 619.41
00011582 00000006 826.21 204.49 384.25 516.97 930.74 383.82 1091.44 457.46 960.76 505.07 881.94 553.55 1028.03 614.69
00011583 00000007 831.31 202.70 380.94 516.91 932.35 386.40 1095.61 451.91 965.52 503.97 887.29 555.43 1039.22 609.89
00011584 DELETE   838.68 201.53 373.33 513.81 934.45 395.62 1096.80 453.12 970.57 508.53 893.03 556.86 1051.66 604.40
00011585 00000009 843.51 205.78 371.57 511.48 935.81 398.17 1103.33 446.12 978.08 507.06 899.07 560.88 1065.01 600.51
00011586 00000010 846.50 203.65 371.19 518.79 941.44 399.59 1110.12 443.39 986.04 508.52 904.95 564.50 1071.30 600.74
00011587 00000011 845.50 201.44 372.54 522.88 941.88 397.81 1111.05 440.32 987.83 506.06 907.09 565.43 1072.37 600.55
00011588 00000012 843.67 199.70 370.69 520.66 938.67 393.73 1107.69 438.73 983.44 501.71 903.72 565.50 1064.04 602.75
00011589 00000013 841.10 199.25 370.40 514.10 935.60 391.72 1104.97 439.51 980.62 500.96 898.79 563.57 1057.80 603.54
00011590 00000014 838.01 198.56 373.38 509.92 933.77 389.99 1102.82 439.73 978.56 500.18 897.25 560.70 1055.39 602.42
00011591 00000015 836.04 196.61 373.21 513.61 933.71 389.19 1104.69 438.00 981.43 498.87 897.46 560.82 1058.68 601.83
00011592 00000016 835.57 195.08 371.99 516.26 935.37 388.19 1106.82 436.60 984.99 497.19 898.18 560.32 1058.42 601.26
00011593 00000017 834.55 195.23 374.63 512.65 936.40 385.99 1106.59 434.89 984.39 489.93 897.41 555.00 1056.56 596.48
00011594 00000018 835.29 192.75 377.26 507.27 937.83 374.66 1106.85 425.19 985.00 481.59 898.95 544.40 1057.53 587.09
00011595 DELETE   834.25 183.70 381.82 506.26 936.07 366.75 1104.32 419.90 979.75 469.49 894.92 534.72 1051.29 579.54
00011596 DELETE   832.98 179.82 376.94 502.64 932.28 361.53 1102.13 411.57 976.71 456.19 895.20 527.69 1050.85 570.20
00011597 00000021 836.80 171.61 381.80 505.69 937.26 359.59 1108.24 405.76 990.77 446.01 906.56 522.51 1055.59 560.95
00011598 00000022 842.29 170.70 373.03 506.90 939.62 360.18 1108.05 398.61 993.73 445.43 917.66 525.15 1062.98 556.39
00011599 00000023 839.43 167.56 374.30 513.27 938.59 364.45 1111.60 397.41 999.23 447.50 921.00 531.12 1067.65 558.05
00011600 00000024 833.86 171.05 381.89 512.94 936.75 368.76 1111.68 396.53 1004.68 453.99 925.78 540.09 1071.48 562.54
00011601 00000025 830.23 172.90 380.24 509.20 930.64 375.18 1104.41 395.79 1001.79 455.99 928.64 547.78 1069.60 564.87
00011602 00000026 821.08 162.50 381.61 520.95 912.65 371.23 1086.91 388.18 982.81 456.72 918.96 555.61 1058.70 569.45
00011603 00000027 812.60 160.79 382.22 522.46 903.90 364.43 1079.35 383.26 972.00 449.88 908.63 550.20 1042.79 565.76
00011604 00000028 808.91 157.44 381.91 520.23 897.65 360.70 1074.26 376.01 965.19 441.11 901.58 544.31 1041.85 557.17
00011605 00000029 806.54 158.30 382.23 523.24 895.19 357.56 1072.39 374.61 959.45 436.30 893.33 542.16 1038.61 556.98
00011606 00000030 805.07 161.61 381.56 530.80 893.30 359.92 1070.51 379.61 956.54 440.65 888.97 548.40 1033.65 565.57
00011607 00000031 799.11 170.95 379.61 526.47 890.20 366.92 1064.31 390.98 952.86 452.73 882.00 548.30 1030.72 569.15
00011608 00000032 796.23 178.97 379.31 518.28 890.04 375.95 1058.32 398.94 954.73 461.51 883.81 549.07 1024.62 569.08
00011609 00000033 790.92 179.01 383.54 530.77 885.58 384.61 1056.20 404.62 953.40 474.06 887.50 563.61 1031.88 581.13
00011610 00000034 788.72 181.33 378.19 522.27 877.43 385.28 1048.49 402.80 944.32 476.19 884.42 565.57 1021.01 580.94
00011611 00000035 783.54 179.58 373.19 522.50 870.98 381.16 1044.60 401.37 937.48 470.43 873.49 561.88 1011.50 579.14
00011612 00000036 780.19 177.95 373.77 519.65 865.76 381.68 1039.08 400.26 931.49 471.50 867.33 561.56 1006.92 577.19
00011613 00000037 777.49 177.46 376.39 524.39 864.20 382.11 1038.86 400.41 931.95 473.13 867.77 564.58 1005.83 580.05
00011614 00000038 777.62 182.37 375.05 522.13 865.66 386.35 1040.55 403.92 935.38 476.49 872.83 568.77 1007.82 583.68
00011615 00000039 777.29 183.30 377.34 523.91 867.89 389.71 1042.74 408.64 938.51 481.74 874.59 570.33 1010.69 586.34
00011616 00000040 775.86 184.48 377.80 522.18 866.46 393.10 1041.41 414.58 935.17 488.55 868.31 571.12 1008.47 589.11
00011617 00000041 775.90 186.20 375.52 522.60 864.98 395.83 1040.16 417.37 930.56 489.67 865.66 574.26 1007.06 592.23
00011618 00000042 771.98 188.92 377.18 528.03 865.07 400.32 1043.74 420.11 925.45 493.26 858.94 584.98 996.40 601.60
00011619 00000043 773.29 190.69 375.07 533.00 866.35 402.91 1044.79 423.12 927.04 499.14 861.30 587.24 1002.43 604.03
00011620 00000044 774.98 191.37 377.28 536.99 868.93 405.48 1047.04 424.17 929.68 502.60 864.17 587.04 1008.41 602.42
00011621 00000045 775.72 191.79 375.83 535.66 868.57 404.39 1046.88 423.71 928.66 502.26 862.56 586.03 1007.82 602.05
00011622 00000046 774.34 190.00 376.71 530.67 866.21 400.41 1043.38 423.04 924.60 499.50 855.65 580.21 1003.32 599.04
00011623 00000047 773.73 187.63 374.99 527.27 865.41 396.77 1041.93 423.43 919.97 496.40 847.37 574.70 1001.21 597.00
00011624 00000048 774.64 191.01 374.01 520.00 871.43 395.31 1043.53 428.12 922.83 495.95 845.35 566.61 1001.14 594.08
00011625 00000049 777.53 194.76 377.40 524.49 882.06 394.00 1052.00 436.89 928.73 495.43 845.53 561.84 1003.34 597.09
00011626 00000050 781.18 191.05 385.33 524.22 883.18 388.46 1054.65 440.25 929.11 487.85 851.65 562.61 1000.80 605.22
00011627 00000051 788.16 186.67 386.80 526.56 890.84 385.64 1058.11 443.75 928.79 486.82 851.40 562.41 994.87 610.14
00011628 00000052 796.46 184.03 384.81 527.56 895.70 384.54 1060.12 441.11 930.62 488.54 856.98 562.63 995.05 609.64
00011629 00000053 803.14 183.38 382.44 526.24 898.12 385.58 1061.41 438.40 934.01 494.73 863.22 566.67 999.90 611.01
00011630 00000054 808.31 187.11 382.69 521.67 898.71 389.40 1064.64 436.09 937.17 502.55 869.68 571.96 1008.00 611.45
00011631 00000055 812.43 190.74 380.82 520.08 898.52 395.33 1067.38 435.85 942.19 511.03 875.74 576.33 1018.18 610.77
00011632 00000056 810.30 189.34 383.09 523.67 896.67 399.07 1069.36 437.68 944.13 516.30 876.46 580.91 1023.58 613.56
00011633 00000057 807.99 187.80 386.05 522.97 894.87 399.53 1070.06 437.11 944.77 516.49 874.13 579.16 1027.19 610.98
00011634 00000058 807.94 187.50 386.23 524.80 897.25 398.91 1070.31 435.25 947.45 513.57 879.22 579.59 1027.46 610.43
00011635 00000059 810.13 186.27 384.79 525.69 898.03 398.39 1071.45 431.33 950.70 510.32 885.42 583.89 1027.33 611.98
00011636 00000060 810.44 186.03 385.50 524.52 900.18 399.01 1073.43 429.14 956.33 506.49 892.98 585.21 1031.36 611.08
00011637 00000061 810.06 183.83 384.90 528.48 903.32 398.53 1074.50 427.48 961.56 498.99 900.10 585.32 1033.01 610.53
00011638 00000062 809.94 185.54 383.06 530.11 906.82 396.86 1074.88 425.53 965.90 496.88 902.24 585.86 1030.14 611.25
00011639 00000063 808.52 183.97 384.23 534.57 907.66 395.11 1075.77 422.56 969.51 493.93 903.81 587.41 1029.89 611.83
00011640 00000064 807.73 182.57 384.81 534.13 907.30 393.10 1076.16 420.58 970.46 492.13 903.14 585.42 1029.90 609.60
00011641 00000065 808.66 181.27 383.70 528.20 905.45 391.38 1074.91 418.30 969.81 492.51 904.62 581.08 1033.75 604.42
00011642 00000066 806.87 181.56 383.81 527.47 904.36 389.74 1075.44 415.56 971.73 490.48 903.38 577.21 1038.38 599.55
00011643 00000067 806.07 181.96 380.95 526.94 904.75 389.56 1074.98 412.24 975.54 488.02 905.48 574.57 1042.82 594.41
00011644 00000068 802.54 180.86 383.19 528.11 903.37 388.21 1076.48 409.77 977.30 484.33 905.11 573.01 1047.06 591.65
00011645 00000069 800.48 182.09 383.02 526.95 902.95 387.25 1074.82 408.18 978.45 482.36 904.91 569.34 1048.82 587.33
00011646 00000070 797.89 182.35 383.38 530.05 901.72 387.33 1073.70 406.16 978.39 480.43 905.01 568.55 1051.33 584.73
00011647 00000071 793.34 182.12 385.22 535.29 898.91 386.52 1072.01 404.55 977.96 480.33 904.08 570.18 1051.50 585.66
00011648 00000072 790.14 180.68 385.19 540.97 896.69 385.68 1069.80 403.36 976.73 480.52 902.24 571.40 1049.95 586.71
00011649 00000073 787.49 180.29 385.79 544.96 894.47 385.95 1068.46 402.78 975.80 481.53 901.25 572.59 1049.82 586.96
00011650 00000074 786.07 180.60 386.38 546.88 891.71 386.13 1066.52 401.71 973.41 482.12 898.75 572.57 1049.74 585.69
00011651 00000075 785.32 180.26 385.12 549.18 890.58 386.27 1065.64 400.67 973.25 481.71 898.57 572.71 1051.03 584.76
00011652 00000076 785.09 180.71 385.21 550.67 889.17 385.50 1064.47 399.33 971.34 480.83 898.18 572.41 1050.99 583.96
00011653 00000077 784.79 180.39 384.15 551.78 888.71 385.16 1063.89 399.11 970.98 480.99 897.77 572.92 1049.55 584.60
00011654 00000078 784.42 180.09 385.54 553.35 887.67 385.34 1063.98 399.29 970.59 481.98 897.55 574.39 1049.82 586.00
00011655 00000079 783.99 178.54 384.34 556.21 887.06 386.69 1063.03 401.11 969.95 483.06 897.47 575.14 1049.57 587.00
00011656 00000080 784.00 179.09 383.67 556.46 886.47 386.97 1062.51 401.69 968.34 483.98 897.04 575.93 1048.31 588.11
00011657 00000081 783.91 178.08 382.06 559.77 885.69 386.97 1063.45 401.93 967.36 485.32 896.01 578.51 1048.02 590.92
00011658 00000082 782.11 178.28 381.70 559.43 884.42 386.98 1063.28 402.18 966.65 486.23 895.36 579.31 1046.60 591.98
00011659 00000083 781.77 179.47 381.76 556.70 883.50 387.08 1063.21 402.43 966.01 485.89 894.46 579.21 1045.25 592.11
00011660 00000084 780.50 180.65 382.20 550.99 882.24 386.55 1062.93 402.79 965.01 484.88 892.57 576.50 1044.14 590.17
00011661 00000085 781.56 183.40 380.01 532.87 882.76 389.37 1060.61 406.91 964.08 483.67 890.98 570.85 1043.24 585.80
00011662 DELETE   778.81 185.92 376.97 519.51 880.03 397.40 1055.82 414.51 960.03 484.49 886.81 566.37 1039.76 581.03
00011663 DELETE   772.05 176.08 378.21 526.66 864.36 390.62 1047.91 406.00 942.34 477.79 858.82 559.58 1028.11 571.25
00011664 DELETE   765.34 173.05 374.69 512.94 852.97 378.17 1029.51 396.95 906.71 459.47 839.14 549.12 998.31 565.15
00011665 00000089 767.57 161.47 368.94 517.24 848.98 365.58 1022.13 390.99 893.38 450.64 831.08 536.17 985.13 558.30
00011666 00000090 774.35 151.39 356.26 525.81 852.79 360.50 1024.96 385.09 904.44 443.01 843.80 532.70 993.45 555.19
00011667 00000091 786.28 156.23 360.47 528.11 870.71 369.87 1044.54 390.95 922.44 446.26 849.95 535.28 1008.19 552.01
00011668 00000092 790.47 159.33 365.81 529.89 876.03 369.62 1057.46 391.28 932.35 450.48 859.31 539.18 1025.39 555.38
00011669 00000093 794.35 155.02 373.83 534.45 870.24 368.86 1057.85 387.72 929.56 453.32 864.64 540.90 1033.85 557.09
00011670 00000094 790.03 162.01 381.09 532.44 866.91 373.73 1052.90 386.17 927.31 457.92 863.86 545.95 1031.65 556.99
00011671 00000095 793.68 168.34 371.91 524.67 868.23 374.00 1041.09 388.29 926.89 456.19 872.43 550.26 1020.18 563.15
00011672 00000096 794.25 172.40 370.08 524.26 866.34 377.26 1038.39 389.24 924.77 460.08 873.44 556.47 1017.02 567.58
00011673 00000097 792.89 169.13 371.95 526.17 865.90 379.10 1040.58 388.32 929.60 463.35 876.60 561.76 1020.85 570.45
00011674 00000098 792.54 168.65 373.25 522.18 865.06 379.19 1040.45 384.00 930.92 463.85 879.01 562.46 1026.68 567.23
00011675 00000099 790.16 170.51 373.78 527.10 863.72 376.42 1038.17 381.15 927.98 454.89 879.33 560.04 1022.00 565.23
00011676 00000100 788.31 170.62 373.65 526.46 860.74 374.86 1034.47 381.95 922.84 452.60 873.96 554.45 1018.37 561.39
00011677 00000101 787.84 169.12 370.00 530.25 863.13 377.97 1037.23 382.73 918.10 455.78 866.80 555.28 1019.11 556.75
00011678 00000102 787.80 168.24 367.68 525.75 863.59 377.49 1038.18 385.27 918.74 457.05 862.16 550.19 1019.86 554.13
00011679 00000103 786.42 165.80 370.15 525.05 865.20 376.00 1042.65 387.07 923.03 458.87 859.80 545.45 1023.01 552.08
00011680 00000104 785.30 166.71 372.48 521.18 865.11 375.64 1043.47 387.18 924.11 457.27 857.60 541.13 1024.66 548.16
00011681 00000105 784.87 167.85 373.88 517.06 863.67 375.27 1043.12 387.18 923.31 458.57 855.20 538.74 1026.80 546.21
00011682 00000106 784.21 169.45 372.35 515.19 861.77 375.53 1039.82 388.49 920.58 460.26 853.67 537.33 1025.53 545.67
00011683 00000107 779.81 171.97 371.49 514.95 858.33 377.89 1034.66 390.69 919.50 463.95 852.64 540.18 1022.28 548.26
00011684 00000108 776.21 175.62 371.41 516.14 855.19 381.04 1030.74 393.06 917.86 468.49 851.26 543.95 1021.20 551.43
00011685 00000109 773.65 175.32 372.22 517.48 851.61 380.67 1026.86 393.75 912.48 469.83 849.11 544.96 1018.70 553.22
00011686 00000110 765.60 175.07 373.31 515.45 845.50 380.28 1023.92 389.98 900.97 467.05 843.75 551.74 1013.50 559.66
00011687 00000111 764.88 175.60 374.05 515.91 844.47 380.80 1023.65 388.66 901.37 467.10 844.50 554.07 1013.42 560.52
00011688 00000112 764.59 175.00 375.73 516.23 845.02 380.63 1025.11 389.53 902.35 467.16 844.65 554.73 1012.40 562.03
00011689 00000113 765.07 173.21 377.43 519.76 846.36 381.62 1026.71 390.60 903.56 466.76 845.98 557.80 1011.22 565.30
00011690 00000114 765.72 172.91 377.08 523.56 848.52 383.53 1025.97 390.46 906.21 467.59 851.25 560.26 1005.65 566.42
00011691 00000115 767.50 172.59 376.79 525.61 850.21 387.14 1024.51 390.23 907.18 467.59 857.50 565.06 1001.48 568.21
00011692 00000116 768.64 172.73 375.19 524.20 850.83 386.85 1024.44 391.53 907.27 469.62 856.81 565.44 998.38 570.17
00011693 00000117 769.77 174.73 373.75 519.41 850.28 385.95 1025.44 391.89 905.54 472.25 853.50 566.23 998.31 572.15
00011694 00000118 769.24 174.97 374.50 518.81 850.01 386.88 1024.70 393.46 903.82 473.80 853.63 569.20 993.75 575.64
00011695 00000119 769.26 175.26 373.68 520.20 849.56 387.53 1024.68 394.61 902.90 475.39 853.80 570.55 992.96 577.33
00011696 00000120 768.39 176.27 374.58 523.17 850.13 388.92 1026.92 395.31 905.78 476.22 855.27 573.13 994.94 579.34
00011697 00000121 769.45 175.17 374.89 523.54 851.78 389.04 1029.58 395.53 907.72 477.09 855.87 573.37 998.67 579.75
00011698 00000122 771.77 174.34 371.91 530.44 856.72 398.20 1027.62 402.53 911.93 478.60 865.10 578.25 996.51 582.37
00011699 00000123 774.79 171.55 372.63 530.10 858.58 396.32 1031.65 399.53 913.24 474.36 865.94 578.10 996.37 581.24
00011700 00000124 785.10 167.12 370.93 527.07 861.58 389.46 1039.33 393.56 922.56 465.56 872.39 569.93 1011.40 572.31
00011701 00000125 785.07 163.32 372.17 527.35 865.64 382.33 1039.48 384.11 925.17 450.91 874.06 559.25 1009.57 559.79
00011702 00000126 785.54 157.53 372.10 527.58 867.99 375.95 1040.08 378.30 925.97 440.46 877.53 553.23 1008.54 554.25
00011703 00000127 787.96 157.37 368.99 521.98 869.32 375.05 1039.98 377.94 925.56 437.99 877.34 549.82 1007.37 551.45
CROP_BBOX: 522 0 1393 874
