Video ID: 	A6_QrpzutUM
H: 	1080
W: 	1920
FPS: 	25.0

FRAME INDEX X0 Y0 W H [Landmarks (5 Points)]

00053565 00000000 642.83 192.51 434.39 613.18 784.99 499.50 971.30 445.05 924.26 590.69 853.22 676.32 1011.93 632.12
00053566 00000001 643.69 195.28 433.99 609.67 786.58 501.77 971.02 446.98 924.84 591.37 853.74 675.43 1010.98 631.06
00053567 00000002 642.50 196.11 434.66 609.30 786.18 503.10 969.08 447.28 924.29 590.30 852.05 673.87 1010.76 628.59
00053568 00000003 642.51 195.76 434.20 608.42 786.08 502.99 969.08 447.23 924.19 590.40 850.64 672.57 1010.52 627.30
00053569 00000004 642.13 195.86 434.00 608.81 786.14 502.35 969.05 446.53 924.80 590.24 850.12 671.96 1011.31 626.61
00053570 00000005 641.97 197.28 432.47 610.73 785.82 501.11 968.07 445.54 924.65 589.50 849.19 671.84 1011.38 626.75
00053571 00000006 641.24 195.17 432.62 613.31 784.05 500.41 966.72 445.15 922.78 589.66 847.94 672.35 1010.12 627.57
00053572 00000007 640.91 194.05 434.23 613.41 784.03 501.00 965.51 445.61 921.89 589.82 847.63 671.89 1009.21 626.94
00053573 00000008 641.24 196.24 434.84 611.18 785.18 500.85 967.02 446.38 922.51 589.62 847.27 671.81 1008.21 627.76
00053574 00000009 644.45 195.84 431.43 613.03 787.75 499.33 970.27 444.62 926.10 588.19 849.60 671.67 1011.36 627.40
00053575 00000010 646.82 197.59 429.26 609.33 789.99 498.35 973.45 443.77 929.07 587.32 851.13 671.96 1012.34 627.97
00053576 00000011 646.90 194.87 427.54 619.11 789.58 496.34 972.23 442.53 929.05 585.33 851.38 673.33 1013.08 629.97
00053577 00000012 647.50 195.81 427.14 618.20 789.74 496.10 972.24 442.26 929.38 584.84 852.70 673.81 1013.66 630.49
00053578 00000013 647.62 194.75 427.54 617.77 790.01 496.98 972.83 442.51 930.12 585.41 852.66 673.75 1014.48 629.69
00053579 00000014 649.06 193.87 426.99 612.45 791.76 495.52 974.32 442.02 931.39 583.37 858.15 672.47 1015.33 629.06
00053580 00000015 648.40 190.32 429.41 612.13 792.16 493.48 976.40 440.88 932.00 581.54 862.56 673.57 1015.99 630.64
00053581 00000016 650.40 192.50 428.70 608.80 794.21 492.77 980.06 439.53 935.55 581.56 867.12 674.86 1020.81 631.18
00053582 00000017 652.97 192.29 428.50 612.21 797.13 492.71 981.49 438.05 939.19 580.15 870.43 675.84 1023.76 630.99
00053583 00000018 653.33 188.83 430.72 613.86 804.14 494.58 989.03 440.48 948.13 575.66 871.15 674.84 1025.23 630.33
00053584 DELETE   655.48 188.10 430.55 606.13 810.07 494.37 993.97 437.32 956.19 575.80 876.31 670.81 1029.29 623.71
00053585 DELETE   659.19 187.21 432.66 602.09 816.59 492.48 997.43 431.26 963.65 570.58 886.42 670.40 1033.86 619.86
00053586 DELETE   661.10 179.71 436.43 607.89 821.27 491.68 1000.54 424.46 970.76 567.70 893.82 669.96 1039.88 614.45
00053587 00000022 664.40 181.40 434.79 606.18 824.34 490.36 999.84 420.54 974.63 563.98 898.26 669.63 1041.32 612.15
00053588 00000023 670.20 179.67 430.54 606.25 828.58 489.06 1002.20 419.94 977.04 562.29 901.06 668.22 1043.48 611.20
00053589 00000024 671.54 182.94 429.78 603.13 831.25 489.65 1002.92 419.98 979.47 563.49 901.80 668.00 1043.61 610.45
00053590 00000025 671.47 184.03 430.46 599.91 831.97 488.72 1005.00 420.40 980.42 562.34 903.06 667.57 1044.33 611.14
00053591 00000026 672.77 184.20 429.93 597.97 833.02 487.39 1006.77 420.34 980.82 561.75 903.38 666.89 1044.48 611.48
00053592 00000027 674.01 182.88 429.28 599.71 833.77 486.29 1007.54 419.95 981.03 561.74 904.18 667.55 1044.36 612.74
00053593 00000028 675.63 183.33 427.62 599.58 835.02 485.89 1007.81 419.99 981.72 561.31 905.63 667.74 1044.51 613.31
00053594 00000029 676.03 181.91 428.39 602.76 835.65 484.48 1009.28 419.23 982.35 560.95 905.39 667.85 1045.00 614.05
00053595 00000030 677.54 178.00 427.01 605.57 837.99 483.57 1009.66 419.03 983.21 560.77 907.70 667.70 1044.63 614.45
00053596 00000031 679.93 176.18 425.16 604.99 840.13 480.67 1010.43 416.00 984.42 557.15 911.34 666.44 1044.85 612.96
00053597 00000032 679.45 173.96 425.03 604.03 840.65 475.97 1009.96 408.63 987.64 550.27 914.04 665.26 1045.78 609.74
00053598 00000033 678.16 167.70 428.03 607.49 841.64 464.21 1012.66 399.89 988.36 544.73 910.68 659.82 1045.54 607.01
00053599 00000034 678.05 155.62 437.63 616.60 843.77 448.78 1016.09 390.16 987.87 531.32 913.43 653.69 1047.03 605.15
00053600 00000035 683.47 154.55 439.80 619.45 849.95 439.33 1019.46 386.72 990.03 520.76 916.06 646.59 1049.87 602.51
00053601 00000036 687.76 156.86 437.83 614.12 853.42 438.62 1024.39 387.97 995.16 519.86 917.77 644.07 1053.52 601.21
00053602 00000037 693.89 159.99 432.12 611.51 860.55 443.21 1030.96 394.98 1002.34 526.44 920.51 645.86 1057.86 604.82
00053603 00000038 701.69 158.20 425.46 617.59 868.71 440.56 1041.45 400.56 1010.86 528.68 923.03 647.55 1062.28 612.90
00053604 00000039 714.40 159.61 420.31 619.04 876.48 430.44 1046.83 403.12 1012.58 527.12 925.24 632.90 1069.80 610.59
00053605 00000040 716.98 152.35 423.50 626.22 886.23 419.61 1053.19 400.07 1017.07 521.22 924.68 626.83 1067.27 611.17
00053606 00000041 724.82 144.47 420.23 627.81 894.08 414.78 1058.29 399.14 1023.07 516.73 928.31 620.41 1067.59 607.57
00053607 00000042 730.99 138.30 420.75 635.37 902.70 411.22 1067.06 400.76 1029.28 519.48 931.87 620.36 1071.66 611.30
00053608 00000043 735.61 146.36 422.36 633.09 910.12 415.04 1073.81 405.30 1033.99 528.93 936.77 627.97 1075.25 619.40
00053609 00000044 740.13 143.30 424.04 641.29 913.80 417.67 1079.46 411.42 1035.04 533.52 935.98 631.86 1074.13 626.19
00053610 00000045 745.30 139.32 423.28 647.31 920.09 413.37 1083.31 411.94 1037.51 531.71 938.34 630.40 1073.06 628.49
00053611 00000046 747.13 132.71 429.64 655.45 923.11 405.53 1089.70 411.06 1041.15 524.32 933.63 623.07 1075.21 626.44
00053612 00000047 750.62 131.29 431.44 652.33 928.22 402.08 1095.49 411.76 1044.31 518.59 938.29 617.71 1077.37 624.04
00053613 00000048 754.14 135.41 432.15 647.15 931.90 401.68 1100.43 414.38 1046.43 518.09 939.38 615.53 1080.25 624.30
00053614 00000049 754.54 131.78 432.57 651.26 932.21 401.09 1101.23 415.78 1045.81 519.63 938.40 615.75 1078.86 626.07
00053615 00000050 754.28 127.23 433.85 654.60 928.74 395.77 1100.92 414.82 1041.67 514.84 930.93 611.79 1074.79 625.69
00053616 00000051 754.76 122.45 433.14 663.09 928.02 388.40 1102.05 410.68 1041.60 508.98 924.45 605.46 1077.30 621.90
00053617 00000052 753.61 119.09 434.56 667.23 927.05 383.66 1102.84 408.18 1040.20 505.47 921.04 603.16 1075.97 621.40
00053618 00000053 752.73 121.87 433.34 663.09 926.13 387.00 1100.63 410.47 1039.53 508.19 921.23 603.87 1074.91 621.32
00053619 00000054 751.74 126.66 432.54 656.90 923.92 393.41 1096.80 413.24 1036.71 514.29 923.20 608.29 1073.10 622.73
00053620 00000055 752.14 131.02 431.49 645.33 918.12 397.94 1099.17 413.68 1030.82 515.47 927.37 610.81 1077.38 623.08
00053621 00000056 751.23 131.19 430.28 641.40 915.02 393.27 1099.20 406.80 1029.68 513.47 925.94 608.57 1076.70 619.42
00053622 00000057 749.09 128.91 427.91 640.53 908.97 389.99 1094.60 403.22 1024.43 507.61 923.91 605.94 1072.75 616.74
00053623 00000058 744.62 126.62 427.71 643.54 903.87 390.34 1089.72 402.78 1018.84 506.47 919.87 605.36 1067.56 615.78
00053624 00000059 742.78 131.15 427.64 641.06 899.70 392.72 1085.82 403.25 1015.24 508.35 917.01 607.35 1066.44 616.31
00053625 00000060 741.08 133.89 427.96 636.17 897.23 394.73 1083.74 404.25 1013.05 508.77 916.25 607.18 1065.13 615.36
00053626 00000061 740.45 133.53 427.71 633.19 896.86 394.57 1083.62 404.69 1013.37 509.61 914.70 606.61 1063.53 615.38
00053627 00000062 735.83 132.54 428.05 634.97 900.91 390.35 1075.87 408.29 1012.84 510.97 907.14 603.92 1054.74 617.44
00053628 00000063 734.94 133.26 428.79 639.62 898.01 391.55 1075.40 408.81 1010.65 512.04 903.48 607.28 1053.61 620.32
00053629 00000064 732.74 132.32 430.16 650.23 898.78 391.32 1073.78 410.25 1010.93 512.34 901.97 609.54 1051.44 624.00
00053630 00000065 731.89 132.61 429.31 652.00 896.35 391.15 1072.14 409.11 1009.40 512.73 898.58 610.58 1050.41 624.38
00053631 00000066 731.99 133.88 427.67 647.76 894.20 390.56 1070.39 407.84 1006.67 512.85 896.85 609.86 1049.31 623.27
00053632 00000067 733.92 132.65 426.74 645.81 892.70 389.97 1072.50 406.67 1006.07 514.15 895.21 609.51 1050.97 622.49
00053633 00000068 734.91 133.49 425.99 641.42 892.16 390.15 1072.34 406.15 1005.53 513.08 896.41 608.69 1052.25 621.06
00053634 00000069 736.06 133.64 424.28 639.35 892.22 391.56 1072.40 406.90 1005.96 513.96 898.07 609.45 1052.77 621.30
00053635 00000070 736.41 134.19 423.82 636.97 891.99 391.66 1073.35 406.80 1006.68 514.16 898.64 610.24 1052.62 621.93
00053636 00000071 736.26 133.77 423.84 637.79 892.01 391.88 1074.09 406.94 1007.44 514.54 898.89 610.40 1053.71 621.98
00053637 00000072 736.57 134.49 423.47 637.51 890.94 391.44 1075.61 406.27 1008.30 514.87 898.08 611.62 1055.76 623.05
00053638 00000073 736.21 135.60 423.16 633.56 889.77 391.27 1074.95 404.48 1007.77 512.87 899.94 611.29 1057.47 621.22
00053639 00000074 735.18 134.08 424.17 642.08 890.77 390.02 1071.91 402.34 1007.40 511.23 903.52 613.29 1056.48 622.38
00053640 00000075 733.28 134.71 426.76 652.13 893.75 390.24 1068.89 403.48 1006.06 509.98 906.87 619.07 1048.23 629.33
00053641 00000076 732.46 132.93 427.74 660.14 895.31 389.57 1069.46 404.11 1008.02 510.62 905.02 620.88 1048.39 632.34
00053642 00000077 732.10 133.26 427.24 657.05 893.53 388.32 1069.15 404.78 1006.10 510.07 900.70 617.67 1047.35 630.66
00053643 00000078 732.42 133.75 426.17 651.22 891.91 388.60 1069.04 405.54 1004.56 510.72 897.61 614.84 1046.06 628.18
00053644 00000079 731.36 136.19 426.07 649.98 892.08 392.08 1069.42 407.43 1006.00 513.08 897.56 616.87 1047.19 628.86
00053645 00000080 730.28 138.55 427.10 649.97 894.01 396.19 1071.24 409.99 1009.80 516.29 900.18 620.20 1049.71 630.95
00053646 00000081 731.12 140.26 428.80 649.47 900.42 398.61 1074.48 411.85 1017.19 518.71 907.08 622.09 1053.27 632.46
00053647 00000082 732.75 145.01 430.64 643.04 909.79 401.25 1079.21 411.71 1029.21 523.98 917.11 624.72 1059.51 633.04
00053648 00000083 740.21 149.56 430.12 636.11 922.90 405.70 1088.71 410.27 1044.06 528.08 931.69 628.50 1071.17 632.13
00053649 00000084 744.33 155.96 433.51 627.75 932.23 415.81 1100.87 420.34 1055.65 530.83 941.31 632.08 1081.65 635.41
00053650 00000085 751.05 160.93 428.54 627.48 945.23 419.56 1109.63 424.98 1069.64 535.91 955.10 636.73 1090.32 640.39
00053651 00000086 754.52 164.75 436.97 636.29 954.98 419.78 1125.79 427.38 1087.05 539.54 966.92 639.30 1107.57 644.19
00053652 00000087 757.64 165.74 436.02 637.27 963.64 425.44 1132.20 432.05 1100.11 542.42 972.00 641.38 1115.34 645.93
00053653 00000088 767.66 158.71 434.01 652.38 967.89 430.16 1135.82 433.47 1097.71 541.38 973.59 637.67 1118.90 642.12
00053654 00000089 768.68 160.24 434.84 657.81 970.54 433.42 1139.60 435.50 1102.51 547.04 972.38 642.49 1120.01 646.21
00053655 00000090 768.37 161.31 437.48 657.96 972.93 434.75 1141.35 437.38 1103.42 551.14 972.75 644.12 1119.63 648.51
00053656 00000091 769.55 161.87 437.73 658.01 973.44 437.79 1142.00 440.76 1103.62 553.12 975.58 646.35 1120.94 650.84
00053657 00000092 770.39 166.48 436.95 654.89 974.71 440.83 1141.91 444.59 1103.17 556.90 979.04 649.06 1120.79 653.92
00053658 00000093 771.51 164.69 435.71 655.81 974.87 444.30 1141.78 445.96 1102.87 558.07 982.33 651.73 1121.65 654.64
00053659 00000094 772.92 163.75 434.52 653.90 975.29 445.50 1143.04 445.34 1104.00 558.51 986.93 653.65 1123.48 654.81
00053660 00000095 773.52 163.80 432.88 653.17 974.26 444.35 1143.39 442.48 1104.79 558.76 988.71 655.79 1125.41 655.42
00053661 00000096 772.44 161.18 434.65 654.88 972.98 441.71 1143.44 439.52 1103.97 555.25 990.59 655.39 1126.73 654.76
00053662 00000097 771.48 162.17 433.73 652.55 973.26 441.93 1141.28 440.40 1102.87 552.12 990.90 652.87 1124.84 652.77
00053663 00000098 770.58 163.46 434.00 650.17 970.43 439.37 1139.47 438.26 1100.92 550.87 987.03 650.97 1123.97 651.40
00053664 00000099 765.93 167.64 436.03 632.59 968.84 437.11 1138.61 438.59 1106.11 548.40 988.36 653.81 1125.74 653.56
00053665 00000100 765.75 166.75 434.09 630.73 967.51 437.12 1136.36 437.58 1105.40 547.42 988.38 652.46 1125.51 651.41
00053666 00000101 764.41 165.91 433.98 632.06 966.75 441.45 1133.32 440.12 1104.46 546.51 990.39 654.04 1124.52 651.58
00053667 00000102 764.57 167.99 433.55 638.20 968.88 444.70 1131.28 442.04 1104.81 546.32 992.98 658.20 1122.93 654.66
00053668 00000103 764.01 171.38 433.50 639.34 970.78 447.93 1132.91 444.88 1107.26 549.20 993.99 661.43 1123.44 657.41
00053669 00000104 764.28 171.80 435.36 640.19 970.25 449.63 1137.48 445.83 1110.73 553.52 994.01 664.53 1128.59 659.87
00053670 00000105 771.06 167.83 431.15 650.91 967.52 452.31 1141.23 446.32 1102.66 557.51 988.23 658.64 1127.12 654.48
00053671 00000106 772.87 170.81 427.80 637.90 966.71 453.26 1140.06 445.55 1101.58 556.19 991.30 658.60 1126.92 653.22
00053672 00000107 775.33 170.82 424.49 634.80 967.39 453.11 1138.14 445.55 1099.64 554.14 993.74 657.08 1126.44 651.83
00053673 00000108 768.85 173.03 428.92 625.40 967.62 452.59 1136.55 445.85 1108.66 553.17 997.95 665.23 1128.80 657.98
00053674 00000109 770.06 174.23 429.23 621.68 967.71 451.31 1137.19 444.31 1108.70 552.10 998.37 664.09 1129.31 656.70
00053675 00000110 771.96 171.98 428.49 622.06 966.21 449.05 1138.64 442.74 1107.66 552.20 996.40 664.04 1129.36 657.34
00053676 00000111 770.74 171.37 430.08 628.26 968.24 446.52 1138.75 441.73 1109.47 551.30 995.30 663.80 1127.73 658.60
00053677 00000112 770.48 169.34 428.12 631.69 968.82 445.49 1137.33 440.14 1110.29 551.01 997.18 663.90 1128.21 658.06
00053678 00000113 770.96 168.16 427.52 630.18 968.14 445.06 1138.91 439.22 1110.69 550.47 997.10 663.33 1130.22 656.98
00053679 00000114 770.14 166.69 428.92 628.18 968.76 444.44 1138.66 437.26 1111.63 547.71 999.37 661.40 1130.83 654.06
00053680 00000115 771.52 169.23 429.66 623.73 971.41 443.71 1140.31 435.73 1115.27 547.44 1000.28 659.99 1132.60 652.31
00053681 00000116 776.84 166.99 427.06 634.26 969.03 443.28 1140.22 434.19 1104.74 546.38 994.56 650.28 1133.31 644.05
00053682 00000117 775.64 168.64 427.85 632.00 968.08 441.35 1139.00 433.44 1103.05 543.96 994.41 650.94 1130.47 645.85
00053683 00000118 770.79 169.44 428.93 620.93 974.38 445.41 1135.04 435.24 1106.77 542.64 998.60 654.56 1125.60 645.40
00053684 00000119 775.44 165.86 427.20 627.21 965.12 439.75 1137.44 427.96 1101.85 539.56 998.81 648.12 1134.24 639.63
00053685 00000120 769.60 167.01 431.89 615.65 967.55 439.64 1138.36 429.40 1112.24 538.86 1001.53 654.31 1133.11 644.87
00053686 00000121 775.18 167.30 428.05 625.11 965.18 439.31 1135.50 427.02 1100.43 538.29 999.88 646.26 1134.25 637.20
00053687 00000122 774.84 167.54 428.68 622.67 966.05 440.56 1135.48 427.37 1101.14 538.22 999.85 643.83 1134.20 634.00
00053688 00000123 774.79 167.91 428.73 620.81 965.59 441.22 1136.10 427.20 1101.63 538.16 999.52 643.01 1135.39 632.49
00053689 00000124 775.02 166.89 428.72 622.18 964.37 441.67 1135.90 427.54 1100.67 538.41 998.38 643.28 1135.85 632.69
00053690 00000125 773.84 166.48 430.50 622.97 962.42 442.98 1135.97 428.79 1099.36 538.68 996.40 643.49 1134.87 633.00
00053691 00000126 773.02 165.30 431.38 627.93 962.75 442.80 1135.06 429.65 1099.30 539.63 995.43 644.82 1133.50 635.21
00053692 00000127 767.12 167.58 432.66 619.55 964.15 440.72 1133.31 427.78 1107.91 538.56 995.83 652.90 1130.85 641.08
00053693 00000128 763.51 168.33 431.33 625.75 956.46 439.67 1126.22 426.40 1100.08 540.79 989.62 656.02 1124.28 643.86
00053694 00000129 761.50 172.66 426.20 628.59 943.61 443.10 1117.90 428.99 1085.52 544.44 978.11 659.68 1116.32 646.46
00053695 00000130 755.06 179.77 426.59 625.64 935.63 447.10 1109.00 429.08 1075.69 546.60 973.64 663.01 1109.24 646.10
00053696 00000131 750.24 181.84 424.84 625.25 929.08 451.19 1100.26 430.10 1064.63 549.48 970.75 665.81 1099.84 646.14
00053697 00000132 748.13 180.44 421.00 621.84 928.00 456.63 1097.76 436.10 1057.19 556.33 964.58 666.52 1093.49 649.75
00053698 00000133 744.27 176.73 418.19 627.22 921.86 453.25 1089.39 431.00 1052.85 550.64 963.23 665.98 1091.00 648.03
00053699 00000134 740.18 174.55 419.48 628.83 920.23 439.76 1084.96 419.96 1050.77 541.38 960.99 661.50 1085.93 645.91
00053700 00000135 739.57 168.78 419.78 626.98 922.57 431.12 1085.94 412.53 1052.97 536.45 961.58 656.98 1083.68 642.53
00053701 00000136 742.69 167.28 424.05 618.72 928.63 432.15 1093.36 415.65 1059.41 532.21 967.09 654.18 1088.37 641.58
00053702 00000137 750.35 170.68 419.67 606.05 936.67 438.03 1100.57 419.67 1067.62 534.99 977.47 655.47 1093.19 641.36
00053703 00000138 753.31 173.61 418.78 609.50 942.49 446.87 1102.42 424.99 1075.01 540.21 984.36 662.19 1099.61 645.00
00053704 00000139 755.39 176.65 417.40 603.57 944.35 450.19 1103.01 427.65 1076.27 542.32 985.92 663.10 1099.64 645.32
00053705 00000140 754.05 177.58 418.18 609.12 946.18 449.67 1103.47 428.86 1077.72 542.34 981.23 662.31 1097.57 646.18
00053706 00000141 751.92 176.22 421.71 617.44 947.10 448.86 1103.28 427.83 1081.64 544.27 973.47 659.21 1097.46 642.99
00053707 00000142 748.06 175.17 425.67 616.45 945.14 451.27 1104.31 424.75 1084.28 545.09 967.77 653.81 1099.88 633.18
00053708 00000143 748.13 174.89 425.87 615.28 944.00 451.61 1103.74 423.22 1083.78 544.97 967.33 652.47 1101.63 630.22
00053709 00000144 748.61 176.09 425.29 616.47 942.51 454.02 1103.32 422.72 1083.30 547.66 964.98 652.99 1103.09 628.29
00053710 00000145 748.30 180.24 425.83 617.35 941.71 455.58 1105.31 425.70 1083.46 549.98 961.08 653.73 1102.98 630.28
00053711 00000146 748.73 180.71 425.18 620.01 940.67 457.48 1105.80 428.20 1083.66 552.18 958.07 654.86 1103.84 632.05
00053712 00000147 748.84 183.44 424.93 616.94 938.66 459.75 1106.72 431.57 1081.38 553.82 956.83 656.38 1103.51 634.24
00053713 00000148 747.75 184.75 425.18 616.04 938.92 461.79 1105.82 432.13 1081.36 555.94 957.50 657.12 1102.70 633.84
00053714 00000149 746.95 185.19 426.02 614.33 936.50 463.72 1105.53 432.44 1079.68 557.29 957.94 658.90 1102.44 634.36
CROP_BBOX: 432 0 1415 961
