Video ID: 	Iekxojt3vyw
H: 	1080
W: 	1920
FPS: 	29.97002997002997

FRAME INDEX X0 Y0 W H [Landmarks (5 Points)]

00047702 00000000 573.03 151.31 421.36 628.08 759.36 401.92 927.32 441.10 860.47 531.93 745.59 621.11 875.36 653.56
00047703 00000001 569.26 148.33 422.92 627.43 757.79 399.25 925.88 437.36 860.01 528.43 746.96 618.37 876.06 649.60
00047704 00000002 560.11 144.09 426.59 625.17 750.17 396.46 915.08 432.66 855.57 520.86 740.22 608.00 871.31 637.22
00047705 DELETE   553.00 140.34 427.80 629.28 743.08 392.35 907.24 425.01 852.86 507.95 733.69 602.83 866.11 629.26
00047706 DELETE   547.37 142.38 428.98 628.88 738.18 389.67 903.71 426.28 847.23 503.79 723.57 598.46 860.43 628.09
00047707 DELETE   543.22 142.40 429.10 638.91 733.29 391.52 896.75 428.58 839.49 510.80 714.39 604.05 851.73 634.04
00047708 00000006 543.39 146.02 427.74 639.51 730.93 397.37 896.52 434.48 835.13 520.04 709.02 607.90 850.39 638.02
00047709 00000007 543.71 148.35 425.99 635.55 731.13 401.82 894.88 437.25 834.65 526.47 710.31 609.49 849.37 638.43
00047710 00000008 542.82 150.37 427.69 632.05 732.19 404.50 896.58 439.51 836.48 528.44 714.42 609.61 853.22 637.82
00047711 00000009 542.86 150.91 429.02 631.81 734.89 403.84 900.07 438.84 840.95 528.57 716.98 609.26 857.70 637.31
00047712 00000010 543.38 148.48 431.76 637.14 738.91 402.38 902.64 437.80 845.13 528.51 719.63 609.39 859.61 637.66
00047713 00000011 548.81 149.79 429.54 641.76 743.97 403.84 907.46 441.99 846.57 532.69 719.72 612.05 861.14 642.76
00047714 00000012 551.66 154.26 431.29 660.57 749.11 407.07 913.09 449.21 850.14 541.51 715.68 621.69 862.11 655.92
00047715 00000013 561.97 153.30 422.14 683.33 757.22 406.77 926.42 461.23 863.95 547.90 711.08 629.03 860.24 675.46
00047716 00000014 570.12 161.22 423.86 679.48 763.77 416.00 930.29 461.12 864.48 557.49 721.03 640.11 872.02 678.26
00047717 00000015 574.10 161.58 425.03 681.62 768.27 415.71 933.55 462.34 867.55 554.69 724.07 638.62 875.39 678.67
00047718 00000016 568.75 158.39 428.56 693.92 773.09 410.19 940.72 467.58 880.07 551.21 719.89 634.99 871.02 683.67
00047719 00000017 569.67 156.79 429.13 693.46 773.71 407.35 941.51 465.54 880.20 549.04 720.49 632.22 872.16 681.47
00047720 00000018 570.08 156.58 430.15 691.69 774.79 405.90 941.26 464.41 879.21 548.05 720.56 630.03 871.11 679.63
00047721 00000019 569.58 157.55 430.54 686.80 774.39 406.79 940.73 465.52 877.60 548.24 720.29 628.56 870.14 678.32
00047722 00000020 570.09 156.78 429.79 684.17 772.63 408.72 941.16 466.63 876.90 549.36 720.50 629.16 870.38 678.22
00047723 00000021 569.58 157.39 428.22 681.38 769.02 411.81 938.54 467.34 873.90 550.91 719.23 628.47 871.02 675.55
00047724 00000022 569.33 157.32 425.46 675.34 765.28 414.02 936.33 466.76 870.24 550.27 718.50 627.67 869.01 672.49
00047725 00000023 574.06 160.25 422.01 663.56 764.64 418.76 932.81 463.62 864.03 555.53 724.03 631.97 877.71 670.17
00047726 00000024 573.08 163.75 420.01 655.85 764.80 417.57 930.32 462.90 863.96 554.68 724.98 630.84 874.04 669.11
00047727 00000025 570.02 162.11 422.43 656.78 763.68 417.57 929.12 462.12 864.24 554.46 726.67 632.71 873.33 670.24
00047728 00000026 569.68 162.71 423.00 654.80 764.16 417.92 928.55 462.80 864.16 555.59 728.35 633.78 872.67 671.58
00047729 00000027 567.77 162.47 424.79 655.13 761.09 420.28 927.09 462.99 863.18 556.40 728.92 635.92 873.81 671.69
00047730 00000028 567.19 164.28 425.00 650.43 761.89 420.01 927.09 462.96 863.78 556.65 730.25 635.33 873.01 671.20
00047731 00000029 565.35 165.17 424.69 648.48 759.63 420.55 924.80 462.04 862.84 555.44 729.28 634.89 871.39 669.44
00047732 00000030 564.40 159.91 420.34 655.04 757.78 414.01 923.65 463.10 860.95 550.01 720.93 627.60 859.69 670.08
00047733 00000031 557.54 165.35 429.56 643.75 750.34 417.24 916.37 457.22 849.95 551.45 723.08 632.05 863.32 664.93
00047734 00000032 550.86 165.20 436.56 640.74 747.62 410.73 911.98 454.41 842.88 548.51 718.93 627.69 856.23 663.50
00047735 00000033 548.18 163.74 435.02 642.13 741.31 411.08 905.36 452.38 835.35 547.42 714.42 627.65 850.88 661.74
00047736 00000034 543.28 161.16 434.94 643.88 735.54 412.11 898.89 452.10 831.37 544.63 709.84 625.55 845.73 658.59
00047737 00000035 541.59 158.32 430.29 642.72 728.78 408.83 891.10 448.38 824.29 541.56 703.55 621.87 838.87 654.62
00047738 00000036 539.63 153.99 428.24 647.06 721.75 406.14 885.64 446.02 817.88 536.37 697.33 619.79 835.23 652.65
00047739 00000037 538.04 149.65 426.17 648.78 716.97 404.11 880.68 440.88 812.47 534.39 693.72 618.65 832.09 648.86
00047740 00000038 534.79 148.80 428.15 645.57 711.47 402.83 878.97 440.02 807.54 533.08 690.63 616.93 830.67 647.56
00047741 00000039 532.27 147.49 429.55 644.81 708.29 401.83 877.88 439.67 803.65 530.32 687.78 615.39 826.98 646.56
00047742 00000040 531.24 144.61 429.80 647.11 706.18 400.22 876.70 438.29 801.95 527.79 686.43 615.05 825.00 646.44
00047743 00000041 528.43 144.83 429.85 643.22 704.53 398.09 875.06 436.11 801.20 524.92 686.84 613.87 824.66 645.22
00047744 00000042 529.87 144.88 429.49 631.31 701.70 394.36 878.15 427.86 798.49 519.30 691.05 610.48 830.08 638.47
00047745 00000043 526.28 142.51 427.99 638.53 703.21 393.81 870.36 429.94 797.72 519.01 689.14 611.75 820.08 641.51
00047746 00000044 524.96 141.17 430.15 637.32 697.94 392.91 874.28 423.80 795.37 515.95 689.43 612.43 824.98 638.56
00047747 00000045 521.90 140.69 434.57 645.91 698.48 390.41 874.61 425.43 795.69 515.03 684.39 608.68 824.62 638.41
00047748 00000046 523.39 145.80 432.74 650.27 703.64 390.81 872.21 434.66 795.85 520.47 676.15 608.99 816.78 645.23
00047749 00000047 526.29 146.07 432.82 653.84 705.72 394.80 874.27 440.03 798.26 527.77 674.10 609.03 819.06 646.24
00047750 00000048 535.04 149.80 430.01 649.48 707.60 401.64 877.76 446.66 798.52 532.49 677.32 611.39 823.51 648.44
00047751 00000049 539.33 147.08 428.94 648.02 711.99 401.43 883.07 446.90 805.08 535.32 683.23 613.54 828.13 650.96
00047752 00000050 537.96 145.61 429.28 638.25 711.73 398.89 883.76 439.82 808.67 528.69 689.11 609.48 832.97 642.93
00047753 00000051 544.15 144.89 427.35 625.52 711.77 397.34 889.66 433.00 811.71 523.11 693.11 602.53 842.59 632.59
00047754 00000052 541.34 138.73 426.09 619.72 706.32 393.98 886.00 426.87 805.61 516.14 691.77 598.81 836.89 626.69
00047755 00000053 535.92 137.44 424.54 616.25 700.66 389.37 882.71 421.99 800.76 508.67 689.09 597.17 832.75 624.70
00047756 00000054 529.19 137.21 429.95 625.23 693.87 386.33 878.74 419.57 794.89 507.29 682.80 599.20 829.97 627.43
00047757 00000055 527.17 141.86 428.89 621.39 694.59 385.02 873.39 421.87 790.61 506.83 681.14 596.86 823.28 628.48
00047758 00000056 526.34 141.43 430.50 627.30 693.82 386.48 873.64 426.94 788.77 511.53 675.93 598.50 821.06 632.97
00047759 00000057 528.33 147.57 429.30 613.41 694.48 390.43 874.50 430.11 788.88 515.19 677.14 598.78 820.89 632.38
00047760 00000058 530.63 146.77 427.13 603.28 694.84 393.09 876.81 427.65 791.60 514.52 682.47 597.03 826.25 626.16
00047761 00000059 531.31 141.67 425.34 604.40 695.20 389.51 875.33 423.01 791.63 507.88 685.78 594.19 826.28 622.55
00047762 00000060 528.93 136.77 426.72 607.58 693.67 387.43 873.09 419.41 790.35 505.87 685.97 591.73 824.39 619.14
00047763 00000061 527.47 136.22 425.95 611.88 690.56 386.20 869.22 419.04 786.81 505.92 682.70 591.08 822.10 619.26
00047764 00000062 524.93 133.91 427.51 620.77 687.92 387.92 866.15 423.65 784.09 510.02 675.10 592.10 817.45 622.99
00047765 00000063 524.08 137.47 426.74 622.24 689.03 390.98 866.28 428.33 784.05 514.61 671.89 592.87 817.02 624.99
00047766 00000064 522.98 137.95 429.75 634.84 694.12 391.20 870.25 429.83 789.74 518.83 673.49 598.07 821.93 630.84
00047767 00000065 523.00 142.03 428.48 642.28 701.14 390.92 874.01 431.90 797.47 521.92 673.60 603.69 823.27 637.28
00047768 00000066 523.10 141.27 428.91 647.75 707.59 392.35 877.51 431.47 808.17 524.68 681.47 606.23 829.31 637.87
00047769 00000067 524.33 139.35 427.63 648.47 714.32 392.51 879.80 429.81 819.39 527.05 690.03 607.93 834.57 638.24
00047770 00000068 525.24 141.34 427.33 633.68 717.67 393.73 884.41 427.87 826.17 524.40 700.73 605.95 841.35 633.71
00047771 00000069 539.27 141.63 416.64 611.19 721.53 400.32 892.05 427.44 829.59 523.26 713.22 601.98 851.15 624.79
00047772 00000070 532.37 145.99 424.45 618.26 720.64 401.26 889.72 425.93 836.15 522.02 721.48 607.51 857.52 627.00
00047773 00000071 535.73 146.58 423.78 622.45 722.13 405.31 891.17 427.09 837.82 523.87 724.34 612.06 860.35 629.27
00047774 00000072 538.40 145.68 424.26 626.45 724.51 404.46 893.88 427.89 840.43 525.13 724.62 614.77 860.34 633.57
00047775 00000073 538.81 146.90 427.78 630.90 729.42 402.65 897.43 429.36 843.88 524.25 723.12 612.69 860.04 634.09
00047776 00000074 539.21 145.04 429.89 640.06 733.93 399.61 900.56 430.08 847.23 523.66 719.26 611.50 859.83 636.03
00047777 00000075 539.28 146.85 430.62 640.03 736.14 399.41 902.70 431.03 848.17 525.44 718.09 610.44 860.79 635.82
00047778 00000076 541.24 147.44 430.47 643.76 738.44 400.30 905.13 432.08 849.56 528.67 718.94 611.36 863.81 636.76
00047779 00000077 542.81 152.06 429.25 644.92 741.79 402.71 905.97 435.77 850.70 532.35 717.21 612.36 863.41 639.07
00047780 00000078 544.46 151.84 429.09 654.62 742.78 403.01 908.80 437.35 851.81 532.92 715.00 614.78 865.92 642.39
00047781 00000079 543.40 152.16 429.67 651.73 742.53 402.93 907.92 437.78 851.46 532.70 713.81 613.22 863.49 641.35
00047782 00000080 542.07 150.90 430.43 632.70 741.59 400.87 907.75 434.78 851.54 531.45 718.29 606.21 864.00 633.83
00047783 00000081 540.94 147.31 429.87 628.03 738.88 397.97 907.76 430.63 852.25 525.29 722.03 602.16 867.49 628.31
00047784 00000082 541.84 145.81 427.70 627.25 739.07 397.23 907.64 429.67 853.80 523.15 724.45 603.01 867.76 628.97
00047785 00000083 542.43 146.36 428.64 628.57 739.52 397.79 909.34 428.91 855.37 524.26 726.80 607.42 868.50 632.35
00047786 00000084 545.07 147.18 427.37 626.09 741.80 400.39 910.43 429.81 855.10 527.13 732.41 611.21 868.81 634.65
00047787 00000085 544.71 149.99 430.58 631.65 743.16 404.16 910.85 433.88 855.39 531.12 731.34 614.01 869.64 637.57
00047788 00000086 545.63 150.77 430.32 631.40 741.43 404.71 913.28 434.54 854.82 534.77 729.52 617.83 870.84 641.83
00047789 00000087 545.50 149.82 430.89 636.14 741.16 406.03 912.47 436.43 853.57 535.00 728.67 619.24 870.63 643.57
00047790 00000088 545.64 150.38 431.66 637.53 742.24 405.94 912.98 437.08 853.92 536.93 730.59 621.13 870.61 646.04
00047791 00000089 548.38 153.11 432.06 641.28 746.44 407.88 914.52 439.78 856.63 540.39 731.69 623.88 869.81 649.31
00047792 00000090 555.94 152.90 424.65 649.73 754.77 407.14 923.64 452.75 864.08 542.25 725.65 620.44 867.10 659.14
00047793 00000091 556.61 161.58 427.00 642.11 754.41 413.17 922.08 451.46 861.60 548.30 727.98 626.07 871.81 657.24
00047794 00000092 562.71 156.90 420.76 654.15 758.40 410.36 927.90 457.26 866.85 547.05 721.40 619.79 867.77 659.98
00047795 00000093 561.81 158.27 420.90 653.34 760.74 408.92 927.00 456.73 867.39 545.52 720.81 617.55 866.92 658.53
00047796 00000094 560.64 156.84 421.24 653.91 758.62 407.54 926.14 455.02 867.40 541.81 720.54 617.09 866.68 657.68
00047797 00000095 559.56 161.83 422.52 642.51 755.63 409.83 923.27 450.75 861.61 541.09 721.25 618.07 873.21 651.58
00047798 00000096 558.10 160.69 423.70 644.07 755.10 409.31 922.68 450.36 861.38 540.10 720.47 617.24 872.85 650.86
00047799 00000097 558.17 159.46 423.90 643.73 754.86 408.23 923.03 449.83 861.81 539.02 720.64 615.99 873.41 650.03
00047800 00000098 559.53 160.23 422.35 639.80 756.68 408.17 923.25 449.96 862.64 539.96 722.37 613.54 874.50 647.77
00047801 00000099 558.68 158.72 423.34 635.93 756.40 407.01 924.41 447.72 863.86 539.94 724.33 612.20 876.30 645.61
00047802 00000100 558.42 160.37 424.16 629.17 756.01 406.48 925.23 447.44 864.66 538.40 725.55 610.36 876.79 643.98
00047803 00000101 559.51 160.75 423.43 623.56 756.71 406.07 927.22 447.48 866.33 536.94 727.41 607.52 879.42 641.51
00047804 00000102 561.94 157.14 422.72 624.38 756.30 405.27 926.99 444.77 865.34 535.77 729.18 606.76 880.74 639.32
00047805 00000103 561.72 157.06 421.75 619.95 755.67 405.76 926.03 443.83 865.51 535.41 730.86 605.93 881.00 637.26
00047806 00000104 561.68 157.03 422.26 619.35 755.20 405.77 926.37 443.20 865.58 536.03 732.03 607.11 881.74 637.84
00047807 00000105 560.24 155.77 423.75 621.71 753.62 406.97 927.18 441.09 866.85 538.49 736.20 613.84 885.00 641.62
00047808 00000106 560.47 156.42 424.23 623.28 753.76 408.61 926.92 441.47 867.54 538.93 740.41 618.97 885.20 645.42
00047809 00000107 560.49 155.43 423.96 626.75 754.89 409.23 925.95 442.16 868.39 539.05 742.74 621.93 883.68 648.33
00047810 00000108 560.63 153.00 423.38 627.60 753.37 408.21 926.19 440.37 867.47 539.27 742.02 621.84 884.44 647.78
00047811 00000109 558.48 151.37 426.05 627.12 750.57 406.84 927.31 439.34 867.08 538.92 738.69 618.72 886.67 645.10
00047812 00000110 559.18 149.62 424.71 630.57 751.55 406.52 926.70 438.64 866.89 537.78 740.64 619.93 886.73 645.87
00047813 00000111 558.92 149.41 424.86 637.12 753.57 405.90 924.85 437.53 867.89 536.06 743.83 623.24 884.72 648.39
00047814 00000112 559.23 149.03 424.29 636.71 755.42 403.87 923.43 436.98 867.86 535.61 746.47 625.69 879.02 652.20
00047815 00000113 559.67 148.55 424.59 636.12 755.25 403.51 923.09 437.11 866.51 534.55 745.98 624.26 878.12 651.19
00047816 00000114 556.05 147.10 428.35 638.91 753.28 404.16 923.81 438.25 866.04 532.61 742.56 620.29 881.51 647.42
00047817 00000115 552.39 150.19 429.57 634.65 750.88 404.36 922.66 437.45 866.02 530.12 739.56 616.69 882.27 642.74
00047818 00000116 553.84 149.86 428.05 635.34 751.12 402.63 924.65 436.62 866.97 529.82 738.98 616.60 883.70 643.41
00047819 00000117 555.24 150.72 427.33 629.54 752.94 402.35 924.22 436.24 867.05 530.70 741.28 616.95 881.31 643.97
00047820 00000118 556.21 148.41 426.56 631.99 753.51 401.35 925.87 435.87 867.97 531.16 740.62 616.69 882.91 644.25
00047821 00000119 558.68 149.24 424.62 629.89 756.93 401.83 927.01 437.33 869.57 532.07 741.39 616.24 882.05 644.75
00047822 00000120 560.26 148.93 424.07 630.37 756.92 402.90 926.41 438.32 868.43 532.99 740.16 616.29 881.25 644.93
00047823 00000121 561.17 149.08 423.13 629.39 757.18 404.04 925.46 439.55 868.00 534.54 740.36 616.17 880.50 645.02
00047824 00000122 561.22 150.97 422.69 627.13 757.53 403.71 925.92 439.42 868.35 534.80 740.47 616.32 880.45 645.38
00047825 00000123 559.51 151.91 424.52 627.08 757.12 402.63 926.05 438.73 868.88 533.93 738.81 614.74 880.32 644.10
00047826 00000124 560.18 151.15 423.20 625.18 756.53 401.37 927.17 437.14 868.74 532.16 739.02 613.26 881.46 642.41
00047827 00000125 560.48 149.85 422.89 622.99 756.13 401.32 927.48 436.00 869.02 532.27 740.64 612.11 883.38 640.35
00047828 00000126 558.43 148.62 424.67 624.29 755.96 402.53 928.34 436.05 870.89 534.34 743.86 614.94 885.52 642.08
00047829 00000127 560.63 148.04 423.58 625.88 756.03 404.35 927.93 436.58 871.04 534.95 746.20 617.02 887.12 643.03
00047830 00000128 561.38 146.29 422.49 628.34 756.30 404.63 927.01 436.11 870.78 535.12 746.96 617.38 886.93 642.70
00047831 00000129 562.10 145.65 422.27 629.52 757.25 403.59 927.25 435.23 870.96 534.60 749.45 618.78 886.63 644.07
00047832 00000130 560.76 146.56 423.86 631.28 758.75 402.25 926.77 435.39 871.39 534.27 749.74 619.69 883.88 646.17
00047833 00000131 560.28 146.49 423.53 633.96 759.16 401.89 926.17 435.23 871.44 533.83 748.86 619.98 883.20 646.68
00047834 00000132 558.69 146.17 425.80 638.97 760.43 402.21 925.47 436.47 872.60 534.08 747.68 619.19 882.70 646.46
00047835 00000133 557.75 146.31 426.81 641.56 761.09 402.22 925.43 436.52 873.41 533.08 746.81 618.78 882.64 646.11
00047836 00000134 557.94 147.82 426.14 639.14 761.89 402.65 924.74 437.93 873.63 532.24 746.37 616.72 881.60 644.84
00047837 00000135 557.99 146.68 425.79 639.63 762.32 403.16 924.85 437.75 874.47 532.22 747.04 617.47 881.97 645.12
00047838 00000136 557.61 145.84 426.20 640.92 762.40 403.57 925.59 437.36 875.34 531.90 746.91 617.54 883.04 644.52
00047839 00000137 557.87 147.09 426.32 639.36 762.77 405.51 926.41 438.02 876.83 532.51 747.43 618.15 885.12 644.20
00047840 00000138 557.86 146.41 425.67 639.73 763.25 405.27 928.97 435.29 880.73 531.86 747.91 618.39 888.75 642.39
00047841 00000139 560.19 145.89 423.98 634.72 770.33 402.74 933.10 431.12 888.49 531.47 756.64 615.82 894.43 638.72
00047842 00000140 560.23 142.41 427.50 637.88 779.66 396.62 943.40 426.05 900.12 530.71 765.27 614.71 899.06 638.89
00047843 00000141 568.88 140.51 422.17 630.05 789.55 396.49 951.38 419.86 917.43 522.62 782.06 614.49 912.31 634.43
00047844 00000142 570.61 130.80 424.99 635.80 789.25 383.43 950.50 414.80 910.70 511.27 782.86 598.59 908.76 626.45
00047845 00000143 565.94 139.73 421.48 628.28 780.93 391.14 944.93 416.45 908.24 514.05 774.30 610.06 904.73 631.30
00047846 00000144 557.82 142.62 424.99 627.47 762.51 393.00 931.34 422.25 882.67 512.83 755.99 607.68 890.57 630.91
00047847 DELETE   549.97 152.56 431.27 617.84 751.01 401.79 916.38 437.31 861.70 522.06 740.00 605.30 872.53 633.47
00047848 DELETE   549.42 155.21 437.31 623.02 735.26 410.46 901.62 456.78 829.12 535.91 716.10 610.32 849.39 648.06
00047849 DELETE   550.69 160.57 441.54 628.56 723.85 419.30 893.78 470.80 805.76 553.29 696.75 622.77 826.39 666.36
CROP_BBOX: 129 0 1223 1024
