Video ID: 	CKAByh0wRGg
H: 	2160
W: 	3840
FPS: 	25.0

FRAME INDEX X0 Y0 W H [Landmarks (5 Points)]

00000836 00000000 1552.67 738.23 781.54 962.25 1848.08 1150.66 2182.70 1136.04 2039.76 1404.29 1843.42 1474.34 2093.64 1467.87
00000837 DELETE   1542.59 718.35 775.20 978.34 1842.96 1129.83 2187.48 1115.17 2044.51 1396.36 1836.68 1469.49 2097.97 1462.53
00000838 00000002 1538.98 714.10 773.60 970.62 1838.55 1116.53 2182.61 1096.38 2044.22 1376.32 1838.82 1457.11 2101.26 1445.25
00000839 DELETE   1522.74 658.64 773.91 1023.07 1834.36 1097.15 2170.43 1069.85 2044.98 1353.82 1846.21 1457.28 2098.28 1437.25
00000840 00000004 1507.15 653.17 785.48 1015.55 1836.18 1074.11 2165.02 1046.91 2041.11 1340.92 1840.53 1445.73 2081.74 1424.48
00000841 00000005 1513.26 626.03 772.36 1010.88 1831.12 1046.05 2158.25 1031.65 2041.79 1311.65 1850.92 1410.70 2071.95 1403.71
00000842 00000006 1500.79 623.75 767.81 1016.43 1820.93 1021.08 2156.97 1005.72 2039.19 1290.39 1813.23 1392.82 2066.35 1390.74
00000843 00000007 1494.45 590.83 765.68 1050.37 1822.21 1010.52 2139.78 997.85 2033.79 1270.95 1825.68 1375.46 2063.09 1370.07
00000844 00000008 1489.56 590.52 749.89 1041.52 1810.53 1001.34 2127.76 982.88 2030.83 1260.33 1818.49 1368.34 2061.59 1358.52
00000845 00000009 1482.38 586.49 745.63 1040.70 1785.17 988.70 2110.55 964.94 2029.81 1236.71 1790.95 1379.23 2050.07 1366.62
00000846 00000010 1472.20 579.61 739.84 1042.80 1770.08 987.13 2088.96 966.22 2005.45 1230.56 1779.76 1370.41 2036.02 1359.36
00000847 00000011 1450.97 577.96 753.38 1045.95 1753.50 965.90 2074.08 951.06 1986.61 1217.12 1770.16 1353.95 2027.25 1345.94
00000848 00000012 1434.52 561.90 735.04 1045.59 1751.61 960.96 2063.01 950.11 1976.98 1201.29 1767.13 1331.62 2009.41 1326.72
00000849 00000013 1424.55 530.62 741.80 1048.46 1744.77 939.49 2060.61 927.93 1968.88 1185.11 1760.51 1310.90 2008.46 1305.83
00000850 00000014 1418.57 522.47 740.93 1031.58 1743.95 928.17 2061.26 912.92 1970.57 1173.41 1758.26 1298.70 2008.17 1290.75
00000851 00000015 1411.31 510.34 741.99 1018.71 1731.22 909.81 2052.02 886.68 1962.14 1150.05 1756.02 1281.79 2007.49 1266.65
00000852 00000016 1403.78 503.67 744.03 1015.00 1728.78 901.61 2046.71 874.71 1959.42 1136.35 1761.31 1274.32 2006.15 1255.25
00000853 00000017 1406.78 489.25 734.86 1021.72 1727.98 888.60 2043.37 868.18 1952.60 1129.94 1753.31 1263.10 1994.49 1249.20
00000854 00000018 1392.83 462.03 738.24 1032.86 1709.01 879.17 2028.34 879.73 1926.69 1124.96 1726.70 1240.11 1966.87 1244.11
00000855 00000019 1382.30 465.73 759.03 1036.08 1689.48 857.90 2021.87 877.69 1901.92 1107.12 1697.06 1233.32 1948.84 1253.36
00000856 00000020 1390.60 479.24 752.23 1043.25 1677.33 844.27 2011.76 872.93 1874.32 1099.96 1659.88 1245.21 1924.21 1270.09
00000857 00000021 1379.23 467.48 765.99 1052.98 1674.08 846.83 2010.36 894.69 1864.56 1102.94 1648.22 1224.25 1925.97 1268.45
00000858 00000022 1405.31 484.89 749.17 1038.91 1687.35 851.21 2019.63 884.40 1871.91 1112.04 1665.09 1252.84 1915.70 1280.95
00000859 00000023 1415.53 489.10 745.32 1031.00 1698.82 852.68 2026.34 884.47 1882.03 1108.32 1686.03 1252.09 1924.62 1278.84
00000860 00000024 1416.56 485.91 743.62 1021.18 1714.32 847.27 2037.29 868.64 1907.52 1097.39 1707.66 1250.53 1939.78 1268.61
00000861 00000025 1425.03 472.95 742.15 1022.20 1727.98 845.34 2041.30 857.04 1932.07 1080.99 1739.22 1243.27 1963.00 1253.15
00000862 00000026 1420.61 456.96 750.73 1031.36 1744.76 837.30 2055.86 838.69 1962.32 1080.51 1764.14 1239.31 1984.35 1241.30
00000863 00000027 1415.37 435.11 743.99 1047.51 1759.06 851.73 2067.74 849.96 1987.86 1066.07 1785.09 1225.26 2007.62 1224.89
00000864 00000028 1424.48 451.12 741.29 1026.40 1756.51 820.46 2070.22 805.10 1996.50 1049.59 1794.32 1220.97 2028.16 1210.03
00000865 00000029 1420.23 410.52 725.74 1053.76 1767.67 816.69 2068.83 804.42 2007.21 1030.19 1803.28 1203.28 2021.17 1194.54
00000866 00000030 1412.44 411.75 719.23 1049.45 1769.16 814.63 2059.86 799.14 2012.65 1024.36 1806.13 1197.37 2020.52 1185.98
00000867 00000031 1395.81 413.18 716.17 1051.98 1765.34 811.00 2041.38 790.68 2011.87 1024.81 1807.52 1197.49 2009.96 1181.29
00000868 00000032 1388.38 427.89 711.84 1041.80 1751.74 806.62 2026.05 786.21 1998.19 1024.73 1792.89 1199.27 1995.15 1182.46
00000869 00000033 1375.39 429.39 713.21 1041.12 1737.52 801.22 2010.99 782.98 1987.61 1021.97 1773.29 1192.82 1979.95 1178.67
00000870 00000034 1375.11 443.08 703.13 1043.05 1724.29 796.43 2002.91 790.03 1974.01 1006.78 1737.16 1200.67 1963.95 1198.93
00000871 00000035 1349.39 447.20 701.72 1027.05 1689.75 800.07 1966.17 778.34 1942.09 994.26 1709.12 1188.70 1939.04 1174.64
00000872 00000036 1327.99 431.66 705.04 1026.87 1669.14 791.96 1944.79 773.69 1921.02 982.06 1695.45 1173.08 1919.70 1161.70
00000873 00000037 1316.48 410.13 708.08 1025.87 1655.02 785.02 1936.91 772.18 1900.17 976.83 1683.13 1160.00 1906.89 1152.77
00000874 00000038 1303.52 408.46 710.02 1018.36 1645.48 777.41 1927.55 762.23 1894.02 976.93 1682.74 1155.63 1899.39 1145.75
00000875 00000039 1290.71 406.31 717.56 1016.63 1645.39 786.76 1923.19 765.15 1895.91 982.39 1682.00 1157.95 1893.48 1143.23
00000876 00000040 1278.14 421.64 717.86 1012.63 1646.66 796.98 1921.46 772.66 1901.19 993.12 1689.22 1172.86 1889.23 1153.81
00000877 00000041 1268.56 418.63 721.35 1023.36 1643.02 798.82 1913.04 770.39 1901.68 996.26 1690.27 1179.93 1885.53 1157.51
00000878 00000042 1269.77 423.46 717.83 1031.65 1640.09 792.69 1909.15 765.44 1899.45 993.33 1689.08 1183.92 1884.98 1162.26
00000879 00000043 1266.28 410.41 719.82 1035.24 1635.04 784.62 1900.33 757.71 1889.68 984.04 1682.44 1170.46 1879.10 1150.03
00000880 00000044 1263.78 400.88 724.40 1024.84 1625.57 770.40 1898.75 737.99 1886.34 968.75 1683.11 1160.37 1880.88 1135.16
00000881 00000045 1254.06 379.30 728.24 1038.30 1615.57 756.85 1894.91 725.70 1878.65 955.57 1683.47 1151.32 1883.51 1125.80
00000882 00000046 1248.32 376.18 734.06 1043.08 1612.40 753.33 1894.04 719.07 1879.36 950.72 1686.64 1149.85 1887.96 1121.35
00000883 00000047 1247.13 367.12 730.16 1047.49 1610.55 754.33 1894.74 717.36 1879.14 951.64 1692.45 1153.53 1891.53 1122.51
00000884 00000048 1249.07 381.84 730.74 1043.11 1614.85 760.95 1894.26 720.33 1884.55 957.69 1692.42 1159.68 1893.81 1126.63
00000885 00000049 1253.49 368.15 730.54 1063.22 1619.09 756.78 1894.30 719.48 1887.64 954.28 1695.39 1162.11 1893.73 1132.41
00000886 00000050 1253.39 365.27 733.41 1063.54 1619.80 759.07 1894.95 719.01 1887.87 952.41 1695.64 1159.48 1896.95 1127.65
00000887 00000051 1249.66 363.96 735.32 1058.23 1619.45 759.97 1893.32 717.43 1887.48 948.87 1695.91 1153.76 1896.39 1119.48
00000888 00000052 1250.71 355.95 735.56 1056.23 1619.56 753.47 1893.56 711.10 1887.39 940.99 1700.89 1145.84 1900.54 1111.26
00000889 00000053 1248.76 352.09 732.85 1054.39 1617.82 746.46 1891.84 708.81 1886.90 933.75 1699.74 1138.48 1901.13 1107.61
00000890 00000054 1250.16 347.36 730.25 1059.15 1617.11 735.65 1890.27 703.38 1886.01 927.40 1705.79 1137.27 1901.06 1110.06
00000891 00000055 1249.48 343.90 730.37 1067.39 1616.34 727.41 1888.19 698.07 1884.45 921.01 1707.63 1135.38 1901.34 1109.99
00000892 00000056 1258.00 346.87 730.45 1072.25 1618.11 732.65 1891.11 700.76 1888.57 924.01 1712.56 1142.52 1909.15 1115.17
00000893 00000057 1268.85 351.11 722.07 1068.02 1618.46 734.67 1892.23 703.51 1888.39 924.48 1712.99 1144.35 1911.48 1118.04
00000894 00000058 1270.83 349.12 726.96 1075.98 1620.17 742.31 1898.55 704.64 1889.94 927.28 1709.86 1144.88 1918.39 1112.40
00000895 00000059 1274.42 344.62 727.57 1074.23 1621.58 739.71 1905.18 700.34 1893.74 926.58 1721.15 1145.96 1926.80 1111.17
00000896 00000060 1283.69 347.82 725.49 1062.65 1624.15 737.62 1911.00 700.43 1894.48 922.90 1721.83 1143.63 1930.31 1110.93
00000897 00000061 1289.41 344.96 722.57 1064.94 1624.99 734.18 1913.16 697.70 1892.92 923.53 1726.04 1145.63 1931.33 1113.46
00000898 00000062 1297.75 345.63 717.94 1062.31 1625.09 737.75 1919.98 702.04 1890.85 929.14 1717.26 1145.08 1929.97 1113.54
00000899 00000063 1311.12 343.00 716.83 1061.73 1625.06 739.81 1927.08 704.21 1890.86 928.40 1712.56 1144.40 1934.75 1113.68
00000900 00000064 1326.22 340.06 711.38 1062.19 1632.57 745.42 1934.88 716.30 1893.05 931.93 1707.43 1143.25 1935.20 1118.94
00000901 00000065 1343.25 349.66 696.90 1065.67 1650.41 767.61 1945.28 754.71 1898.46 941.27 1702.80 1147.37 1939.16 1139.87
00000902 00000066 1358.02 353.24 695.54 1080.23 1659.84 782.88 1956.47 775.44 1907.37 950.42 1692.24 1151.36 1945.21 1150.55
00000903 00000067 1368.48 355.69 697.56 1090.27 1668.56 779.81 1964.98 779.07 1913.20 957.40 1697.49 1158.22 1953.88 1163.02
00000904 00000068 1390.98 364.67 690.05 1068.14 1680.23 778.56 1978.27 785.46 1909.31 965.12 1705.26 1154.10 1962.94 1165.31
00000905 00000069 1409.20 365.52 698.39 1066.88 1707.07 777.99 2007.06 786.68 1930.35 978.11 1721.02 1151.35 1984.61 1163.71
00000906 00000070 1407.44 370.65 708.59 1044.42 1713.59 775.10 2021.37 778.58 1937.28 972.12 1745.34 1151.35 1983.75 1156.76
00000907 00000071 1432.02 397.02 702.54 1023.86 1733.56 789.93 2037.82 802.11 1951.19 980.65 1763.15 1155.84 1992.82 1168.05
00000908 00000072 1449.59 408.55 702.93 1019.00 1748.16 798.55 2055.63 817.01 1966.61 991.90 1770.60 1159.20 2003.65 1177.03
00000909 00000073 1469.82 423.38 698.02 1010.28 1761.99 799.93 2068.99 822.57 1978.91 995.82 1779.43 1159.00 2018.36 1180.89
00000910 00000074 1486.95 426.51 698.55 1004.34 1777.18 796.32 2084.11 820.31 1995.49 996.38 1792.29 1159.57 2031.16 1183.17
00000911 00000075 1498.17 423.88 699.52 1007.89 1789.77 792.79 2097.85 817.32 2009.49 995.95 1809.29 1167.06 2042.61 1190.61
00000912 00000076 1509.85 425.06 698.06 1016.61 1804.76 797.69 2105.11 823.40 2021.15 1002.14 1821.11 1174.92 2049.62 1199.57
00000913 00000077 1517.17 421.39 700.90 1031.33 1812.67 794.92 2111.42 819.40 2029.09 1006.62 1829.60 1181.92 2060.31 1204.89
00000914 00000078 1520.68 425.99 709.57 1034.12 1820.41 798.41 2118.36 822.07 2035.29 1015.16 1838.31 1186.18 2070.92 1207.64
00000915 00000079 1521.75 413.23 717.86 1034.97 1831.87 800.32 2129.82 821.00 2040.14 1026.74 1851.45 1179.79 2080.83 1198.11
00000916 00000080 1531.48 407.61 720.28 1039.46 1843.75 801.14 2143.23 821.14 2049.68 1025.44 1863.42 1181.53 2089.25 1199.18
00000917 00000081 1538.67 407.34 718.84 1042.68 1849.85 804.75 2150.14 825.64 2055.76 1026.61 1869.46 1184.32 2095.43 1203.03
00000918 00000082 1540.91 406.54 718.69 1041.36 1848.08 810.07 2150.86 829.86 2052.65 1028.59 1871.07 1184.80 2099.95 1202.66
00000919 00000083 1547.24 412.89 712.57 1032.70 1847.77 813.94 2153.13 835.59 2051.73 1033.31 1871.11 1185.12 2100.07 1204.33
00000920 00000084 1537.89 422.02 720.36 1037.03 1840.36 818.04 2148.42 837.08 2047.66 1039.64 1860.07 1189.28 2097.73 1206.61
00000921 00000085 1528.27 425.95 721.27 1036.69 1836.80 818.36 2141.12 837.81 2046.02 1042.71 1852.67 1194.72 2085.66 1212.14
00000922 00000086 1537.03 454.83 707.33 1033.02 1831.21 813.48 2135.52 828.53 2049.87 1037.09 1849.17 1218.25 2083.75 1231.87
00000923 00000087 1527.50 447.79 711.91 1041.70 1821.10 815.47 2129.80 827.70 2044.32 1039.66 1841.70 1218.22 2080.38 1228.91
00000924 00000088 1517.95 451.02 712.43 1032.88 1812.35 816.36 2120.39 835.62 2030.76 1035.84 1827.95 1208.70 2069.34 1225.30
00000925 00000089 1507.95 446.21 711.19 1030.72 1802.57 814.82 2109.37 839.92 2018.01 1030.58 1814.69 1197.64 2056.89 1219.74
00000926 00000090 1499.96 437.40 711.34 1026.49 1794.50 813.54 2099.92 838.81 2007.18 1025.25 1807.35 1190.36 2045.13 1213.47
00000927 00000091 1495.15 444.91 701.08 1011.92 1787.87 804.97 2089.63 829.49 2002.04 1016.24 1802.06 1184.89 2030.24 1208.10
00000928 00000092 1485.57 442.66 700.35 1009.76 1780.11 802.58 2082.13 824.91 1992.78 1015.88 1796.69 1182.80 2022.16 1203.95
00000929 00000093 1474.16 437.13 696.04 1014.19 1772.60 806.04 2070.83 824.26 1986.47 1015.92 1793.61 1182.53 2016.87 1200.13
00000930 00000094 1466.03 437.06 698.52 1007.84 1767.02 807.70 2065.36 822.26 1983.00 1012.75 1791.81 1177.88 2012.97 1192.06
00000931 00000095 1462.54 432.62 698.76 1009.07 1765.73 801.75 2063.07 814.85 1987.02 999.70 1797.60 1173.44 2016.31 1185.61
00000932 00000096 1454.88 429.29 698.86 1013.86 1763.93 804.83 2061.21 809.72 1993.84 1003.43 1804.19 1181.57 2018.36 1186.59
00000933 00000097 1446.13 427.63 700.88 1025.41 1763.63 807.87 2059.11 806.82 1999.70 1004.68 1808.79 1188.56 2021.75 1188.48
00000934 00000098 1437.20 427.18 704.20 1035.50 1756.01 824.25 2053.18 810.49 1990.32 1024.57 1813.47 1207.75 2023.32 1196.59
00000935 00000099 1431.30 427.83 706.17 1034.68 1751.61 834.30 2051.01 814.64 1989.41 1037.93 1814.55 1216.07 2023.22 1200.06
00000936 00000100 1421.15 421.11 711.22 1039.97 1745.36 844.92 2045.78 819.66 1986.63 1049.90 1815.69 1223.56 2023.32 1202.79
00000937 00000101 1416.61 438.36 708.34 1031.85 1744.87 869.44 2038.26 841.85 1982.98 1058.24 1810.07 1233.28 2018.41 1210.43
00000938 00000102 1407.09 438.14 702.55 1034.80 1735.76 873.93 2031.21 842.82 1977.47 1066.11 1796.90 1235.30 2012.05 1210.33
00000939 00000103 1394.62 435.63 699.32 1048.20 1718.11 861.81 2025.38 825.33 1969.08 1075.56 1792.42 1244.94 2015.26 1214.51
00000940 00000104 1389.01 473.48 710.22 1014.27 1707.88 860.68 2012.67 829.60 1950.27 1063.87 1780.08 1242.92 1994.00 1222.75
00000941 00000105 1391.53 474.71 704.69 1012.13 1685.79 869.59 1990.05 830.89 1928.16 1052.16 1730.99 1248.86 1977.87 1220.04
00000942 00000106 1384.16 475.80 710.48 1014.44 1660.04 868.37 1977.96 826.66 1906.13 1056.97 1710.53 1251.85 1969.98 1220.74
00000943 00000107 1372.18 462.75 712.28 1030.46 1637.55 868.67 1958.30 827.66 1883.43 1059.34 1697.86 1253.49 1957.68 1222.36
00000944 00000108 1363.66 467.03 714.05 1039.08 1611.93 871.68 1935.51 833.62 1854.17 1063.47 1678.68 1259.03 1938.65 1229.87
00000945 00000109 1345.22 456.30 719.95 1048.75 1588.68 868.28 1912.99 832.14 1826.46 1069.14 1650.21 1251.25 1916.02 1223.89
00000946 00000110 1330.55 454.08 720.22 1058.29 1571.17 863.26 1891.31 832.35 1801.34 1070.88 1632.20 1248.91 1892.91 1225.06
00000947 00000111 1314.72 455.07 713.05 1048.39 1551.81 853.37 1872.71 822.38 1776.90 1066.48 1614.27 1246.14 1868.23 1222.48
00000948 DELETE   1281.79 432.49 722.73 1060.58 1520.87 860.70 1857.78 837.87 1749.32 1078.18 1595.02 1240.37 1853.77 1222.83
00000949 00000113 1269.36 423.32 731.55 1063.43 1503.87 855.37 1839.04 839.09 1720.60 1072.16 1576.15 1229.64 1835.56 1217.79
00000950 00000114 1263.60 417.36 736.68 1078.58 1494.83 853.75 1827.24 849.20 1696.73 1068.66 1556.69 1224.16 1822.32 1222.34
00000951 00000115 1263.84 417.05 740.27 1086.55 1487.52 858.66 1824.23 856.93 1683.59 1070.71 1547.38 1224.69 1820.86 1225.22
CROP_BBOX: 789 0 2800 1993
