Video ID: 	DSIshKfsJmE
H: 	1080
W: 	1920
FPS: 	25.0

FRAME INDEX X0 Y0 W H [Landmarks (5 Points)]

00002627 00000000 702.50 234.51 369.13 532.45 765.07 470.34 936.09 439.92 850.71 584.90 823.07 661.86 972.24 636.35
00002628 00000001 704.15 234.18 366.96 532.40 764.75 465.69 935.82 436.03 849.81 583.27 822.19 658.98 971.83 634.23
00002629 00000002 706.21 233.84 365.63 532.60 766.10 462.62 937.37 434.89 850.02 580.93 821.25 656.27 971.47 633.20
00002630 00000003 705.17 232.77 365.89 533.67 766.11 460.36 937.81 434.38 849.70 579.87 821.02 654.83 969.59 633.21
00002631 00000004 700.75 231.83 369.92 533.41 764.36 459.86 938.35 432.95 850.30 578.38 820.39 655.80 967.66 633.56
00002632 00000005 697.98 229.84 371.89 533.90 763.83 457.90 937.70 431.41 850.73 576.08 821.07 655.06 963.90 633.34
00002633 00000006 695.67 228.50 373.41 534.96 762.44 455.31 937.68 428.19 849.94 572.92 820.99 655.58 961.16 633.47
00002634 00000007 694.91 227.87 374.69 535.72 762.25 452.90 938.59 426.64 850.66 571.03 820.73 655.46 958.49 634.18
00002635 00000008 696.49 227.25 373.03 537.52 762.94 452.58 938.46 427.39 849.92 571.94 820.78 655.95 958.91 635.58
00002636 00000009 702.05 226.46 367.34 541.45 763.55 453.02 938.59 428.45 847.81 572.74 820.99 656.95 960.51 636.88
00002637 00000010 701.40 225.68 367.85 541.61 763.11 453.55 938.21 428.81 847.38 572.89 819.71 656.97 960.72 636.81
00002638 00000011 696.23 224.75 371.79 540.24 761.14 452.75 937.44 429.02 847.25 573.12 817.42 655.57 958.99 636.32
00002639 00000012 692.26 224.41 375.10 542.08 758.50 452.37 935.95 428.20 846.44 571.71 815.56 657.00 956.71 637.38
00002640 00000013 688.41 224.08 376.50 540.17 756.50 452.54 933.29 428.45 844.43 569.74 812.11 656.85 954.93 637.22
00002641 00000014 687.30 222.96 373.32 541.11 755.16 458.34 931.40 433.27 844.71 568.07 811.11 656.52 952.44 635.81
00002642 DELETE   684.53 224.49 372.95 541.76 755.82 463.23 927.81 438.36 845.19 566.70 810.76 655.80 950.11 635.08
00002643 DELETE   681.92 225.09 369.01 540.11 752.24 457.72 923.90 432.91 841.76 565.34 809.83 655.02 946.21 634.37
00002644 00000017 679.92 231.40 368.42 528.54 750.18 459.34 921.66 433.66 836.82 567.12 802.93 654.28 941.05 632.68
00002645 00000018 678.73 232.25 364.34 529.51 747.14 456.11 918.52 432.18 832.18 566.64 798.95 654.10 936.80 634.05
00002646 00000019 678.16 233.75 360.60 528.06 745.14 454.99 917.09 431.09 832.00 566.41 797.26 653.67 935.11 633.81
00002647 00000020 677.59 233.83 357.42 527.36 744.32 454.19 915.77 430.84 831.04 565.74 794.37 652.64 932.69 633.33
00002648 00000021 675.44 232.91 357.82 531.99 742.43 452.76 913.36 429.17 829.38 564.93 792.14 651.63 931.34 632.05
00002649 00000022 672.47 233.87 358.52 533.14 738.84 453.29 910.48 426.43 825.76 560.87 788.56 650.87 931.16 628.62
00002650 00000023 670.26 233.82 359.44 534.05 736.99 451.49 907.68 423.84 823.69 556.52 785.94 649.41 927.05 626.83
00002651 00000024 668.70 236.35 357.44 527.86 735.27 447.18 906.47 421.30 821.88 554.43 784.89 647.68 922.83 626.70
00002652 00000025 665.89 236.07 358.69 523.88 733.10 445.93 904.97 420.13 820.99 552.62 782.82 645.75 920.12 624.81
00002653 00000026 665.25 236.99 359.34 521.66 732.56 446.25 903.69 419.50 820.04 551.09 782.09 645.45 918.81 623.65
00002654 00000027 665.33 237.90 358.94 520.34 732.58 445.68 904.19 419.82 819.85 551.59 781.00 645.00 918.34 623.98
00002655 00000028 666.44 239.07 357.10 519.13 733.61 447.44 904.75 421.27 819.84 551.64 780.76 644.81 919.09 623.59
00002656 DELETE   670.36 239.55 352.91 518.61 739.11 459.11 903.90 432.15 820.98 552.71 781.73 644.15 921.46 622.48
00002657 DELETE   670.67 239.25 353.25 519.76 738.69 458.85 903.48 431.32 820.31 551.82 781.87 644.14 921.73 622.07
00002658 DELETE   670.49 239.13 352.27 521.00 736.63 453.83 904.23 425.00 819.16 548.89 780.07 643.41 920.27 620.39
00002659 00000032 668.59 240.01 354.25 520.39 734.67 450.62 903.42 421.79 818.28 547.19 778.76 642.48 919.24 619.30
00002660 00000033 668.31 239.67 354.86 521.34 734.20 449.66 903.37 420.78 817.94 546.83 777.97 641.97 919.33 618.69
00002661 DELETE   668.15 238.73 355.31 521.25 734.21 449.35 904.13 420.37 818.89 546.64 777.99 641.61 919.48 618.23
00002662 00000035 668.40 238.15 355.14 521.78 735.38 448.03 904.33 419.42 820.05 545.95 779.06 640.17 919.76 617.12
00002663 00000036 668.64 236.94 354.88 522.07 735.68 448.31 903.98 419.45 820.24 546.38 779.03 639.08 920.79 615.83
00002664 DELETE   671.01 235.96 352.18 523.36 736.83 447.71 905.30 418.46 819.42 543.46 778.71 638.67 921.26 615.33
00002665 DELETE   668.69 230.32 350.49 525.38 736.93 453.82 902.88 427.72 814.35 544.54 783.02 631.29 925.49 609.99
00002666 DELETE   667.79 228.40 350.45 523.90 735.21 449.63 904.48 422.48 815.49 542.44 782.42 629.92 925.75 607.93
00002667 00000040 666.52 229.38 352.07 521.29 733.57 446.83 903.29 418.51 816.70 541.95 783.64 629.15 926.87 606.07
00002668 00000041 663.88 229.41 354.11 521.57 731.23 446.02 900.67 416.73 815.44 541.52 783.29 629.28 925.98 605.21
00002669 00000042 660.57 227.91 355.51 522.98 728.68 446.98 899.02 417.13 814.08 542.34 781.98 630.49 925.63 605.80
00002670 00000043 659.30 226.99 354.97 523.76 727.21 447.08 896.75 417.92 812.04 543.24 781.46 632.44 921.93 608.47
00002671 00000044 657.27 224.83 355.22 524.59 726.38 447.34 894.25 419.75 809.64 543.47 780.77 635.02 915.26 612.64
00002672 00000045 655.99 225.13 354.27 522.14 726.82 448.27 893.22 422.78 809.30 544.26 780.61 635.24 910.46 614.84
00002673 00000046 655.95 224.97 354.15 521.99 725.14 448.78 891.10 423.76 804.64 543.14 778.12 635.36 907.49 615.51
00002674 00000047 654.84 223.98 353.27 523.33 722.43 448.21 888.42 423.02 800.83 541.72 775.68 635.77 904.69 615.81
00002675 00000048 653.45 222.70 353.85 522.67 720.48 446.07 886.95 421.32 798.33 542.41 773.70 635.28 902.51 615.60
00002676 00000049 651.69 220.46 355.05 526.78 719.50 445.13 885.91 420.64 796.57 541.16 772.05 635.53 900.57 616.17
00002677 00000050 649.34 217.84 356.23 530.14 718.25 444.05 884.44 420.08 795.68 541.16 771.13 635.11 899.87 616.04
00002678 DELETE   647.76 217.61 355.26 529.03 717.20 443.89 884.58 419.44 795.37 540.45 770.79 635.56 899.71 615.95
00002679 00000052 644.57 216.01 358.73 530.99 714.12 444.02 882.38 419.94 792.21 541.35 767.01 635.46 897.57 615.96
00002680 00000053 640.50 215.79 360.58 531.35 711.05 442.51 881.24 419.22 789.93 541.37 763.76 635.36 895.61 616.40
00002681 00000054 637.61 217.42 362.12 527.73 708.70 442.88 880.08 418.91 789.29 541.57 762.34 635.31 894.52 615.63
00002682 00000055 636.87 218.49 362.32 527.78 708.17 442.11 879.71 417.91 789.41 540.55 761.90 635.59 894.28 615.69
00002683 00000056 635.58 217.46 362.51 526.88 707.11 441.55 880.24 416.82 789.85 539.66 760.68 635.15 893.93 614.82
00002684 DELETE   633.72 219.28 363.64 519.92 705.34 440.66 880.14 415.33 789.09 538.75 759.57 634.21 892.76 613.32
00002685 00000058 631.34 219.32 363.86 518.25 703.98 438.39 878.49 414.07 788.39 537.99 758.48 632.79 890.97 612.57
00002686 00000059 641.46 219.77 355.81 511.57 698.46 437.72 874.23 410.73 784.78 541.35 755.25 642.48 891.30 619.77
00002687 00000060 639.25 218.90 357.68 513.58 697.99 438.86 874.16 412.16 783.76 540.14 753.93 643.02 890.54 620.44
00002688 00000061 636.90 221.31 358.35 514.13 695.49 439.94 871.53 412.75 781.31 539.23 750.86 643.40 887.42 620.37
00002689 00000062 634.14 219.99 353.68 509.79 692.73 443.15 866.12 413.10 776.95 539.25 749.29 643.31 883.91 618.53
00002690 00000063 620.06 224.13 367.89 507.91 686.48 440.33 857.89 409.04 768.54 534.57 739.37 643.20 873.75 617.44
00002691 00000064 617.04 224.48 366.84 501.76 682.63 442.33 853.25 410.40 763.34 533.70 735.20 643.48 869.59 617.09
00002692 00000065 613.86 221.68 364.18 502.88 679.09 441.95 847.52 409.91 757.62 529.95 732.18 641.93 863.13 615.44
00002693 00000066 612.46 227.58 358.02 504.26 680.43 446.73 844.84 416.81 757.55 539.03 737.30 635.12 856.85 611.99
00002694 00000067 609.60 226.61 358.24 505.53 678.87 445.05 842.20 415.59 756.58 538.37 735.44 632.88 855.30 610.12
00002695 00000068 608.57 224.31 357.86 505.94 678.10 444.45 841.07 414.42 755.80 537.89 735.24 631.40 855.39 608.10
00002696 00000069 607.19 223.26 358.27 506.98 676.43 444.22 839.45 414.75 753.31 536.68 731.86 629.58 853.55 606.83
00002697 DELETE   605.31 223.80 356.67 506.75 672.18 443.78 836.05 415.07 748.35 535.96 727.35 628.91 850.59 606.66
00002698 DELETE   604.63 223.67 358.43 507.07 670.39 444.66 834.61 415.62 745.76 535.35 725.53 629.63 848.62 607.12
00002699 00000072 604.33 223.50 357.66 507.14 670.07 444.68 833.69 415.97 745.20 535.50 725.30 629.72 847.64 607.41
00002700 00000073 605.04 222.87 357.72 507.10 670.93 443.79 834.40 414.97 746.54 536.09 726.65 628.91 849.18 606.57
00002701 00000074 605.93 223.64 358.44 504.51 673.40 441.71 836.53 412.05 749.97 535.14 730.21 627.94 852.22 604.93
00002702 00000075 607.37 222.92 359.79 506.98 675.36 440.59 837.23 410.29 751.85 534.13 732.12 627.49 853.60 604.08
00002703 DELETE   608.99 223.23 360.09 504.41 676.18 440.74 838.31 409.11 752.73 534.09 733.71 627.21 855.69 602.60
00002704 DELETE   610.46 224.27 360.06 502.97 677.63 439.88 839.78 409.03 753.43 533.39 734.36 626.90 856.49 602.87
00002705 00000078 611.15 223.73 360.43 504.71 680.13 438.71 841.95 407.27 757.15 533.46 737.49 626.41 859.21 601.94
00002706 DELETE   611.26 224.93 361.89 503.83 681.22 440.99 841.65 408.75 758.00 533.41 738.89 627.86 858.16 602.67
00002707 00000080 611.50 225.84 362.54 502.70 682.29 441.50 842.72 409.72 760.05 533.16 740.57 629.32 858.68 604.52
00002708 00000081 614.32 217.42 359.72 509.70 681.21 436.81 849.20 408.33 763.71 528.17 741.93 635.10 865.44 611.79
00002709 00000082 616.68 217.98 360.44 510.45 683.53 436.43 850.60 407.39 765.85 527.61 745.11 635.86 866.25 611.76
00002710 DELETE   612.22 222.97 370.23 505.91 677.33 437.19 846.22 402.08 758.97 522.57 737.67 635.57 860.86 606.91
00002711 DELETE   611.74 222.69 369.25 500.75 671.71 435.14 840.00 400.82 748.88 519.97 731.55 629.77 857.41 601.68
00002712 DELETE   618.33 218.67 356.73 499.29 674.61 428.12 842.53 402.44 745.26 516.17 732.74 623.39 861.02 601.68
00002713 00000086 616.85 213.49 356.07 496.42 667.66 421.31 833.45 393.72 733.16 505.55 726.80 615.90 847.54 593.03
00002714 DELETE   617.40 212.82 357.38 493.13 664.11 415.36 826.23 387.71 721.57 495.01 720.19 609.62 839.18 586.81
00002715 00000088 619.49 208.64 356.88 496.70 663.91 413.50 824.50 384.54 718.15 492.44 717.98 606.99 839.06 583.58
00002716 00000089 626.98 208.82 355.12 495.29 670.57 411.76 828.03 382.73 722.09 490.71 723.54 604.78 844.44 581.23
00002717 00000090 632.82 205.14 356.10 500.86 678.53 411.97 836.09 383.73 728.65 492.18 729.73 605.10 852.93 581.87
00002718 00000091 639.82 208.96 353.27 496.52 684.62 413.24 840.96 385.44 733.30 494.25 733.76 605.84 857.13 582.64
00002719 00000092 642.06 214.34 353.00 492.47 687.04 414.28 842.68 387.10 735.46 495.64 734.97 606.05 857.68 583.17
00002720 00000093 642.73 214.72 351.98 492.35 688.92 416.14 843.53 389.22 738.21 497.14 736.91 607.09 857.79 584.44
00002721 DELETE   643.17 217.44 350.94 490.74 689.42 418.46 843.48 391.47 739.45 498.96 738.52 609.17 856.12 586.40
00002722 00000095 641.84 218.73 351.59 489.49 688.72 420.86 842.39 393.53 739.93 501.45 738.88 611.58 855.70 588.66
00002723 00000096 641.22 221.01 350.32 489.02 688.43 422.96 841.21 395.28 739.70 503.08 739.14 613.06 855.04 589.80
00002724 00000097 633.65 222.23 354.05 492.22 690.44 424.05 839.32 396.05 739.45 506.45 734.93 609.74 850.59 586.59
00002725 00000098 633.87 223.46 354.38 489.96 690.58 425.65 839.14 397.03 739.30 506.48 734.61 609.35 850.74 585.74
00002726 00000099 635.09 223.28 353.79 490.27 692.15 424.90 840.74 396.42 741.18 505.38 736.57 608.78 851.96 585.37
00002727 00000100 635.40 222.60 353.55 491.87 693.01 424.08 841.91 396.21 742.76 505.07 738.11 608.11 852.90 585.28
00002728 00000101 637.21 226.86 352.25 488.14 693.90 429.00 840.01 399.39 742.09 504.23 737.85 608.78 852.98 584.58
00002729 00000102 637.86 227.96 350.17 490.70 694.17 429.04 839.21 399.83 742.01 504.74 738.84 608.67 854.51 584.71
00002730 DELETE   645.43 223.67 348.70 495.58 693.50 423.48 845.90 395.59 746.53 503.11 743.06 611.92 864.81 587.96
00002731 00000104 648.16 220.87 348.16 498.15 696.72 419.28 849.81 393.44 750.01 502.99 745.70 610.18 867.80 587.87
00002732 00000105 649.30 219.23 349.53 498.37 698.98 418.18 853.52 392.33 754.65 501.51 748.45 609.41 871.23 587.12
00002733 00000106 643.78 221.20 349.89 490.60 700.41 419.56 853.87 389.85 755.43 500.40 747.94 604.43 867.08 579.95
00002734 00000107 645.92 220.09 349.66 485.29 702.63 420.00 857.97 388.34 759.67 496.53 745.87 604.97 871.19 578.95
00002735 00000108 648.14 216.90 348.74 486.18 704.44 417.63 861.29 385.37 764.42 494.37 748.23 604.40 873.35 578.15
00002736 00000109 648.61 214.23 349.11 489.24 706.57 414.96 863.85 384.22 768.34 493.35 751.23 604.16 875.30 579.40
00002737 00000110 648.33 217.14 348.40 489.24 710.18 415.41 865.18 385.76 770.79 495.93 755.13 603.45 877.64 579.96
00002738 00000111 645.28 217.92 350.84 497.05 704.83 415.65 865.91 391.01 766.70 493.77 747.06 599.19 877.57 580.52
00002739 00000112 653.99 208.63 347.90 500.72 704.54 409.97 864.64 383.07 768.00 496.20 752.01 602.89 881.48 580.66
00002740 00000113 654.18 207.37 348.45 500.61 704.46 408.37 864.50 380.79 768.82 495.51 751.50 600.90 883.67 578.15
00002741 00000114 647.98 211.91 350.90 497.46 708.75 412.00 870.80 387.18 774.53 489.17 749.73 592.30 885.24 573.51
00002742 00000115 650.95 209.96 348.54 491.81 714.30 409.73 870.37 380.88 776.06 488.89 753.17 593.84 888.08 570.31
00002743 00000116 651.74 208.72 349.37 493.30 715.30 407.88 872.08 379.52 777.28 487.24 753.64 592.43 889.57 569.18
00002744 00000117 651.79 207.02 349.47 494.31 715.68 406.09 873.10 378.46 777.53 486.59 753.04 591.79 890.24 569.10
00002745 00000118 652.79 207.12 347.90 492.88 716.14 406.49 872.82 378.71 777.72 486.79 753.42 591.69 890.14 568.99
00002746 00000119 654.69 209.55 346.39 490.49 717.72 411.28 874.31 383.23 778.66 486.59 754.09 591.98 890.83 569.27
00002747 00000120 655.63 210.49 345.58 489.26 720.18 414.93 872.97 387.30 779.90 485.95 755.49 590.72 890.00 568.53
00002748 00000121 656.58 205.82 345.98 493.89 720.35 409.16 875.68 382.74 781.34 485.42 755.36 589.32 892.67 567.96
00002749 00000122 658.48 199.76 347.63 499.39 721.45 402.30 880.04 377.68 781.85 482.44 754.16 588.37 895.08 568.30
00002750 00000123 658.88 197.80 349.09 498.59 722.56 399.62 879.62 374.26 782.53 479.45 755.61 586.51 895.16 565.90
00002751 00000124 660.15 196.11 347.75 500.28 723.40 399.37 880.76 373.05 782.89 477.59 756.57 586.42 896.03 565.03
00002752 00000125 661.21 196.40 347.36 500.16 724.72 398.89 882.23 373.35 784.39 478.77 757.43 586.86 897.75 566.11
00002753 00000126 661.47 196.57 347.14 501.80 725.33 400.66 882.63 374.63 785.85 481.08 757.97 588.09 900.99 566.59
00002754 00000127 661.84 198.50 347.20 501.12 725.45 402.03 882.38 375.41 785.45 482.17 757.84 589.07 902.41 566.89
00002755 00000128 662.22 199.92 347.36 499.73 725.70 402.29 882.41 375.30 785.34 482.52 758.14 588.02 903.23 565.41
00002756 00000129 662.71 198.63 347.58 500.44 726.01 401.90 883.27 374.84 786.42 482.18 758.28 588.33 903.78 565.74
00002757 00000130 663.63 199.23 348.00 498.47 726.65 401.85 884.68 374.74 787.76 481.32 758.85 587.54 905.04 564.97
00002758 00000131 665.17 197.33 346.88 498.33 727.84 400.51 886.49 372.85 790.03 478.94 760.17 586.68 906.06 563.72
00002759 00000132 666.14 197.68 347.39 497.04 729.19 399.74 888.19 372.00 792.07 477.30 761.21 586.17 907.78 563.18
00002760 00000133 667.75 198.13 345.45 495.46 731.07 399.32 889.12 371.51 794.59 476.98 763.21 585.60 908.80 562.59
00002761 00000134 671.10 199.06 348.18 491.61 730.80 399.73 889.20 372.28 794.79 476.08 767.08 585.33 904.87 560.15
00002762 00000135 671.64 199.18 349.08 491.97 731.32 401.00 890.62 373.83 795.56 477.98 767.76 587.04 905.27 562.22
00002763 00000136 672.22 199.13 350.00 493.56 732.48 401.89 893.12 375.73 797.56 480.07 769.02 588.49 906.19 564.54
00002764 00000137 674.67 201.54 346.08 501.05 730.10 405.64 899.65 376.88 800.07 483.63 767.57 588.36 912.52 566.44
00002765 00000138 675.99 195.57 348.54 498.05 737.01 399.14 898.68 373.42 804.22 473.22 774.42 585.15 909.64 561.54
00002766 00000139 678.82 198.68 345.11 503.36 736.03 403.84 903.02 372.87 805.89 478.54 772.55 586.37 915.41 562.93
00002767 00000140 680.41 202.49 345.39 498.74 740.34 406.81 904.43 376.25 810.78 483.22 778.96 589.37 914.18 566.55
00002768 00000141 682.30 204.31 344.05 497.38 739.84 408.59 904.82 381.08 809.23 488.82 777.71 592.35 912.70 572.20
00002769 00000142 681.30 206.34 345.22 498.63 738.86 409.72 904.21 382.74 807.00 489.49 776.81 596.10 909.17 576.58
00002770 00000143 680.56 203.93 347.74 504.69 740.15 406.98 904.64 379.37 806.28 486.52 778.60 599.36 905.73 579.71
00002771 00000144 682.53 200.82 347.95 502.16 736.90 393.20 911.17 373.97 806.66 478.85 776.25 598.85 906.61 584.68
00002772 00000145 685.97 203.23 348.97 499.54 744.81 396.69 916.72 379.77 813.97 478.95 784.08 596.42 913.09 583.49
00002773 00000146 689.91 207.44 345.87 496.39 749.22 406.80 916.90 390.53 815.03 483.18 788.36 599.07 913.78 585.96
00002774 00000147 691.07 212.16 345.70 492.96 747.93 407.31 918.58 392.25 814.00 488.45 788.05 603.75 911.50 591.62
00002775 00000148 691.28 211.94 346.58 498.05 746.45 406.14 919.06 391.21 811.88 489.80 786.20 608.72 909.62 596.84
00002776 00000149 694.90 208.74 345.95 498.02 750.96 403.23 921.01 389.05 813.66 488.02 789.38 603.54 915.35 592.20
00002777 00000150 699.87 205.59 345.81 498.44 757.88 397.74 926.77 386.24 819.95 483.99 792.45 596.40 919.74 587.41
00002778 00000151 705.23 202.96 346.30 500.55 770.26 394.54 930.64 384.19 827.59 478.30 794.99 588.52 925.81 581.12
00002779 00000152 707.97 202.51 345.45 495.86 773.70 393.53 934.83 383.53 832.21 473.36 795.22 584.30 931.59 577.35
00002780 00000153 711.35 202.79 344.87 486.61 776.00 391.52 938.84 381.28 838.90 474.24 800.73 581.68 935.46 574.12
00002781 00000154 716.47 202.16 343.49 487.96 780.98 390.86 943.52 380.32 844.95 474.49 805.79 581.47 941.15 573.72
00002782 00000155 719.42 203.87 343.31 488.33 783.81 392.33 948.47 382.65 848.55 477.03 809.02 583.46 944.91 576.31
00002783 00000156 720.72 209.43 338.58 481.24 790.74 397.47 951.66 388.54 852.69 483.00 812.21 585.67 949.84 578.77
00002784 00000157 721.02 209.48 343.62 489.11 786.57 399.51 951.12 389.21 854.24 485.99 813.99 588.95 949.25 581.12
00002785 00000158 722.81 213.63 335.53 483.62 792.13 405.86 951.66 394.53 857.00 491.88 817.28 592.50 951.25 583.60
00002786 00000159 721.32 214.14 338.93 485.25 789.03 406.44 952.29 393.91 858.48 490.98 817.07 593.72 950.55 583.27
00002787 00000160 721.37 213.77 339.18 483.75 788.93 406.77 951.72 393.54 858.33 491.67 817.64 593.57 950.77 582.55
00002788 00000161 721.51 212.89 339.76 483.54 788.71 406.78 951.20 392.73 859.03 491.70 818.94 592.91 951.38 581.16
00002789 00000162 720.74 212.04 341.99 483.56 788.23 406.35 951.40 391.15 858.81 491.78 820.52 593.29 951.99 580.61
00002790 00000163 719.83 212.03 342.62 483.98 787.64 407.44 952.03 391.81 858.92 492.03 820.10 594.41 953.12 581.55
00002791 00000164 719.49 212.80 342.00 483.11 786.79 408.91 951.91 392.89 859.13 494.29 818.32 596.92 954.08 583.84
00002792 DELETE   719.48 213.81 342.52 483.82 787.08 410.29 951.96 394.42 859.74 495.88 819.23 598.27 954.14 585.32
00002793 DELETE   720.11 214.08 342.72 484.32 788.34 410.88 952.26 394.48 861.18 497.53 821.78 599.91 954.40 586.34
00002794 00000167 721.58 214.54 342.67 484.32 789.36 410.64 953.07 394.16 862.22 498.32 823.27 600.20 955.13 586.43
00002795 00000168 721.46 214.82 342.65 484.00 789.83 409.57 953.28 393.01 862.21 497.36 822.22 598.97 956.93 584.99
00002796 00000169 721.97 213.49 342.49 486.29 790.11 408.71 952.79 391.85 861.64 496.00 821.50 596.51 957.56 582.17
00002797 00000170 721.17 213.11 343.40 486.67 789.64 407.98 951.93 390.72 861.08 495.50 821.03 595.90 958.34 581.08
