Video ID: 	AnHjuNOakU0
H: 	1080
W: 	1920
FPS: 	25.0

FRAME INDEX X0 Y0 W H [Landmarks (5 Points)]

00002338 00000000 914.14 155.51 406.23 569.88 966.04 367.21 1071.90 394.05 928.91 475.87 982.74 560.27 1078.37 580.54
00002339 DELETE   928.87 156.55 409.14 585.87 987.46 367.96 1097.29 411.99 944.93 488.61 991.17 567.51 1083.51 600.47
00002340 00000002 938.28 156.00 411.75 590.08 995.34 373.86 1111.31 428.87 952.29 499.54 994.71 571.09 1094.00 612.70
00002341 00000003 939.81 169.48 412.50 580.32 994.21 380.17 1113.73 434.15 955.76 508.55 999.59 574.65 1100.88 614.80
00002342 00000004 948.31 182.61 404.90 565.65 988.35 387.07 1112.86 438.41 947.39 527.33 994.47 581.86 1112.03 620.92
00002343 00000005 941.47 181.84 402.61 567.90 982.78 383.18 1101.51 428.69 940.83 519.02 994.56 579.69 1112.31 613.57
00002344 00000006 925.99 171.50 409.28 584.41 968.28 383.75 1086.17 407.30 939.32 508.32 995.97 588.39 1111.70 603.58
00002345 00000007 922.20 164.81 401.08 588.02 959.01 382.73 1074.54 401.31 931.43 505.33 990.78 587.36 1106.58 598.38
00002346 DELETE   901.93 148.50 408.41 597.14 947.53 374.49 1060.58 393.73 916.78 504.85 988.42 579.87 1087.36 591.73
00002347 00000009 890.33 147.60 399.85 587.86 934.37 377.25 1042.70 387.34 902.57 501.10 971.66 578.67 1080.95 581.25
00002348 DELETE   882.63 155.67 399.49 580.17 925.49 379.50 1035.83 386.06 896.34 498.87 964.81 578.94 1076.33 579.87
00002349 00000011 878.65 142.01 400.84 594.71 919.53 377.12 1027.23 384.55 888.24 496.18 961.53 577.61 1071.95 578.87
00002350 00000012 877.63 138.69 399.84 595.94 918.35 375.71 1023.79 383.95 883.97 493.92 960.48 573.66 1070.37 575.26
00002351 00000013 878.01 132.33 401.33 601.59 918.66 373.17 1025.16 381.21 882.61 492.10 959.65 572.73 1070.96 573.93
00002352 00000014 877.92 134.47 403.06 598.68 919.89 372.92 1022.77 379.63 880.63 487.73 960.20 572.07 1068.03 572.19
00002353 00000015 877.87 138.90 403.23 592.97 920.60 371.23 1023.31 379.02 879.58 483.76 959.83 569.67 1067.02 570.74
00002354 00000016 878.92 138.82 404.36 594.48 920.91 372.65 1024.66 378.65 880.23 483.94 960.35 570.86 1068.79 570.31
00002355 00000017 880.68 141.47 403.40 591.15 921.89 373.09 1025.89 378.70 881.39 484.30 961.36 570.55 1069.99 569.67
00002356 00000018 881.02 148.49 400.99 582.88 922.48 375.27 1026.26 379.71 883.64 485.85 962.48 570.50 1071.61 568.88
00002357 00000019 882.17 144.91 401.23 586.47 923.61 374.89 1028.06 378.17 884.72 485.69 963.07 571.70 1072.61 569.14
00002358 00000020 882.31 146.96 402.17 583.89 924.30 374.56 1029.34 378.22 886.20 485.26 962.20 571.71 1071.94 569.74
00002359 00000021 885.32 143.09 402.19 587.54 927.01 374.26 1031.71 378.22 887.71 485.78 963.42 572.07 1072.28 570.33
00002360 00000022 885.07 124.37 412.85 616.17 938.82 374.04 1041.65 382.41 906.01 486.62 975.58 571.61 1073.57 573.17
00002361 00000023 889.56 122.82 411.37 619.22 941.26 373.45 1046.30 381.11 910.53 486.07 976.62 573.89 1074.17 575.22
00002362 00000024 895.45 125.09 409.03 610.64 944.33 367.71 1054.74 382.87 909.49 484.89 968.48 576.94 1058.76 588.10
00002363 00000025 900.12 123.66 406.30 609.92 947.84 368.83 1062.44 386.02 915.76 483.12 967.42 576.26 1059.46 589.71
00002364 00000026 901.09 129.40 409.63 604.90 950.54 372.54 1069.04 389.90 921.99 482.39 966.38 574.67 1069.17 587.69
00002365 00000027 900.69 133.55 413.99 602.44 949.48 373.46 1069.81 391.66 923.17 484.82 966.78 574.35 1072.66 587.98
00002366 00000028 899.90 134.78 419.38 601.72 947.37 373.41 1070.85 392.62 923.56 487.50 966.72 573.91 1076.04 588.27
00002367 00000029 901.69 132.23 418.41 608.29 947.38 376.61 1071.18 393.20 924.05 488.31 967.50 577.20 1075.97 589.43
00002368 00000030 902.43 130.90 417.61 620.17 949.38 372.77 1068.71 390.83 921.80 487.63 975.90 576.60 1084.07 589.15
00002369 00000031 904.81 132.97 414.63 618.80 951.36 372.79 1068.04 390.23 922.60 486.87 981.52 574.06 1088.80 585.71
00002370 00000032 906.04 129.32 419.32 623.73 951.23 376.64 1068.61 388.90 921.87 493.81 983.41 579.08 1093.28 585.41
00002371 00000033 908.05 133.77 420.81 618.21 952.23 375.78 1072.18 389.12 922.56 494.57 985.66 577.61 1099.48 584.89
00002372 00000034 912.59 124.09 416.38 625.44 953.88 374.23 1075.45 382.95 926.16 490.01 986.16 578.40 1103.39 582.60
00002373 00000035 915.15 127.80 415.54 618.60 953.67 380.89 1077.11 388.23 927.51 492.25 988.08 577.54 1108.00 580.35
00002374 00000036 913.36 130.75 411.17 615.18 956.99 378.68 1076.43 391.47 930.26 494.67 990.44 575.54 1099.38 582.69
00002375 00000037 914.93 129.66 413.81 619.13 958.22 378.85 1081.59 394.63 932.08 496.05 987.80 573.23 1103.04 582.51
00002376 00000038 915.44 132.30 411.24 619.83 959.08 383.28 1084.43 399.53 934.22 500.81 988.58 575.33 1105.98 584.43
00002377 00000039 917.13 135.67 408.73 618.96 962.20 386.65 1087.01 404.85 938.77 507.21 990.91 576.16 1111.20 586.24
00002378 00000040 916.66 141.41 407.76 613.46 962.93 390.90 1085.37 409.10 938.46 512.15 995.02 580.60 1115.87 590.07
00002379 00000041 915.00 146.17 404.50 612.01 961.13 395.30 1083.10 412.61 938.25 517.13 993.69 584.60 1113.77 592.84
00002380 00000042 911.06 153.44 404.79 604.86 959.59 401.92 1081.86 419.68 941.94 524.25 993.58 587.56 1112.92 595.71
00002381 00000043 910.25 161.41 402.30 597.88 956.29 410.10 1079.21 421.30 942.17 527.63 992.53 595.66 1110.32 598.76
00002382 00000044 906.93 170.63 403.45 591.29 951.61 412.56 1079.25 423.76 943.45 531.61 990.39 598.68 1110.88 601.74
00002383 00000045 903.20 174.86 403.99 588.53 947.96 412.71 1077.58 427.05 943.15 538.35 989.71 600.00 1110.81 605.29
00002384 00000046 901.22 178.53 400.82 587.06 943.45 415.03 1076.57 427.81 942.97 542.46 986.71 603.57 1110.26 607.56
00002385 00000047 898.84 181.02 404.53 588.27 941.94 413.37 1077.76 427.83 945.06 546.16 986.72 604.65 1110.78 610.16
00002386 00000048 899.21 179.75 403.62 590.86 943.53 415.98 1079.67 429.99 947.02 546.07 985.83 609.74 1103.71 615.45
00002387 00000049 897.87 180.04 414.49 595.66 944.46 424.80 1084.42 444.94 950.88 548.65 976.47 615.05 1093.90 629.78
00002388 00000050 899.37 180.14 412.56 597.28 943.05 428.48 1083.59 448.46 950.62 554.41 973.35 626.30 1083.46 641.15
00002389 00000051 900.62 178.39 409.53 606.44 943.26 431.42 1084.74 452.18 953.48 558.36 972.14 630.36 1083.06 646.05
00002390 00000052 900.84 175.34 407.48 616.20 944.97 434.84 1086.16 452.49 955.41 556.99 972.23 631.39 1087.52 645.05
00002391 00000053 900.96 182.48 405.89 617.33 948.00 435.15 1089.81 454.42 958.07 558.61 974.51 627.52 1099.20 642.25
00002392 00000054 894.51 190.45 409.10 614.51 951.67 432.04 1089.86 446.34 964.42 561.18 989.33 627.93 1116.35 637.69
00002393 00000055 891.65 197.05 411.87 614.19 949.45 434.97 1094.70 450.45 967.45 570.34 987.64 629.54 1129.26 639.44
00002394 DELETE   897.01 204.51 408.72 605.76 955.47 436.91 1106.50 459.96 979.78 581.56 985.28 622.95 1140.28 638.54
00002395 00000057 900.99 219.95 416.03 582.10 964.15 440.35 1118.32 466.19 993.38 582.86 988.47 622.90 1142.03 641.24
00002396 00000058 901.18 220.52 419.44 576.03 964.77 439.79 1123.34 463.59 994.88 577.13 987.52 626.19 1135.23 643.72
00002397 00000059 901.14 216.54 421.98 577.13 966.43 439.55 1123.23 461.00 993.65 571.73 987.22 633.74 1118.70 650.57
00002398 00000060 900.92 212.65 417.66 577.30 964.23 438.93 1121.28 459.80 991.49 572.99 983.94 638.64 1109.64 655.52
00002399 00000061 898.42 216.95 417.68 575.08 964.68 438.89 1119.91 460.19 992.37 573.60 987.25 641.61 1107.52 658.83
00002400 00000062 900.01 219.24 414.08 581.32 968.21 441.30 1119.18 463.10 994.51 576.86 993.62 642.21 1111.09 659.24
00002401 00000063 903.72 223.24 414.09 584.30 972.00 443.49 1120.51 465.38 995.72 580.46 998.45 643.19 1121.18 659.41
00002402 00000064 905.38 223.32 409.26 583.33 971.71 445.69 1117.30 465.64 994.55 580.71 1000.23 641.53 1124.80 655.70
00002403 00000065 900.50 218.53 411.93 589.67 968.69 445.02 1115.40 465.99 994.17 581.91 996.89 637.43 1126.34 651.98
00002404 00000066 899.57 218.98 412.49 588.19 966.84 447.96 1114.83 467.51 993.93 583.72 996.17 639.13 1127.94 652.53
00002405 00000067 898.79 218.07 414.55 590.37 965.94 445.83 1116.35 466.44 993.78 584.60 996.06 638.20 1130.95 652.28
00002406 00000068 900.34 221.65 414.83 587.43 966.34 443.30 1116.77 465.81 993.29 585.00 997.16 635.56 1133.64 651.05
00002407 00000069 903.27 221.68 413.62 586.63 968.10 443.92 1118.83 465.40 994.37 583.77 998.02 636.14 1134.59 650.82
00002408 00000070 905.04 225.63 416.21 582.04 971.06 443.83 1121.33 465.95 996.55 583.97 1000.40 635.68 1137.00 650.81
00002409 00000071 909.11 223.94 417.37 584.36 973.86 444.31 1125.65 466.00 999.70 584.12 1002.10 635.66 1140.87 650.62
00002410 00000072 911.81 227.25 418.35 579.74 976.23 444.05 1129.02 466.23 1002.51 584.41 1004.42 633.56 1143.71 648.83
00002411 00000073 916.58 226.09 416.25 580.04 980.15 447.18 1131.78 467.58 1005.28 584.27 1006.90 633.99 1146.56 647.82
00002412 00000074 922.61 224.68 414.38 582.58 982.86 447.48 1132.66 466.70 1005.02 583.66 1010.04 634.61 1149.63 647.55
00002413 00000075 924.87 227.82 413.23 578.85 984.79 446.07 1133.86 466.80 1005.38 583.07 1011.81 633.30 1151.44 647.37
00002414 00000076 925.22 225.59 412.37 583.20 985.40 445.30 1133.51 466.50 1003.47 581.31 1011.44 633.36 1152.53 647.73
00002415 00000077 926.01 227.70 412.76 582.17 985.44 444.52 1132.96 466.30 1001.36 581.09 1012.23 635.01 1151.44 649.81
00002416 00000078 926.37 228.41 410.73 581.61 985.81 444.12 1133.04 467.82 1000.31 581.50 1011.00 634.01 1150.48 650.33
00002417 00000079 927.72 224.43 408.83 586.41 986.62 443.66 1132.25 467.86 998.59 580.63 1011.16 633.82 1150.62 650.45
00002418 00000080 928.92 226.49 408.79 583.74 987.85 443.15 1132.78 467.95 998.41 580.26 1011.82 636.55 1145.16 653.96
00002419 00000081 930.24 226.17 407.08 571.69 984.51 447.15 1132.65 468.79 995.96 581.29 1006.87 644.53 1132.43 660.55
00002420 00000082 930.69 227.62 406.46 568.10 984.59 447.44 1132.16 468.80 995.65 581.09 1007.35 645.33 1130.07 661.20
00002421 00000083 930.59 222.54 404.15 576.87 985.54 444.84 1133.43 467.76 997.27 580.49 1006.24 639.98 1136.32 656.94
00002422 00000084 930.05 223.50 405.99 578.29 985.56 442.00 1133.29 465.99 997.97 579.62 1008.11 635.58 1143.88 652.83
00002423 00000085 929.01 222.89 409.59 576.68 984.60 440.81 1134.57 464.58 999.06 576.70 1006.61 633.58 1145.06 650.83
00002424 00000086 931.61 223.84 408.25 574.99 986.58 439.50 1136.37 463.49 999.73 574.51 1007.86 632.79 1144.53 650.34
00002425 00000087 932.19 219.68 407.54 577.40 986.08 440.12 1136.63 463.14 999.02 574.48 1006.12 635.94 1140.68 653.02
00002426 00000088 934.38 220.15 406.82 573.55 989.38 442.65 1137.75 463.83 1000.42 571.89 1008.44 638.59 1136.43 654.55
00002427 00000089 935.97 207.09 409.61 583.34 988.79 439.03 1136.25 462.22 1001.87 565.54 1012.16 634.80 1135.24 650.40
00002428 00000090 935.67 217.15 404.89 582.51 990.80 441.79 1138.93 464.06 999.80 570.32 1006.43 639.13 1135.30 656.19
00002429 00000091 935.11 215.09 406.36 587.30 989.95 439.63 1140.21 463.89 1000.45 572.07 1005.32 637.17 1137.55 655.75
00002430 00000092 934.89 213.75 407.66 586.68 989.15 440.00 1140.58 463.51 1000.03 571.27 1002.83 638.12 1135.43 656.34
00002431 00000093 937.89 203.86 410.23 591.54 990.38 436.72 1136.81 461.59 999.86 562.02 1009.51 635.41 1131.03 652.87
00002432 00000094 935.47 199.76 412.07 593.29 990.51 435.90 1137.04 463.03 999.50 564.00 1007.01 632.55 1128.68 651.85
00002433 00000095 933.33 203.71 413.33 588.84 990.28 432.12 1137.32 462.55 998.99 563.61 1006.07 628.33 1129.21 650.10
00002434 00000096 931.80 213.53 410.20 586.41 988.12 433.68 1139.56 462.38 997.40 569.18 1002.37 631.12 1136.03 653.26
00002435 00000097 933.36 215.86 410.65 581.98 988.35 433.77 1140.06 463.68 997.37 570.86 1003.16 629.87 1138.66 652.70
00002436 00000098 933.65 216.52 412.32 578.74 988.00 433.82 1140.49 463.42 997.24 570.05 1003.10 627.90 1140.58 650.37
00002437 00000099 935.30 215.85 410.05 583.22 989.58 434.63 1140.72 464.42 998.32 570.02 1003.98 626.39 1144.57 648.75
00002438 00000100 936.04 219.19 409.20 585.86 990.45 436.17 1139.30 465.78 997.78 574.79 1009.16 629.59 1149.80 651.31
00002439 00000101 934.69 224.47 407.02 577.41 989.87 436.92 1137.10 469.20 995.31 576.57 1006.01 628.77 1143.61 652.61
00002440 00000102 935.63 220.72 408.12 576.53 989.81 433.75 1138.34 468.68 993.43 570.21 1000.39 625.54 1140.74 651.90
00002441 00000103 940.67 211.68 408.37 587.41 994.75 427.38 1143.26 464.67 995.47 564.71 1005.12 619.99 1145.71 648.16
00002442 00000104 945.48 194.87 408.99 597.48 999.41 420.91 1144.97 455.92 999.06 554.37 1009.64 613.95 1157.06 640.25
00002443 00000105 949.67 180.39 409.33 604.50 1004.86 409.65 1146.18 446.12 1002.85 538.80 1015.69 602.01 1149.70 628.77
CROP_BBOX: 576 0 1707 1049
