Video ID: 	tzb4XSmtI1s
H: 	1080
W: 	1920
FPS: 	25.0

FRAME INDEX X0 Y0 W H [Landmarks (5 Points)]

00006030 00000000 884.66 294.71 398.54 558.61 968.41 530.09 1148.91 502.46 1071.00 642.66 1015.29 718.25 1178.22 693.90
00006031 00000001 891.94 290.75 395.02 562.54 973.07 526.65 1154.51 505.62 1071.23 641.97 1015.14 717.39 1177.23 698.49
00006032 00000002 894.83 281.39 394.63 578.77 976.08 519.65 1154.46 504.43 1066.01 631.54 1013.41 714.10 1173.06 699.79
00006033 00000003 894.99 290.33 393.16 570.69 974.41 508.08 1149.99 494.14 1059.47 622.22 1009.30 707.22 1167.78 694.03
00006034 00000004 894.46 280.81 389.60 571.72 969.80 494.66 1146.75 483.51 1051.29 612.35 1003.94 698.60 1158.24 687.57
00006035 00000005 893.52 262.49 388.94 576.97 960.66 484.10 1133.97 470.86 1042.20 607.52 999.57 687.12 1150.10 674.96
00006036 00000006 891.34 253.84 392.36 578.03 957.81 474.79 1130.14 465.37 1031.85 598.32 991.05 678.95 1139.60 669.99
00006037 00000007 884.39 250.36 392.59 565.91 958.50 472.24 1131.65 463.99 1026.64 589.09 985.99 672.72 1137.23 666.39
00006038 00000008 885.55 245.07 391.37 566.20 952.24 466.34 1123.32 455.97 1014.74 583.91 978.70 671.14 1127.55 662.86
00006039 00000009 887.77 241.32 381.95 561.82 953.15 460.85 1117.11 453.21 1011.80 577.24 976.42 664.15 1115.55 658.58
00006040 00000010 889.51 244.61 379.09 554.87 955.06 457.29 1116.67 454.01 1009.34 570.65 971.12 654.40 1112.33 652.80
00006041 00000011 888.45 247.15 384.44 552.86 954.39 460.90 1120.78 457.40 1008.27 574.17 969.90 656.27 1117.34 654.26
00006042 00000012 890.07 253.62 387.62 561.65 958.31 464.44 1133.45 469.32 1024.09 591.24 982.30 672.98 1123.44 675.60
00006043 00000013 903.86 257.64 383.59 575.62 971.32 475.08 1138.97 477.12 1037.32 609.25 993.64 680.37 1135.98 680.76
00006044 00000014 905.14 257.47 383.41 590.17 975.37 483.84 1149.24 484.67 1045.72 613.56 994.81 688.46 1149.18 688.23
00006045 00000015 902.70 261.17 385.75 583.48 969.25 483.97 1145.48 487.35 1039.60 616.49 990.93 688.07 1144.55 689.66
00006046 DELETE   896.55 266.10 387.33 567.67 955.41 486.04 1130.52 487.70 1020.43 612.07 977.90 683.30 1129.12 683.33
00006047 DELETE   876.16 260.30 389.16 558.61 935.79 483.25 1106.58 481.96 998.46 605.55 963.40 673.89 1114.24 671.88
00006048 DELETE   868.08 262.31 381.24 555.18 927.17 478.00 1087.22 477.04 970.89 595.03 948.22 670.13 1096.40 668.91
00006049 00000019 857.07 252.33 385.14 567.46 920.51 466.68 1073.94 464.34 962.07 586.09 942.71 667.26 1086.98 664.30
00006050 00000020 849.86 253.66 392.66 570.26 909.93 463.25 1064.36 452.36 954.58 576.65 943.53 671.74 1085.36 661.78
00006051 00000021 843.44 249.22 403.13 571.50 900.83 461.07 1056.60 439.40 948.95 569.62 946.09 670.25 1088.78 650.70
00006052 00000022 837.93 233.25 404.41 580.18 894.40 465.18 1051.60 428.56 948.15 561.56 950.91 671.21 1087.33 639.31
00006053 00000023 839.17 221.61 399.64 580.01 891.67 462.55 1044.84 423.75 947.80 558.20 949.63 656.59 1083.67 623.85
00006054 00000024 831.67 219.92 398.86 568.07 883.95 457.11 1044.80 417.10 949.35 549.09 941.26 649.29 1079.11 615.57
00006055 00000025 827.55 225.03 402.03 559.92 880.74 452.95 1043.50 416.19 948.32 546.03 935.37 646.19 1071.50 615.37
00006056 00000026 821.04 224.99 405.62 561.65 876.62 456.10 1039.49 418.43 945.29 546.29 930.42 646.53 1068.06 615.00
00006057 00000027 813.94 223.77 407.54 571.27 871.97 461.82 1031.36 424.59 937.23 554.23 926.42 651.24 1065.00 619.62
00006058 00000028 810.82 245.58 400.03 563.39 873.13 469.68 1021.82 438.87 928.29 568.08 926.38 666.42 1060.79 639.59
00006059 00000029 803.54 253.95 397.07 564.40 866.10 473.72 1014.65 438.71 925.35 576.64 926.92 675.81 1061.97 645.23
00006060 00000030 802.53 251.86 398.96 575.49 863.87 475.03 1015.08 437.43 923.38 577.89 928.50 681.94 1066.84 648.66
00006061 00000031 803.09 249.09 403.47 576.72 865.89 472.11 1018.28 435.86 925.49 574.07 927.68 679.17 1065.59 647.20
00006062 00000032 804.99 245.31 403.94 566.71 868.12 469.44 1019.46 438.17 926.65 570.33 923.58 671.25 1059.09 644.08
00006063 00000033 808.67 244.72 403.86 563.94 870.28 469.55 1022.32 439.41 927.81 569.24 924.03 669.51 1059.37 643.39
00006064 00000034 808.32 237.92 409.40 578.81 870.19 467.58 1025.07 431.72 929.97 575.59 932.57 673.29 1062.47 642.70
00006065 00000035 813.11 241.03 404.52 577.05 874.82 469.95 1025.65 432.09 932.65 577.39 938.93 673.91 1065.55 641.76
00006066 00000036 814.84 239.43 405.68 577.03 876.89 473.37 1028.68 433.53 936.32 575.11 941.00 675.03 1067.51 641.51
00006067 00000037 816.70 238.86 404.51 576.38 877.95 473.43 1030.75 432.68 939.29 576.83 942.92 675.12 1071.05 641.00
00006068 00000038 820.06 237.10 402.99 577.89 880.80 471.97 1031.80 431.63 941.67 577.94 943.66 672.67 1073.29 639.14
00006069 00000039 813.49 239.71 410.02 573.81 875.30 470.26 1035.58 435.33 938.18 575.01 938.31 676.75 1070.74 645.76
00006070 00000040 813.31 238.28 411.28 573.83 875.48 470.51 1037.91 435.81 941.61 576.26 938.20 677.43 1071.70 646.78
00006071 00000041 815.07 244.68 412.74 569.34 876.36 472.60 1040.18 437.47 941.88 576.59 936.44 679.57 1072.09 648.53
00006072 00000042 814.47 244.48 413.96 572.62 875.78 475.85 1041.29 439.06 942.79 577.95 936.12 682.11 1074.96 649.43
00006073 00000043 817.20 245.41 411.60 569.64 876.96 480.78 1035.04 445.35 944.20 580.17 940.31 675.74 1072.73 645.18
00006074 00000044 811.99 240.58 412.50 577.73 874.38 477.50 1040.75 442.25 944.27 580.95 935.79 682.61 1074.69 651.03
00006075 00000045 812.50 240.32 414.24 578.27 875.05 477.71 1040.58 441.71 943.68 581.19 936.74 683.14 1075.18 650.93
00006076 00000046 817.67 247.23 410.80 570.41 877.38 482.05 1034.32 445.69 944.21 580.62 941.80 676.88 1074.29 645.55
00006077 00000047 817.60 245.66 408.96 569.85 877.47 477.05 1043.84 440.54 946.47 581.04 938.11 683.31 1079.09 650.92
00006078 00000048 823.62 251.11 408.20 565.72 882.55 480.07 1038.88 443.87 949.07 581.87 945.66 676.30 1077.84 645.34
00006079 00000049 825.22 251.43 411.95 566.89 887.77 478.45 1043.94 442.84 955.95 584.03 952.09 675.37 1084.16 644.84
00006080 00000050 828.91 252.35 407.01 566.56 894.40 477.90 1047.22 446.00 957.52 585.18 952.39 679.32 1089.97 651.24
00006081 00000051 830.86 253.08 410.02 565.82 897.26 479.27 1050.21 446.68 961.02 582.90 956.41 680.19 1094.13 651.55
00006082 00000052 832.27 257.35 411.65 559.23 900.18 486.00 1055.98 453.57 964.79 583.52 957.79 678.64 1098.16 650.14
00006083 00000053 833.33 255.96 411.17 560.25 900.78 486.13 1055.64 454.82 963.78 583.55 956.41 678.39 1096.32 650.86
00006084 00000054 835.93 255.00 408.23 560.57 899.95 478.55 1056.15 450.74 960.97 583.49 952.71 676.87 1093.06 652.36
00006085 00000055 839.67 249.57 408.25 567.25 901.16 477.23 1055.38 451.34 958.17 584.52 952.20 677.48 1093.11 654.30
00006086 00000056 842.35 247.52 406.38 571.00 903.16 475.52 1056.94 453.12 957.42 585.24 951.38 677.68 1091.77 657.29
00006087 00000057 843.59 249.00 406.48 569.47 904.09 472.14 1056.08 452.36 955.36 585.91 952.56 676.31 1091.86 657.88
00006088 00000058 848.96 250.09 403.35 568.19 906.75 465.88 1057.84 448.80 951.74 581.44 951.97 672.67 1090.91 656.76
00006089 00000059 854.26 241.46 396.85 574.74 909.47 461.06 1061.79 445.58 952.53 576.88 951.11 668.86 1092.33 654.73
00006090 00000060 859.26 241.17 397.41 574.44 913.40 460.19 1062.22 447.55 950.91 576.87 950.39 666.16 1090.75 654.43
00006091 00000061 862.98 245.67 392.23 571.53 918.02 459.29 1062.73 450.05 949.82 576.46 951.37 664.99 1088.96 656.21
00006092 00000062 864.96 242.38 389.60 577.20 920.84 460.18 1061.23 456.24 945.30 581.07 950.33 666.37 1082.83 661.63
00006093 00000063 865.81 249.44 379.18 570.26 919.51 464.36 1060.14 463.59 943.32 591.30 946.48 668.95 1079.28 667.23
00006094 00000064 865.27 250.98 374.33 573.04 917.92 467.17 1053.57 470.02 937.53 598.08 945.58 670.66 1074.66 671.35
00006095 00000065 863.06 254.03 381.03 573.52 910.02 463.74 1055.49 474.03 934.76 602.58 939.01 667.68 1068.56 674.64
00006096 00000066 861.42 250.44 376.03 579.05 904.86 467.83 1047.59 479.79 927.33 604.66 932.10 670.99 1061.03 679.45
00006097 00000067 854.99 251.89 380.40 570.50 899.91 470.49 1043.19 484.79 924.86 607.44 924.65 669.94 1051.73 680.34
00006098 00000068 852.06 250.21 378.56 567.50 897.59 470.00 1041.59 487.53 922.14 609.20 918.30 667.61 1047.83 680.61
00006099 00000069 851.79 246.02 379.16 570.59 897.41 469.46 1040.78 488.09 919.44 607.81 917.53 666.02 1046.88 679.88
00006100 00000070 851.40 249.26 378.00 567.26 897.69 469.96 1039.90 489.51 918.90 608.56 916.92 666.06 1045.52 680.52
00006101 00000071 851.26 251.71 375.18 566.70 896.71 469.65 1036.24 489.52 914.94 604.79 913.81 664.80 1039.80 679.38
00006102 00000072 849.19 248.99 374.90 572.01 895.06 468.92 1033.16 489.51 911.35 604.03 910.19 665.03 1034.10 680.31
00006103 00000073 844.05 255.79 381.30 564.01 889.78 466.22 1028.10 490.80 903.47 603.64 901.79 662.15 1024.21 680.49
00006104 00000074 840.45 262.67 382.90 559.06 883.26 464.91 1022.52 487.31 894.63 602.16 897.97 667.19 1013.56 683.47
00006105 00000075 834.06 255.01 388.30 581.98 876.39 455.29 1021.94 486.59 883.70 604.36 901.07 676.09 1012.36 697.71
00006106 00000076 831.44 260.08 392.86 575.00 881.68 460.22 1023.13 487.35 888.53 600.39 905.47 678.64 1013.55 701.82
00006107 00000077 827.69 257.69 393.43 582.08 874.47 466.42 1021.09 488.77 882.55 604.35 900.20 689.42 1009.86 709.19
00006108 00000078 822.13 265.95 391.64 572.28 866.45 463.28 1020.00 495.26 878.93 613.07 887.29 689.07 1001.30 717.29
00006109 00000079 830.19 252.91 380.67 589.48 865.97 474.41 1013.48 502.15 872.01 613.31 882.21 694.29 991.31 715.48
00006110 00000080 829.53 275.37 379.11 573.55 863.64 481.98 1007.45 507.78 867.79 619.82 880.57 703.94 989.24 722.98
00006111 00000081 819.90 281.86 387.25 574.91 858.60 476.87 1012.29 508.15 870.92 625.53 879.39 709.37 986.20 737.34
00006112 00000082 824.20 278.75 380.96 572.53 856.09 484.00 1000.59 508.39 864.02 623.00 875.51 708.70 982.33 726.50
00006113 00000083 823.21 269.31 381.03 579.03 854.82 483.49 1001.03 506.90 863.98 621.63 875.19 706.93 983.79 724.18
00006114 00000084 823.29 263.50 381.87 582.39 855.29 481.39 1002.46 505.52 865.30 619.98 875.14 702.67 985.24 720.75
00006115 00000085 824.40 263.99 382.58 581.76 857.33 481.31 1003.28 505.58 865.67 617.57 876.11 701.20 984.62 719.41
00006116 00000086 825.00 267.81 381.52 577.80 857.30 481.14 1003.65 504.99 865.47 617.57 876.53 702.69 983.98 720.46
00006117 00000087 824.39 267.91 382.48 578.11 856.41 481.19 1002.49 505.16 863.12 617.11 874.92 702.29 983.52 720.15
00006118 00000088 822.97 268.32 381.49 576.66 855.12 479.81 1001.08 506.17 860.88 616.97 872.24 700.44 981.71 720.18
00006119 00000089 823.38 266.75 379.95 579.54 855.50 480.48 996.44 507.54 857.55 616.60 873.64 700.25 979.90 720.54
00006120 00000090 822.62 267.12 378.87 578.21 853.97 479.39 992.75 507.26 853.66 616.28 872.15 699.14 977.86 720.08
00006121 00000091 821.93 259.61 379.90 585.66 852.56 478.50 991.73 506.50 849.60 614.62 869.70 698.76 977.87 719.88
00006122 00000092 818.96 258.95 383.15 583.27 850.47 476.71 990.28 506.28 847.10 615.03 868.46 696.13 978.70 718.37
00006123 00000093 818.14 253.85 383.41 589.60 850.13 477.17 988.33 506.26 847.10 614.25 867.74 696.84 975.36 718.99
00006124 00000094 817.66 258.64 379.80 584.59 848.36 476.79 986.80 506.45 844.82 616.04 864.02 697.03 973.27 719.70
00006125 00000095 815.11 262.52 379.99 581.38 846.03 476.33 984.66 507.44 842.26 618.08 859.83 695.66 971.13 719.59
00006126 00000096 812.91 263.17 380.00 581.66 844.76 477.19 980.94 507.12 840.05 617.25 858.20 697.90 966.00 720.99
00006127 00000097 811.85 262.31 381.24 581.02 844.00 477.48 979.78 507.66 838.77 617.47 856.93 697.34 965.05 720.59
00006128 00000098 811.26 261.12 378.68 581.85 842.88 478.36 977.75 507.24 838.60 618.08 855.75 698.72 962.88 721.07
00006129 00000099 811.61 258.46 376.04 585.34 842.62 479.01 977.38 507.41 837.82 618.02 856.06 699.76 964.13 721.68
00006130 00000100 811.43 261.38 375.98 581.78 842.84 479.18 976.64 507.37 837.88 616.75 855.11 699.41 961.38 721.21
00006131 00000101 811.61 257.95 374.44 585.64 843.09 479.91 977.23 507.23 838.81 617.09 856.89 700.13 964.00 721.24
00006132 00000102 811.73 259.17 374.95 585.46 843.37 480.19 978.32 507.56 838.38 618.33 857.84 700.14 968.35 721.10
00006133 00000103 811.13 258.25 375.96 589.54 843.22 480.84 978.91 507.02 836.55 618.79 859.21 700.18 972.39 720.09
00006134 00000104 809.87 257.94 376.40 591.99 843.16 481.30 977.91 506.90 836.09 619.34 860.55 701.55 972.22 721.17
00006135 00000105 803.97 253.52 383.75 595.25 847.03 486.95 973.67 504.65 834.22 613.62 858.57 705.23 958.14 719.00
00006136 00000106 805.52 250.30 374.73 593.22 836.66 479.56 973.59 506.45 835.62 615.70 848.08 702.30 952.01 723.89
00006137 00000107 805.43 239.68 370.68 595.59 834.21 479.25 973.90 504.32 839.25 611.38 844.01 701.06 945.95 721.65
00006138 00000108 806.50 242.84 368.10 586.71 835.07 477.11 974.99 501.96 841.32 608.04 842.98 698.11 942.90 718.44
00006139 00000109 805.81 243.15 370.73 582.06 834.18 476.04 976.56 501.47 844.26 609.43 841.97 696.80 945.01 717.41
00006140 00000110 805.66 243.57 369.87 583.20 833.79 477.65 974.98 503.45 843.54 611.67 843.20 696.61 946.46 717.39
00006141 00000111 804.73 248.16 370.74 579.26 833.42 478.29 975.24 505.69 843.61 615.35 843.34 696.60 947.51 718.47
00006142 00000112 803.49 250.68 372.51 580.17 833.66 478.48 976.07 507.03 841.66 617.35 842.67 691.24 956.04 713.93
00006143 00000113 803.54 252.16 372.40 582.68 834.17 479.19 976.61 506.30 841.10 617.65 845.27 690.22 963.71 711.54
00006144 00000114 802.65 248.93 370.94 589.94 834.91 480.34 978.24 504.88 841.08 616.64 847.14 691.57 970.18 710.84
00006145 00000115 801.14 252.40 374.40 594.80 835.41 482.79 975.92 507.86 839.14 622.09 849.14 692.81 973.81 712.50
00006146 00000116 799.17 253.50 381.10 608.30 833.78 487.09 973.39 511.01 838.28 628.19 856.74 706.90 973.83 725.32
00006147 00000117 791.13 280.23 390.10 581.64 833.31 491.46 970.84 521.59 835.04 642.01 860.35 702.58 978.73 725.12
00006148 00000118 789.35 285.26 393.56 577.60 829.66 498.83 971.60 528.79 835.76 646.72 855.05 704.45 977.36 727.09
00006149 00000119 790.83 284.16 392.96 582.97 829.20 499.93 971.29 527.52 836.17 644.12 852.66 712.98 966.68 734.12
00006150 00000120 792.57 277.03 393.45 591.22 829.90 495.92 971.22 521.89 838.20 637.46 851.10 718.52 957.11 738.70
00006151 00000121 790.04 265.59 392.70 596.32 826.74 489.44 972.41 516.27 837.69 632.30 844.61 710.38 959.93 731.70
00006152 00000122 788.93 264.23 392.65 596.36 826.33 487.81 972.29 515.51 837.70 633.07 846.32 709.41 962.14 731.32
00006153 00000123 790.65 254.58 388.69 606.70 828.69 487.78 974.50 512.11 842.67 631.49 851.61 709.67 968.54 728.83
00006154 00000124 797.08 251.45 385.20 611.18 831.95 493.23 976.00 511.16 849.90 627.90 859.42 716.43 967.80 730.35
00006155 00000125 800.42 263.43 382.34 593.73 836.03 492.81 987.69 503.55 860.68 620.39 869.59 714.14 979.19 722.01
00006156 DELETE   803.90 262.80 393.34 582.39 847.09 494.96 998.75 494.38 879.17 609.04 892.48 704.10 999.40 701.99
00006157 DELETE   804.52 248.86 391.42 580.01 865.39 486.43 1007.11 478.78 897.00 591.18 896.83 690.75 1009.12 684.83
00006158 00000128 812.64 242.25 385.38 575.08 872.78 473.75 1016.14 458.71 908.68 577.46 905.51 677.88 1023.98 665.49
00006159 00000129 817.44 245.57 385.57 556.81 873.64 466.04 1019.14 444.41 919.00 564.05 913.89 664.44 1039.16 646.30
00006160 00000130 811.63 236.98 397.82 564.01 868.21 455.90 1032.31 433.58 928.92 556.97 918.62 663.65 1041.90 645.56
00006161 00000131 812.18 231.40 401.09 574.87 872.99 459.18 1035.17 434.93 934.86 561.67 926.64 669.69 1048.08 649.23
00006162 00000132 813.99 244.58 402.75 569.32 874.44 465.89 1037.96 444.52 935.26 572.88 928.69 677.81 1052.08 658.76
00006163 00000133 816.35 257.65 404.08 560.05 875.24 468.06 1040.53 448.87 934.00 575.90 925.54 681.40 1049.92 664.22
00006164 00000134 818.88 249.47 401.66 565.61 878.58 467.63 1042.55 448.78 937.00 574.29 928.42 679.19 1051.26 662.25
00006165 00000135 821.69 246.98 404.96 567.58 883.79 465.97 1046.50 445.67 943.17 574.21 934.78 678.28 1058.63 660.00
00006166 00000136 823.18 245.06 406.52 569.92 883.74 465.89 1047.96 444.96 942.49 575.56 934.67 679.20 1061.42 660.32
00006167 00000137 823.23 244.50 405.65 568.66 884.22 465.34 1047.33 444.17 942.40 573.05 936.21 677.52 1060.76 658.48
00006168 00000138 824.24 242.16 404.72 570.44 885.47 465.97 1048.58 441.91 944.36 571.91 936.86 676.65 1066.01 655.17
00006169 00000139 825.96 241.43 401.21 571.70 888.09 466.51 1051.18 442.87 949.02 576.03 939.30 678.32 1069.91 656.96
00006170 00000140 825.38 242.16 403.45 575.84 889.76 468.42 1051.34 445.31 950.52 578.78 941.75 680.24 1069.99 658.78
00006171 00000141 825.25 242.82 402.82 571.82 889.42 467.94 1050.22 445.14 949.91 576.91 941.27 677.50 1068.79 656.48
00006172 00000142 826.88 241.44 401.02 570.45 890.36 466.20 1050.94 442.73 949.46 573.55 940.68 673.70 1071.10 652.54
00006173 00000143 833.56 250.88 400.30 560.20 891.52 465.24 1050.75 442.56 948.29 573.58 936.58 669.37 1073.43 649.83
00006174 00000144 829.19 246.85 401.14 566.72 892.07 465.88 1050.74 439.70 947.53 567.59 943.40 673.89 1071.80 650.34
00006175 00000145 830.00 250.22 398.42 562.07 892.18 465.17 1050.88 439.47 947.68 568.40 942.44 671.26 1075.19 647.87
00006176 00000146 828.02 249.04 401.07 561.50 890.54 467.34 1051.26 441.31 949.97 572.04 942.44 671.59 1077.24 648.02
00006177 00000147 828.33 249.11 399.71 561.16 888.04 468.57 1050.21 442.07 950.42 576.39 939.22 670.80 1079.70 646.43
00006178 00000148 826.07 245.40 398.20 561.80 885.69 468.85 1049.67 445.27 950.31 580.04 936.18 669.75 1077.68 647.91
00006179 00000149 823.46 245.64 404.96 563.20 885.11 468.55 1048.11 445.75 947.94 580.91 934.72 670.12 1073.43 649.02
00006180 00000150 827.22 247.45 400.65 561.84 886.57 472.19 1043.39 448.70 949.62 581.61 936.02 664.51 1070.97 643.69
00006181 00000151 822.81 246.36 404.82 564.94 884.87 467.36 1048.22 445.19 947.47 580.39 934.05 671.69 1071.89 651.07
00006182 00000152 825.81 247.94 400.66 561.18 885.70 464.57 1051.12 443.03 949.59 580.03 934.60 667.36 1077.33 647.03
00006183 00000153 830.03 246.68 397.08 565.25 889.09 461.95 1048.11 441.60 946.14 580.11 937.47 663.98 1082.13 645.58
00006184 00000154 832.20 246.95 395.17 563.60 890.43 458.46 1050.26 435.27 948.52 574.48 944.98 666.04 1088.04 645.28
00006185 00000155 836.47 234.16 397.73 571.18 898.55 454.89 1054.93 434.12 956.76 566.67 949.03 656.61 1090.56 637.90
00006186 00000156 837.33 231.55 398.23 572.11 902.18 458.85 1060.57 439.76 961.33 565.00 948.47 653.27 1094.95 636.05
00006187 00000157 837.76 230.54 399.37 573.50 901.89 457.64 1059.13 436.91 961.62 567.37 948.57 653.36 1094.71 634.62
00006188 00000158 839.27 235.13 399.91 571.04 902.17 455.14 1058.11 436.53 959.53 569.06 947.27 654.02 1093.27 636.77
00006189 00000159 837.69 239.12 401.23 566.03 900.64 453.88 1058.68 437.14 958.58 570.52 942.48 652.89 1089.59 637.46
00006190 00000160 837.47 235.34 401.62 570.29 898.25 453.52 1058.10 436.51 956.01 569.03 939.45 652.68 1088.61 636.94
00006191 00000161 837.53 235.58 400.32 569.79 897.27 451.67 1057.21 434.14 954.57 566.40 937.64 650.01 1088.34 633.74
00006192 00000162 836.44 233.77 398.00 569.31 896.56 452.01 1056.61 434.82 954.52 564.45 936.46 649.82 1086.04 634.06
00006193 00000163 829.11 235.22 403.98 578.61 889.10 459.56 1051.40 434.09 948.03 567.80 936.60 662.21 1080.37 638.97
00006194 00000164 834.72 249.15 396.22 571.12 895.16 465.04 1051.97 447.93 947.96 577.54 933.75 666.75 1080.04 651.23
00006195 00000165 836.25 263.55 396.72 565.28 892.55 478.09 1048.52 457.38 948.49 589.24 934.11 674.46 1075.08 656.07
00006196 00000166 836.04 261.99 399.85 569.28 891.84 479.73 1053.01 462.64 952.81 596.36 933.53 677.95 1074.01 662.57
00006197 00000167 838.96 265.11 397.18 565.34 896.23 478.09 1057.10 461.74 955.97 596.39 936.04 676.21 1078.00 661.42
00006198 00000168 839.42 259.97 399.31 565.28 904.72 472.46 1060.05 459.24 957.18 585.07 938.67 673.69 1082.92 661.42
