Video ID: 	s6iHYba62nM
H: 	1080
W: 	1920
FPS: 	25.0

FRAME INDEX X0 Y0 W H [Landmarks (5 Points)]

00000968 00000000 721.05 225.88 354.53 503.10 801.91 436.47 976.50 427.53 896.18 550.52 843.35 620.94 977.59 613.71
00000969 00000001 721.65 226.53 355.87 505.96 803.56 435.71 973.77 428.33 896.80 553.96 848.86 623.47 975.21 617.43
00000970 00000002 722.29 227.18 356.95 508.16 804.97 434.36 974.31 428.52 898.99 554.80 854.16 628.71 972.75 624.18
00000971 00000003 725.85 229.88 354.71 508.28 806.83 434.68 975.88 429.63 900.03 557.36 856.86 631.95 973.25 628.35
00000972 00000004 726.40 230.48 356.18 507.83 808.07 435.65 978.54 431.67 901.93 559.01 857.50 633.66 973.24 631.06
00000973 00000005 728.41 231.18 356.27 507.85 809.02 434.92 980.83 432.16 902.03 560.58 857.89 633.72 975.21 632.16
00000974 00000006 731.35 232.41 355.45 510.21 810.90 438.49 981.51 434.27 902.99 562.58 860.38 636.33 978.64 633.64
00000975 00000007 738.75 234.95 355.37 514.05 815.15 439.22 987.39 434.83 905.87 564.28 856.11 647.02 979.11 644.36
00000976 00000008 741.27 236.40 356.78 514.08 817.15 441.59 990.49 437.29 907.57 564.51 855.76 646.35 984.67 643.38
00000977 00000009 744.23 236.90 358.20 519.27 819.77 446.06 991.60 437.95 909.85 564.49 855.83 646.55 990.04 640.76
00000978 00000010 744.96 239.00 359.72 520.73 823.82 447.69 997.28 440.14 913.66 568.18 858.06 649.68 993.37 644.22
00000979 00000011 746.41 240.58 361.52 522.75 825.56 450.31 1002.05 444.55 916.16 575.04 857.74 652.12 997.24 648.27
00000980 00000012 747.45 244.50 364.57 524.01 827.24 455.69 1005.73 447.44 918.97 580.27 858.67 655.04 1003.32 649.18
00000981 00000013 747.20 250.32 368.19 524.56 829.03 460.17 1006.68 450.12 921.08 585.68 859.61 656.97 1007.18 649.72
00000982 00000014 748.40 252.94 368.98 521.66 830.46 461.69 1008.20 450.84 923.16 588.28 865.10 662.24 1006.18 654.08
00000983 00000015 749.52 252.84 369.21 520.55 830.58 462.08 1010.23 452.11 923.75 589.62 865.03 663.09 1006.15 655.71
00000984 00000016 750.20 248.57 369.44 523.26 831.40 459.90 1011.98 450.59 924.45 586.28 866.60 663.70 1005.96 656.79
00000985 00000017 751.31 245.42 368.22 522.77 834.10 456.46 1012.43 449.11 925.44 583.62 867.90 661.69 1002.82 656.79
00000986 00000018 751.81 241.54 367.89 526.07 835.31 455.86 1013.41 447.11 926.87 577.84 869.80 661.03 1004.81 655.01
00000987 00000019 752.05 238.48 365.97 527.78 835.80 453.19 1013.70 443.47 927.67 569.33 868.62 656.41 1007.65 649.51
00000988 00000020 752.90 233.39 363.39 525.80 834.12 448.84 1013.32 437.01 928.00 559.18 868.42 650.25 1010.95 641.32
00000989 DELETE   750.02 231.21 363.85 521.57 834.00 441.51 1012.49 432.30 928.93 552.94 864.99 640.57 1009.28 633.41
00000990 00000022 747.88 229.54 363.76 517.07 832.89 436.09 1012.53 425.42 929.66 545.60 863.90 634.59 1007.98 626.18
00000991 00000023 746.24 221.21 366.01 521.65 830.03 429.57 1011.87 417.45 925.97 535.90 862.32 632.29 1005.61 621.90
00000992 00000024 740.69 217.09 367.54 521.24 828.31 426.44 1005.75 417.23 922.25 532.98 865.18 621.86 1002.61 615.05
00000993 00000025 737.40 210.92 369.02 523.35 823.83 424.28 1002.57 415.62 916.51 528.19 859.50 618.47 999.08 612.06
00000994 DELETE   734.12 204.65 369.92 527.97 818.00 421.16 995.97 413.48 908.15 525.97 853.67 616.37 991.69 610.63
00000995 00000027 730.77 202.42 370.48 528.47 812.48 416.26 987.86 408.83 899.66 522.59 846.44 610.84 983.38 605.68
00000996 DELETE   726.40 200.53 371.55 525.84 808.80 411.38 983.34 404.02 893.22 516.55 840.21 604.71 977.39 599.92
00000997 00000029 724.53 194.33 371.57 528.21 806.24 404.89 981.41 397.78 887.49 508.41 834.66 600.67 971.87 596.29
00000998 00000030 725.51 187.85 369.33 530.91 803.61 399.02 979.76 392.99 879.21 499.95 827.64 596.70 966.46 593.13
00000999 00000031 727.18 182.64 366.72 533.44 802.42 394.21 978.97 389.82 874.09 492.39 823.04 593.55 962.78 591.32
00001000 DELETE   729.28 182.12 364.84 530.63 802.32 396.44 976.63 392.10 871.18 490.72 821.20 591.72 960.57 589.72
00001001 00000033 732.80 183.09 363.35 527.10 805.09 398.48 977.12 395.80 870.27 488.64 821.07 588.64 959.13 588.27
00001002 DELETE   733.63 182.53 364.21 527.42 805.77 396.68 978.75 394.36 870.11 488.31 821.04 588.62 959.62 588.58
00001003 DELETE   735.14 180.89 364.01 528.21 806.30 394.87 979.49 393.41 870.01 488.79 820.17 588.53 959.22 589.21
00001004 00000036 736.53 180.01 363.50 528.13 806.71 392.93 980.30 391.21 870.04 488.29 820.14 588.76 959.31 589.25
00001005 00000037 738.08 179.01 361.64 528.02 806.94 390.01 980.62 388.80 869.37 488.22 820.57 587.06 959.11 588.05
00001006 00000038 739.48 178.52 361.37 527.00 808.30 387.40 982.05 387.29 870.79 488.46 822.11 585.67 959.15 587.57
00001007 00000039 740.90 178.66 360.07 526.21 809.63 387.09 982.60 386.97 872.45 488.94 824.33 585.46 960.34 587.27
00001008 00000040 741.30 179.43 360.05 524.05 810.43 385.69 983.72 386.19 874.74 489.92 826.92 585.46 959.78 587.69
00001009 00000041 740.74 178.29 360.40 524.11 810.99 383.35 984.60 384.99 876.38 489.43 828.68 585.08 958.51 588.11
00001010 00000042 741.20 177.88 358.74 522.80 811.67 381.72 983.55 383.97 877.09 489.89 830.32 584.68 956.62 588.35
00001011 00000043 741.62 175.24 357.91 524.97 811.99 380.57 984.80 383.84 878.08 489.32 828.91 583.02 958.21 587.33
00001012 00000044 740.27 176.01 356.38 524.11 811.78 380.81 983.69 383.02 879.39 488.93 831.98 585.33 955.10 588.79
00001013 00000045 739.06 175.58 353.96 523.44 812.74 384.78 981.21 387.53 879.40 486.11 833.96 584.34 954.86 588.26
00001014 00000046 739.42 176.22 353.85 522.13 814.35 384.70 981.66 387.01 881.62 482.32 834.89 580.61 958.08 584.01
00001015 00000047 737.72 175.18 355.28 523.75 812.37 382.10 983.07 382.83 882.52 478.95 832.45 579.97 960.79 582.01
00001016 00000048 737.82 175.35 354.12 526.84 810.89 379.82 983.08 378.84 882.66 481.28 831.28 580.14 962.53 580.97
00001017 00000049 737.04 175.56 355.65 528.27 811.85 380.54 984.98 380.32 883.36 483.16 830.79 580.31 965.67 581.64
00001018 00000050 736.66 176.70 356.29 527.78 812.59 381.42 986.38 381.51 886.09 485.20 831.56 580.69 969.24 582.06
00001019 00000051 736.25 180.09 356.57 523.72 814.24 382.50 987.11 383.02 888.76 487.73 832.32 579.61 970.92 581.45
00001020 00000052 736.03 182.32 356.32 520.33 815.67 384.05 987.47 384.77 892.62 490.61 834.27 579.68 971.84 581.70
00001021 00000053 736.79 183.77 355.81 519.45 817.61 385.52 989.54 385.71 895.95 493.47 836.88 582.37 973.61 584.01
00001022 00000054 736.00 184.73 356.45 518.23 818.41 385.68 988.76 384.92 899.15 496.47 841.99 586.40 969.89 587.01
00001023 00000055 735.55 183.75 355.44 516.62 816.81 386.07 987.67 385.23 899.07 497.34 843.82 589.44 968.26 589.74
00001024 00000056 735.53 183.03 354.19 518.23 817.17 385.52 987.61 384.74 899.79 495.18 842.46 587.83 968.54 588.19
00001025 00000057 734.87 182.46 354.57 518.44 817.22 384.28 988.15 384.32 899.46 493.99 842.49 586.03 968.55 587.13
00001026 00000058 733.69 182.53 356.04 521.79 817.19 383.00 987.93 383.15 899.26 492.42 841.76 585.65 966.41 587.08
00001027 00000059 733.40 182.84 354.74 521.79 816.23 383.63 987.57 383.18 898.44 493.42 839.86 586.20 967.38 587.18
00001028 00000060 732.15 183.30 355.19 519.67 815.64 383.51 986.66 383.38 897.84 493.17 839.44 585.43 966.45 586.78
00001029 00000061 730.73 183.24 355.46 518.59 814.23 382.63 985.56 382.19 897.18 492.24 839.19 583.89 966.24 584.92
00001030 00000062 730.72 183.07 354.81 516.26 813.56 383.82 984.99 382.29 896.93 490.59 840.84 582.03 969.13 581.98
00001031 00000063 731.16 183.14 353.95 516.18 814.10 384.75 985.08 382.09 898.36 489.71 842.04 580.73 971.70 579.61
00001032 00000064 730.90 183.46 353.66 515.22 813.79 383.99 984.99 380.74 899.89 489.26 842.83 580.46 972.00 578.88
00001033 00000065 730.35 183.45 354.51 515.06 813.77 383.54 984.72 380.86 899.96 489.90 841.92 579.65 970.87 578.54
00001034 00000066 728.60 183.79 355.86 517.81 812.36 383.85 983.82 381.45 898.71 490.18 839.51 581.63 968.74 580.84
00001035 00000067 727.53 183.73 355.75 519.92 811.39 383.86 983.20 381.60 898.12 492.26 839.26 584.26 967.84 583.51
00001036 00000068 726.57 182.70 356.68 522.14 811.46 384.68 983.11 382.74 897.88 493.73 839.03 585.60 967.43 585.05
00001037 00000069 725.94 182.64 356.97 522.18 811.52 384.66 983.89 382.47 898.64 493.92 839.96 587.06 968.16 586.23
00001038 00000070 726.01 182.00 356.70 523.80 811.17 385.32 985.04 382.79 898.48 495.33 839.07 589.50 968.63 588.23
00001039 00000071 726.83 182.59 354.75 524.75 813.64 391.93 983.69 388.32 901.07 499.11 846.28 596.63 965.68 594.66
00001040 00000072 726.82 187.05 355.56 516.19 817.95 398.30 984.23 393.72 905.13 501.53 849.40 594.51 968.02 592.23
00001041 00000073 727.64 188.21 354.72 513.60 818.60 398.28 984.75 390.75 907.72 502.01 854.63 596.32 971.41 591.85
00001042 00000074 729.03 187.44 352.56 513.53 818.51 395.54 985.57 387.91 909.91 502.27 857.23 597.70 973.95 592.76
00001043 00000075 728.45 189.88 352.00 512.62 817.66 394.55 984.24 385.55 910.52 502.75 858.49 598.66 974.56 592.46
00001044 00000076 726.11 188.90 354.25 515.67 816.89 392.40 983.22 384.61 908.63 501.06 858.26 599.27 971.55 593.62
00001045 00000077 727.39 186.40 354.93 519.23 814.66 390.93 984.65 383.08 906.20 499.07 849.22 592.06 975.36 586.40
00001046 00000078 726.61 186.29 356.46 519.08 812.67 389.17 984.85 381.92 903.53 497.31 844.58 588.83 974.80 583.62
00001047 00000079 725.80 186.08 356.27 519.15 811.91 389.03 984.67 382.40 902.38 496.79 842.09 589.29 973.55 584.60
00001048 00000080 723.43 186.45 357.07 519.92 811.35 388.00 984.06 382.30 901.92 498.34 844.46 593.43 969.45 589.54
00001049 00000081 720.40 186.88 359.55 520.97 810.44 389.14 982.67 383.82 901.46 499.99 846.03 597.27 966.43 593.66
00001050 00000082 719.76 187.82 360.97 522.10 810.61 391.02 983.00 385.20 902.18 501.33 846.22 599.89 966.42 595.96
00001051 00000083 718.42 188.85 362.65 524.21 810.29 392.42 983.48 386.12 903.35 501.91 848.07 602.10 967.93 597.77
00001052 00000084 719.33 188.09 363.04 529.16 810.05 392.48 983.69 385.20 903.74 501.48 847.24 602.61 969.97 597.64
00001053 00000085 720.99 188.78 362.08 530.22 812.09 392.92 984.41 385.23 905.76 503.40 850.82 604.00 971.59 598.83
00001054 00000086 722.41 191.76 359.61 526.83 815.05 396.54 984.25 388.27 909.49 509.51 857.00 607.54 972.26 601.82
00001055 00000087 724.60 196.18 357.36 518.30 816.12 398.78 985.50 391.07 910.50 511.81 857.59 606.39 972.96 601.08
00001056 00000088 725.93 195.48 357.17 519.45 815.64 396.93 985.95 390.85 908.10 508.97 853.18 603.69 972.23 599.91
00001057 00000089 727.18 192.27 356.38 519.93 815.44 392.00 985.83 387.22 905.54 504.42 850.28 600.89 969.58 598.23
00001058 00000090 726.95 185.94 357.13 522.74 813.78 388.85 984.76 385.48 901.65 498.72 845.59 595.45 968.06 593.87
00001059 00000091 728.45 184.05 356.42 522.05 811.90 386.39 982.78 382.13 898.42 491.10 842.46 589.55 967.48 587.29
00001060 00000092 730.46 180.90 355.06 521.64 813.81 390.41 982.21 384.07 898.48 485.28 842.70 583.70 971.38 579.85
00001061 00000093 729.75 182.42 356.84 519.94 816.31 392.70 980.86 384.51 901.97 480.29 845.33 580.17 973.69 575.16
00001062 DELETE   728.20 184.26 358.61 521.40 815.38 399.04 979.69 388.39 903.10 484.64 847.16 584.50 976.38 577.76
00001063 DELETE   726.32 191.10 360.19 517.16 815.46 407.85 979.90 398.25 902.48 494.76 847.64 590.50 976.25 584.18
00001064 00000096 724.39 195.33 360.77 517.48 812.60 413.97 977.55 402.67 901.07 502.51 847.01 594.71 977.77 586.94
00001065 DELETE   724.61 193.72 361.20 512.98 814.53 409.22 977.51 396.68 902.90 494.11 848.72 589.29 977.49 580.72
00001066 DELETE   724.64 183.92 363.00 518.43 814.26 398.70 975.48 382.84 902.36 476.98 848.50 576.26 981.31 564.65
00001067 DELETE   725.23 173.58 360.67 524.07 814.47 387.72 973.98 372.14 903.13 462.06 847.77 565.47 979.36 555.01
00001068 00000100 724.10 167.23 358.19 524.02 812.13 383.33 971.72 367.70 901.01 455.63 845.38 560.66 975.59 550.27
00001069 00000101 720.29 166.68 360.74 521.22 808.57 383.30 969.25 366.59 898.44 454.79 843.60 560.30 973.65 548.85
00001070 DELETE   717.71 166.82 361.91 518.65 806.95 378.49 968.15 361.21 897.76 450.70 843.49 558.66 970.67 546.75
00001071 DELETE   719.40 160.01 362.25 520.67 808.40 370.58 973.67 354.47 901.23 443.75 844.67 553.89 973.53 542.60
00001072 DELETE   724.32 154.52 364.55 515.31 812.60 360.62 981.17 344.93 902.97 432.79 844.98 543.76 974.09 533.20
00001073 00000105 718.96 139.92 365.15 516.11 809.82 353.52 982.73 345.87 896.58 422.22 837.76 529.67 972.00 525.38
00001074 DELETE   718.38 135.19 363.03 513.79 806.25 341.24 977.65 333.86 888.42 406.57 830.57 516.19 968.78 512.27
00001075 00000107 715.49 132.16 362.78 513.18 804.49 331.70 975.07 329.34 884.77 392.38 823.39 504.36 964.55 504.54
00001076 00000108 710.08 130.80 360.98 511.14 799.30 329.24 970.56 329.25 879.34 390.55 816.10 502.05 956.95 503.83
00001077 00000109 704.22 133.87 360.73 508.20 793.62 330.51 964.46 331.06 871.09 392.57 807.28 504.78 946.96 506.72
00001078 00000110 699.25 139.53 357.89 503.21 789.60 334.81 959.11 331.26 862.71 397.30 802.33 514.04 935.19 511.83
00001079 00000111 697.02 141.10 360.40 504.63 788.88 337.31 959.96 334.97 863.79 400.92 801.89 517.98 933.01 516.57
00001080 00000112 696.71 142.98 363.26 507.52 790.44 340.87 960.09 339.20 865.24 404.26 803.53 521.92 931.95 521.40
00001081 00000113 696.48 142.67 363.89 510.10 791.19 343.64 960.26 342.75 864.45 406.75 802.00 524.36 931.18 524.48
00001082 00000114 696.56 143.11 365.09 512.50 792.82 345.96 960.43 346.01 864.11 408.36 801.51 525.61 929.98 526.50
00001083 00000115 697.79 145.75 365.12 510.53 793.01 346.91 960.34 348.06 862.35 409.99 799.74 527.09 927.59 528.93
00001084 00000116 699.07 145.08 364.38 512.29 793.42 348.87 959.49 350.59 859.50 411.31 798.45 528.01 926.15 530.34
00001085 00000117 700.18 146.52 364.14 513.80 793.25 349.47 960.17 351.82 859.93 414.71 797.75 529.99 926.88 532.82
00001086 00000118 700.49 148.13 364.08 513.83 793.55 350.58 960.77 353.43 860.56 416.19 797.59 531.88 926.55 535.07
00001087 00000119 701.25 148.96 363.79 514.05 795.13 352.04 961.69 354.65 862.26 417.20 799.10 533.20 927.44 536.22
00001088 00000120 701.85 149.81 363.73 514.02 795.52 352.69 962.58 355.32 863.56 419.26 800.49 534.70 928.40 537.58
00001089 00000121 702.22 149.65 364.28 514.81 796.46 353.36 963.37 356.36 864.23 420.58 800.59 535.45 928.26 538.64
00001090 00000122 702.98 150.19 363.34 514.86 797.02 353.47 964.21 357.29 864.50 422.42 800.34 536.40 929.19 540.24
00001091 00000123 703.27 151.54 362.94 514.99 797.64 354.27 964.97 357.93 866.33 424.09 802.02 537.55 931.90 541.09
00001092 00000124 703.64 154.08 362.15 513.64 796.45 354.78 965.11 358.27 866.98 427.02 801.70 539.12 934.12 542.43
00001093 00000125 703.57 157.05 361.55 512.51 795.44 357.29 964.25 360.36 867.97 433.07 803.31 541.24 936.38 544.00
00001094 00000126 703.63 160.47 360.59 511.41 794.35 359.13 964.53 361.73 869.18 437.72 804.13 543.77 938.52 545.96
00001095 00000127 702.37 163.19 361.47 510.45 793.46 360.17 964.68 361.72 870.86 439.88 804.85 545.71 940.54 546.92
00001096 00000128 701.82 165.34 361.80 509.07 792.90 361.91 965.23 361.73 873.02 442.23 806.56 547.29 944.22 546.87
00001097 00000129 702.37 166.60 361.39 508.99 793.44 363.32 966.48 361.18 875.42 444.69 809.14 548.37 948.55 546.20
00001098 00000130 702.85 166.74 361.03 509.48 794.34 364.60 966.75 360.88 877.99 445.55 811.83 549.10 951.07 545.62
00001099 00000131 703.24 166.74 361.01 509.33 795.12 364.81 967.21 360.74 879.53 446.12 813.49 549.44 951.95 545.64
00001100 00000132 703.85 168.36 360.70 508.73 796.16 364.93 968.99 361.32 880.59 447.01 814.08 549.88 953.02 546.45
00001101 00000133 704.10 169.73 361.00 508.78 795.35 366.05 969.75 361.90 879.80 449.49 813.53 552.10 954.19 548.20
00001102 00000134 704.81 171.05 359.62 509.47 794.85 366.79 969.85 363.69 878.12 451.66 811.12 554.19 953.44 551.31
00001103 00000135 705.34 173.90 358.73 507.69 794.06 368.66 969.70 366.63 876.25 455.56 808.88 556.75 952.26 554.75
00001104 00000136 702.34 172.03 364.72 512.09 789.70 365.32 963.49 369.72 875.07 458.97 807.50 555.17 945.73 559.06
00001105 00000137 703.35 174.00 364.35 511.91 790.87 367.66 964.18 372.04 875.36 461.12 808.05 557.07 946.70 561.06
00001106 00000138 705.03 174.23 362.77 511.20 792.57 368.44 965.15 373.70 876.18 462.54 808.31 557.02 947.04 561.80
00001107 00000139 706.32 174.25 362.17 511.03 792.92 368.21 965.65 372.99 876.17 462.36 808.75 556.85 947.77 561.22
00001108 00000140 707.60 173.86 361.69 510.43 792.75 368.04 965.83 371.54 875.79 460.91 809.28 556.70 948.78 560.03
00001109 00000141 707.97 173.13 362.56 510.69 793.08 367.40 965.66 371.16 875.46 460.69 809.22 555.93 948.48 559.52
00001110 00000142 708.68 172.81 362.68 510.71 793.63 367.28 966.21 371.04 875.82 460.97 809.18 555.98 948.28 559.56
00001111 00000143 710.35 172.47 361.44 511.14 795.06 367.52 966.98 371.89 876.53 461.59 809.74 556.18 948.55 560.37
00001112 00000144 711.49 173.74 361.12 510.64 796.94 368.15 968.20 373.61 877.23 462.85 810.50 555.97 948.98 561.16
00001113 00000145 711.87 174.47 361.07 510.20 797.33 368.03 968.67 373.52 877.57 462.92 810.92 556.06 949.27 561.32
00001114 00000146 711.82 174.27 360.20 509.69 797.00 367.93 967.96 372.96 877.29 462.09 811.17 555.37 949.49 560.21
00001115 00000147 709.80 173.01 361.22 510.46 795.19 367.50 966.26 372.14 876.42 461.06 810.30 555.09 948.30 559.49
00001116 00000148 708.72 174.05 360.56 508.91 792.82 367.45 964.13 371.28 874.06 460.06 808.88 554.36 946.72 558.05
00001117 00000149 707.39 174.62 360.73 508.00 790.93 367.75 962.19 370.97 872.37 459.73 807.52 554.73 945.52 557.89
00001118 00000150 709.03 176.83 356.02 504.97 793.19 373.61 965.38 372.12 870.17 461.29 806.80 558.86 948.60 556.88
00001119 00000151 707.52 174.60 360.05 508.23 791.23 368.17 961.65 372.48 871.56 460.47 806.59 554.27 944.25 558.42
00001120 00000152 708.30 176.11 360.26 507.26 792.60 368.14 962.90 373.10 872.41 460.61 807.18 553.99 944.40 558.72
00001121 00000153 708.79 175.66 360.06 507.79 793.38 367.57 963.53 373.19 873.09 460.51 807.54 553.75 944.64 558.99
00001122 00000154 708.46 175.52 359.74 507.36 792.80 367.69 963.00 373.43 872.30 460.58 806.54 553.72 943.48 558.99
00001123 00000155 705.06 174.57 356.97 504.05 789.97 366.81 963.95 369.68 865.72 464.36 801.47 558.60 939.15 561.90
00001124 00000156 702.92 172.39 357.09 505.45 784.67 365.87 958.42 367.96 859.49 464.66 798.68 559.03 936.56 561.59
00001125 00000157 701.16 170.61 357.63 506.49 781.68 365.47 955.74 366.94 856.61 464.02 797.03 559.24 934.72 561.32
00001126 00000158 700.88 170.41 357.59 506.40 780.67 364.89 954.75 365.97 855.42 463.24 796.70 559.15 933.93 560.95
00001127 00000159 701.31 170.72 356.95 506.01 781.20 364.29 955.78 365.69 855.65 463.48 796.78 559.27 934.02 561.34
00001128 00000160 702.11 171.16 356.74 506.44 781.93 364.76 956.95 366.39 856.27 464.36 797.01 559.69 934.74 561.97
00001129 00000161 701.71 172.08 357.36 506.58 781.89 365.31 957.86 366.65 857.52 465.07 797.26 560.78 935.92 562.84
00001130 00000162 701.92 172.33 357.86 507.46 782.70 365.57 959.18 367.13 858.69 465.93 797.73 561.57 936.61 563.83
00001131 00000163 703.62 172.45 357.06 507.50 784.35 364.48 961.15 365.97 860.56 465.71 799.17 561.55 937.88 563.79
00001132 00000164 704.44 172.47 357.21 508.03 785.47 363.81 963.51 364.82 863.09 464.33 800.16 561.55 939.71 563.43
00001133 00000165 707.11 175.51 360.31 510.05 788.67 366.45 961.83 367.87 870.69 459.26 809.29 557.27 944.59 558.95
00001134 00000166 709.28 174.66 360.66 517.13 792.71 365.45 965.30 367.39 875.42 458.23 814.96 561.36 944.32 563.88
00001135 00000167 713.64 174.75 357.12 519.86 795.46 366.10 968.90 366.52 877.70 459.19 817.55 563.02 952.17 564.65
00001136 DELETE   718.59 176.43 351.97 515.96 797.14 373.80 969.25 368.46 877.93 457.15 821.20 563.24 960.18 560.58
00001137 DELETE   720.23 174.31 351.96 512.76 803.43 372.61 968.48 364.89 886.58 451.51 831.04 557.28 963.12 552.37
00001138 DELETE   719.99 171.15 351.77 504.26 799.90 373.87 974.79 356.81 888.37 447.26 830.75 555.77 969.50 541.03
