Video ID: 	W9I6M8huY6g
H: 	1080
W: 	1920
FPS: 	25.0

FRAME INDEX X0 Y0 W H [Landmarks (5 Points)]

00000361 00000000 706.77 134.89 341.89 519.30 787.21 382.32 945.57 367.54 873.36 480.20 825.90 563.28 947.95 552.24
00000362 00000001 703.27 136.22 346.25 516.34 782.12 379.07 947.09 369.48 866.77 489.23 825.71 564.84 944.47 556.31
00000363 00000002 700.12 135.54 345.76 515.01 781.65 377.35 946.44 369.29 866.98 488.05 822.86 561.77 942.65 554.65
00000364 00000003 702.74 135.49 340.65 513.82 784.86 374.42 947.75 368.34 870.85 484.57 822.35 557.38 941.69 552.01
00000365 00000004 702.56 131.95 338.47 517.75 786.51 371.63 946.89 367.75 871.68 478.47 816.69 549.07 940.46 546.20
00000366 00000005 696.37 127.88 341.14 516.90 783.10 366.73 944.94 365.43 868.01 473.30 809.74 542.54 937.40 541.67
00000367 00000006 692.51 127.37 334.93 511.32 776.94 363.71 938.88 363.08 861.89 472.06 803.34 538.63 931.13 538.20
00000368 00000007 684.56 128.10 332.20 506.86 770.41 358.52 930.91 361.08 854.97 468.45 796.34 535.00 919.95 537.79
00000369 DELETE   671.74 125.30 332.38 509.64 759.67 355.70 918.79 362.71 842.38 464.61 783.44 530.13 906.66 536.98
00000370 00000009 663.62 120.38 333.45 513.01 750.42 349.63 911.34 358.86 831.78 462.32 771.08 527.99 896.07 537.19
00000371 00000010 651.83 116.40 339.66 518.86 738.45 348.77 902.03 357.64 819.60 459.86 756.84 527.20 886.25 535.91
00000372 00000011 641.97 117.22 341.40 519.99 729.55 350.20 893.21 359.52 810.40 456.10 748.89 528.33 878.04 536.66
00000373 00000012 638.50 117.04 343.95 521.49 715.46 353.15 879.92 357.10 795.16 463.21 742.85 530.87 871.97 534.27
00000374 00000013 632.17 117.36 345.88 519.93 710.54 352.74 874.51 354.32 791.43 464.13 740.76 532.29 868.75 533.82
00000375 00000014 625.91 114.84 347.96 519.37 704.91 352.86 867.93 349.84 786.51 463.81 738.77 532.03 865.37 530.13
00000376 00000015 621.45 111.01 348.80 520.45 700.48 350.75 863.92 347.27 782.00 461.45 735.26 530.43 862.78 528.21
00000377 00000016 620.19 108.70 348.65 521.50 698.37 350.28 863.14 347.59 780.41 459.01 733.45 529.75 862.60 527.91
00000378 00000017 620.77 107.42 346.56 521.19 700.81 354.44 866.70 354.50 783.63 460.89 735.09 531.48 862.79 531.53
00000379 00000018 626.70 107.33 343.66 519.11 710.94 356.87 874.44 358.65 794.36 459.08 743.15 531.26 866.42 532.71
00000380 00000019 639.53 105.95 336.52 517.86 723.61 355.25 887.40 358.03 810.62 455.91 752.85 529.64 875.60 532.30
00000381 00000020 643.38 108.18 340.03 522.65 751.81 347.53 913.38 359.64 841.18 442.95 769.58 522.54 893.29 532.96
00000382 00000021 651.09 107.61 338.07 533.17 765.58 345.82 922.02 353.48 861.72 447.94 785.95 529.83 903.11 537.41
00000383 00000022 657.46 109.99 336.21 527.82 778.24 343.77 933.24 352.44 876.58 444.94 797.83 526.45 911.65 535.01
00000384 00000023 665.27 113.75 334.64 515.55 787.71 340.96 943.24 349.97 889.49 441.58 803.92 519.51 920.81 528.53
00000385 00000024 667.54 112.87 334.59 511.46 792.93 339.33 947.11 347.77 896.56 437.77 807.45 513.79 924.08 522.36
00000386 00000025 668.11 109.03 334.50 514.73 794.83 335.06 949.33 342.33 900.99 435.86 808.70 511.73 926.35 519.39
00000387 00000026 667.57 106.13 336.18 515.68 796.94 332.56 951.30 339.54 904.76 431.19 809.93 509.51 927.55 516.85
00000388 00000027 665.07 102.97 334.96 515.34 795.23 330.06 948.28 337.33 901.35 427.53 806.74 506.03 922.71 513.60
00000389 00000028 660.49 103.30 333.89 521.11 794.37 328.04 946.29 336.57 901.06 426.92 803.05 505.79 918.67 514.45
00000390 00000029 655.99 103.01 334.57 523.57 791.90 329.93 945.54 338.24 899.88 428.66 800.29 508.14 917.52 516.63
00000391 00000030 650.02 105.41 337.11 525.50 785.69 334.04 942.78 341.31 897.73 435.00 797.42 513.72 918.96 521.18
00000392 00000031 643.72 108.49 339.54 525.48 781.84 337.47 938.53 346.41 893.79 438.94 795.22 518.28 915.46 527.23
00000393 00000032 639.83 109.37 341.49 525.37 779.51 337.44 936.14 344.85 891.88 440.38 792.62 519.14 912.67 526.82
00000394 00000033 635.73 107.46 343.53 531.07 776.21 337.70 934.48 343.39 889.83 443.29 789.38 520.80 912.13 526.89
00000395 00000034 631.56 107.50 345.14 534.61 773.64 338.73 933.83 343.49 889.41 446.75 785.95 523.12 911.32 528.33
00000396 00000035 630.10 109.67 345.99 534.55 773.08 339.78 933.76 345.70 890.14 448.10 782.31 524.09 909.29 530.55
00000397 00000036 629.29 110.57 347.20 533.29 773.08 339.77 934.18 346.91 889.56 447.82 779.75 522.88 908.74 530.40
00000398 00000037 632.35 111.94 345.59 530.68 775.10 341.04 935.88 347.75 890.60 446.33 780.31 521.41 909.76 528.79
00000399 00000038 632.32 112.27 345.80 529.14 776.01 341.75 936.23 348.83 891.11 445.32 785.04 521.97 911.38 529.26
00000400 00000039 633.70 112.51 345.08 527.84 775.25 342.47 935.92 349.07 890.52 445.83 787.00 523.59 912.50 530.31
00000401 00000040 633.90 112.52 344.87 527.30 772.41 343.41 935.30 348.51 888.48 447.07 787.26 525.45 914.65 530.67
00000402 00000041 634.44 111.63 344.38 527.55 770.64 344.03 933.93 347.72 886.80 445.91 787.78 526.22 915.97 530.20
00000403 00000042 635.09 110.56 344.81 529.21 769.06 346.58 932.82 349.23 884.94 447.34 788.13 528.03 917.57 530.94
00000404 00000043 634.83 112.37 345.90 526.97 766.52 348.94 930.33 351.59 880.74 449.68 787.30 531.07 915.85 533.82
00000405 00000044 638.61 111.51 343.04 526.15 765.29 351.99 928.47 355.75 875.87 452.02 785.46 532.82 915.00 536.43
00000406 00000045 641.50 113.45 341.36 522.36 765.34 354.89 928.71 356.11 874.10 454.14 787.91 534.53 915.94 536.07
00000407 00000046 645.34 113.38 339.91 524.88 765.84 357.09 928.38 355.39 873.60 455.52 791.53 536.23 918.60 535.65
00000408 00000047 648.41 114.96 338.62 523.91 766.85 358.91 928.92 354.67 874.71 456.35 795.75 538.39 921.57 535.68
00000409 00000048 651.57 116.75 336.71 521.93 767.25 362.22 928.88 355.47 874.63 460.16 798.52 540.67 924.06 535.82
00000410 00000049 651.82 120.67 337.12 519.79 768.03 365.77 929.73 357.42 875.96 463.48 800.17 542.92 924.85 536.63
00000411 00000050 652.30 122.44 338.91 524.36 768.72 369.42 929.98 360.39 876.79 466.96 802.48 546.61 926.42 539.60
00000412 00000051 652.13 123.29 339.90 527.42 768.58 373.14 929.47 363.55 876.30 471.92 804.03 550.20 926.64 542.40
00000413 00000052 653.33 128.49 338.84 526.67 769.39 375.72 929.57 368.00 875.87 475.90 802.63 550.98 924.91 544.71
00000414 00000053 653.28 129.92 338.61 526.59 769.56 376.43 929.77 371.01 875.09 476.99 801.12 551.17 922.80 546.85
00000415 00000054 653.11 130.50 338.98 527.13 769.98 375.62 930.14 371.92 874.98 477.34 799.82 551.13 921.17 548.33
00000416 00000055 652.65 130.58 338.33 526.59 771.49 374.72 930.44 371.64 876.87 475.95 799.47 549.90 920.57 547.67
00000417 00000056 652.11 129.52 339.52 525.94 771.94 372.02 932.32 369.70 877.38 474.67 798.71 548.33 920.36 546.89
00000418 00000057 650.30 125.51 341.19 525.32 770.58 367.78 933.67 364.53 878.15 467.98 799.36 545.86 923.60 543.58
00000419 00000058 651.35 120.00 337.85 525.97 769.25 361.59 931.82 360.97 875.45 459.30 796.66 540.24 922.19 540.41
00000420 00000059 650.15 115.09 339.06 532.21 766.46 358.05 929.62 358.20 872.40 455.10 794.46 538.12 921.31 538.93
00000421 00000060 647.58 114.31 340.36 533.16 763.19 355.08 927.02 354.07 870.20 452.64 792.55 537.88 919.92 537.59
00000422 00000061 645.68 112.99 341.58 531.80 759.95 353.60 924.73 352.46 866.91 448.42 791.02 537.79 918.66 537.12
00000423 00000062 643.80 110.99 343.22 535.26 757.75 351.49 923.32 350.76 864.67 445.61 788.49 536.67 917.31 536.35
00000424 00000063 640.92 108.56 345.83 542.51 754.14 349.40 919.69 348.45 860.17 445.74 784.95 537.42 913.66 537.08
00000425 00000064 639.07 105.63 349.03 549.94 752.04 348.35 918.67 348.62 857.01 447.04 782.03 539.50 909.20 540.21
00000426 00000065 637.05 105.86 351.33 549.31 749.90 350.50 916.54 350.14 854.38 452.54 780.42 539.57 909.14 539.44
00000427 00000066 634.18 105.85 352.59 550.97 744.45 351.39 913.60 353.56 846.86 456.86 773.85 540.62 905.62 542.46
00000428 00000067 634.09 107.92 353.52 555.70 732.13 360.91 905.20 359.76 831.38 467.52 758.97 551.43 894.78 550.12
00000429 00000068 630.63 119.41 351.90 548.52 727.96 365.38 899.14 364.79 824.22 470.79 750.43 551.08 888.80 550.51
00000430 00000069 626.61 122.80 351.51 542.63 721.49 370.07 892.84 368.35 814.92 475.52 746.40 554.62 883.81 553.06
00000431 00000070 624.19 126.37 349.50 537.99 717.78 374.23 885.69 370.75 808.63 480.06 745.42 558.78 876.86 555.81
00000432 00000071 622.35 130.54 347.49 534.09 713.25 375.89 880.78 369.97 804.20 481.10 745.30 561.22 875.11 556.39
00000433 00000072 620.60 133.07 346.30 531.34 708.85 378.28 878.32 369.70 800.62 480.96 745.28 564.18 876.14 557.00
00000434 00000073 618.47 132.88 347.60 531.53 706.74 378.66 876.69 369.62 798.83 480.54 744.65 564.66 875.45 557.07
00000435 00000074 616.87 133.97 347.91 530.55 705.79 379.79 874.93 370.43 798.09 482.06 745.64 565.94 874.66 558.01
00000436 00000075 616.23 134.73 346.92 531.94 705.50 380.84 873.87 371.68 798.23 482.64 745.47 568.05 872.84 560.33
00000437 00000076 616.04 136.01 346.87 529.63 705.88 381.34 874.68 372.87 799.44 484.01 745.14 567.89 872.81 560.75
00000438 00000077 616.62 137.71 347.17 526.43 708.06 382.29 876.94 374.61 801.76 484.44 746.39 566.96 874.30 560.37
00000439 00000078 617.62 136.90 346.84 524.56 709.59 384.17 878.51 375.34 804.94 485.88 748.71 568.50 875.76 560.90
00000440 00000079 621.62 145.83 339.88 515.30 715.27 395.06 878.68 385.77 808.25 489.40 750.92 570.61 873.08 562.76
00000441 00000080 625.96 147.92 336.94 511.73 721.02 397.72 882.89 388.73 814.92 491.48 754.75 571.33 874.95 563.82
00000442 00000081 628.54 140.31 341.19 520.92 728.22 392.71 895.21 385.41 826.34 494.90 760.11 572.61 883.59 566.33
00000443 00000082 631.26 131.54 346.89 529.95 739.34 387.99 907.01 383.67 842.18 489.84 770.02 569.68 894.91 565.41
00000444 00000083 630.12 129.14 342.94 532.82 765.57 377.45 920.61 381.22 870.75 477.60 785.65 553.82 911.25 557.34
00000445 00000084 635.35 137.73 344.87 520.19 773.90 377.06 933.88 379.94 885.59 478.79 798.40 558.58 912.34 561.24
00000446 00000085 639.62 140.83 341.27 524.80 792.42 378.22 938.78 387.44 899.72 483.75 803.45 553.88 917.39 562.75
00000447 00000086 642.12 147.68 338.11 517.98 795.67 380.36 940.47 388.79 903.50 484.87 807.07 556.12 919.56 564.37
00000448 00000087 640.67 146.33 338.48 520.33 798.68 379.63 941.93 388.75 906.27 485.36 808.58 555.40 919.59 564.43
00000449 00000088 639.16 144.57 339.22 523.39 798.63 379.46 940.93 388.48 906.56 485.57 808.85 555.05 919.67 564.06
00000450 00000089 636.68 142.30 339.92 524.94 797.61 378.92 939.49 387.63 906.41 485.71 807.89 554.90 920.29 563.57
00000451 00000090 634.77 141.14 340.51 526.64 795.73 377.41 941.27 385.24 906.68 485.24 803.78 553.27 923.00 561.26
00000452 00000091 634.33 138.19 340.59 531.57 794.15 377.54 941.36 383.68 907.25 484.90 803.23 553.60 925.29 560.32
00000453 00000092 631.82 143.47 339.19 519.27 789.19 382.61 938.11 374.19 904.96 483.85 806.69 564.38 917.36 561.31
00000454 00000093 632.97 140.04 346.55 531.28 784.34 379.67 941.01 381.38 900.79 479.92 801.68 556.28 918.28 558.18
00000455 00000094 631.46 140.43 347.60 531.92 781.65 379.19 939.73 380.15 899.22 479.48 798.66 554.69 919.27 555.96
00000456 00000095 628.81 139.70 348.72 533.32 778.95 379.31 936.82 379.67 895.89 480.96 795.18 554.11 916.85 555.05
00000457 00000096 628.34 142.40 340.28 525.20 779.44 378.67 935.43 370.99 897.79 484.11 789.76 561.24 916.42 558.70
00000458 00000097 627.33 141.91 339.96 532.17 777.78 378.60 934.71 370.63 896.95 483.19 785.52 561.48 916.75 558.77
00000459 00000098 627.33 143.06 339.81 528.67 775.85 379.24 933.17 369.88 895.30 483.33 784.84 560.64 916.30 556.73
00000460 00000099 626.58 143.80 339.34 526.07 774.69 379.95 932.56 370.63 892.87 483.52 784.38 560.81 913.53 556.99
00000461 00000100 626.00 142.56 338.32 530.61 772.73 380.99 931.10 371.43 889.74 482.89 782.35 561.06 913.08 556.90
00000462 00000101 625.74 143.77 338.16 528.91 771.91 380.61 930.99 370.99 888.89 482.90 781.61 560.91 913.18 556.59
00000463 00000102 625.79 144.23 338.06 526.99 772.45 379.54 929.99 370.80 888.66 482.50 782.04 558.63 913.08 554.94
00000464 00000103 624.85 143.51 338.95 525.53 772.54 377.98 929.20 369.15 888.84 481.52 782.60 556.45 912.76 552.61
00000465 00000104 624.01 142.25 340.11 525.42 772.74 376.94 928.37 369.02 888.86 478.76 783.85 555.00 910.87 552.03
00000466 00000105 623.41 141.46 340.45 525.18 773.30 374.50 927.19 367.35 888.70 475.15 783.20 553.15 908.75 550.72
00000467 00000106 622.68 140.87 340.46 523.90 772.24 374.19 926.23 367.69 886.62 474.56 781.32 551.66 907.14 549.74
00000468 00000107 622.92 140.70 340.32 523.05 772.65 373.57 926.35 367.81 886.15 474.48 780.38 550.55 906.05 549.18
00000469 00000108 622.11 139.60 340.74 521.59 772.44 372.87 925.44 366.83 885.77 473.26 781.33 549.83 904.64 548.16
00000470 00000109 624.20 131.15 349.25 528.96 763.92 375.02 927.15 371.42 882.92 476.83 780.91 554.95 912.07 552.10
00000471 00000110 624.34 130.95 350.07 528.26 764.05 373.54 927.89 370.55 883.25 475.85 782.03 555.10 912.02 552.51
00000472 00000111 624.37 129.64 349.75 527.56 763.92 372.51 927.95 369.60 883.75 475.25 783.90 555.67 912.35 553.03
00000473 00000112 624.50 128.47 348.87 528.36 762.93 373.37 926.49 369.95 882.09 475.38 784.87 557.27 912.02 554.09
00000474 00000113 624.25 127.76 348.25 530.55 762.88 373.38 925.60 370.08 881.49 475.25 784.30 557.42 910.90 554.32
00000475 00000114 622.93 126.91 348.54 530.18 761.31 373.23 924.46 368.47 880.45 474.46 782.86 557.34 909.82 553.15
00000476 00000115 621.86 127.56 348.58 529.07 760.48 371.73 923.44 367.03 879.21 473.72 780.45 555.49 907.97 551.54
00000477 00000116 618.96 127.02 348.16 527.99 755.03 372.04 917.58 367.25 873.07 472.85 776.67 554.55 903.38 550.54
CROP_BBOX: 437 0 1245 791
