Video ID: 	y8myrX_hu8Y
H: 	1080
W: 	1920
FPS: 	25.0

FRAME INDEX X0 Y0 W H [Landmarks (5 Points)]

00002221 00000000 963.59 103.87 467.29 644.50 1084.26 320.24 1302.70 390.01 1144.09 460.04 1038.20 545.33 1223.69 603.00
00002222 00000001 967.94 108.62 463.41 637.65 1087.89 322.00 1308.34 393.59 1149.59 460.26 1041.46 544.49 1231.69 603.59
00002223 00000002 967.45 107.01 467.18 641.19 1088.61 321.85 1310.41 394.48 1151.14 460.53 1041.20 544.31 1234.44 604.24
00002224 00000003 966.12 108.92 464.58 642.96 1087.16 323.99 1308.46 393.45 1149.47 459.22 1040.61 549.03 1232.53 606.42
00002225 00000004 964.53 104.72 467.94 651.59 1085.82 324.36 1305.84 392.19 1147.14 460.14 1039.86 551.51 1229.32 607.51
00002226 00000005 963.85 102.56 468.63 654.41 1084.49 324.05 1302.80 392.38 1144.51 462.82 1039.20 551.38 1226.10 607.85
00002227 00000006 957.99 91.24 466.51 662.53 1088.15 334.18 1296.93 401.86 1146.94 464.62 1039.63 554.35 1222.51 609.88
00002228 00000007 956.52 92.42 466.12 659.03 1085.55 338.05 1293.05 399.98 1144.78 465.52 1039.68 554.99 1222.02 605.91
00002229 00000008 956.28 91.27 464.14 656.61 1084.36 336.80 1293.88 399.69 1144.31 465.51 1038.54 553.88 1221.94 605.62
00002230 00000009 955.85 94.09 464.38 651.36 1082.31 338.72 1291.18 399.20 1141.83 464.18 1037.32 554.02 1220.10 603.73
00002231 00000010 952.24 93.64 464.55 648.71 1081.32 337.61 1292.32 398.93 1142.98 464.08 1036.51 551.70 1221.04 601.99
00002232 00000011 952.69 93.75 464.28 647.31 1081.23 338.85 1293.09 400.18 1143.24 463.01 1036.80 552.14 1220.63 602.37
00002233 00000012 954.82 94.38 461.38 644.99 1083.60 336.25 1295.24 399.15 1145.22 463.83 1037.68 550.64 1222.45 602.27
00002234 00000013 955.19 96.38 465.98 644.68 1085.00 334.85 1297.14 399.85 1146.49 463.10 1038.29 549.75 1223.55 602.97
00002235 00000014 953.50 96.23 469.92 648.29 1086.84 331.19 1296.91 399.73 1145.67 466.09 1038.24 549.49 1221.57 605.77
00002236 00000015 952.98 96.77 470.88 650.87 1085.75 329.22 1295.55 396.85 1143.35 467.18 1037.91 550.51 1222.31 606.08
00002237 00000016 952.09 95.10 469.41 656.77 1084.09 328.30 1294.20 395.46 1143.06 468.27 1035.97 550.98 1223.69 606.23
00002238 00000017 951.00 96.20 467.35 655.36 1082.60 328.42 1293.15 393.92 1142.25 468.09 1034.33 550.66 1223.02 604.63
00002239 00000018 950.39 97.56 468.44 653.76 1081.09 328.71 1292.44 392.41 1140.75 466.65 1033.72 551.04 1223.23 603.54
00002240 00000019 948.37 97.44 467.75 652.71 1080.33 328.55 1290.99 393.29 1139.44 468.61 1033.12 550.32 1221.44 603.84
00002241 00000020 946.15 94.48 469.91 653.69 1077.60 337.77 1285.68 398.86 1137.15 466.00 1031.93 550.81 1218.20 600.84
00002242 00000021 938.84 94.47 463.50 650.32 1067.66 342.74 1270.84 400.35 1121.35 467.53 1022.31 548.58 1202.42 595.88
00002243 DELETE   927.92 86.85 474.59 656.16 1047.99 326.61 1255.38 388.70 1098.94 457.31 1000.88 543.54 1183.79 596.45
00002244 00000023 918.07 89.08 476.21 648.74 1034.16 320.24 1240.15 384.66 1080.30 453.64 991.10 536.73 1168.31 590.96
00002245 00000024 918.49 85.89 466.99 643.04 1029.48 321.06 1229.34 388.36 1063.96 456.81 981.24 539.78 1148.08 593.95
00002246 00000025 912.88 87.53 459.31 641.39 1022.59 318.26 1219.92 384.67 1054.09 455.94 974.27 539.14 1139.18 592.84
00002247 00000026 909.04 84.70 458.10 645.09 1015.80 316.52 1207.55 383.71 1040.49 455.50 966.88 536.12 1126.77 590.31
00002248 00000027 905.62 83.08 455.77 647.73 1013.98 314.65 1202.20 383.22 1035.46 454.69 963.69 536.73 1114.94 592.52
00002249 00000028 905.89 83.92 452.17 646.02 1011.33 315.10 1198.37 381.67 1031.95 454.18 962.93 536.88 1113.08 591.03
00002250 00000029 905.74 86.22 455.07 644.39 1011.16 316.04 1198.59 381.10 1032.04 453.22 964.65 539.25 1114.13 592.11
00002251 00000030 906.45 85.59 457.17 649.37 1011.11 322.97 1198.00 385.34 1032.99 454.67 968.16 539.83 1124.30 589.88
00002252 00000031 905.63 88.12 460.63 653.69 1010.07 332.45 1202.81 390.60 1037.93 455.86 970.53 544.83 1136.44 591.01
00002253 00000032 906.71 92.68 461.86 648.15 1010.40 333.29 1203.84 390.17 1041.20 457.45 972.79 544.84 1142.04 589.68
00002254 00000033 909.24 92.36 459.90 641.73 1013.85 326.55 1204.81 388.54 1042.11 459.40 972.66 539.69 1138.43 588.94
00002255 00000034 909.97 91.93 456.85 637.63 1015.39 325.61 1204.91 389.75 1043.06 460.66 973.78 536.70 1138.03 587.71
00002256 00000035 908.68 89.43 461.40 637.59 1016.85 322.10 1210.19 388.94 1045.38 459.97 973.43 535.06 1138.80 588.28
00002257 00000036 908.79 89.19 460.77 638.56 1018.63 320.47 1215.93 387.35 1051.52 460.29 974.25 535.27 1145.29 588.58
00002258 00000037 910.83 89.61 463.32 640.22 1021.35 319.50 1223.71 387.85 1057.38 465.13 976.99 536.35 1153.56 590.83
00002259 00000038 914.03 89.64 472.81 645.01 1023.77 321.29 1234.09 387.48 1064.39 465.28 979.09 539.15 1165.71 591.97
00002260 00000039 916.54 90.71 472.76 646.24 1026.53 321.92 1239.22 387.11 1071.38 466.22 981.75 540.51 1172.39 592.77
00002261 00000040 916.66 91.34 473.97 647.49 1027.30 322.22 1241.12 386.51 1074.10 465.97 983.78 540.90 1177.85 592.33
00002262 00000041 916.80 90.08 474.03 649.33 1028.37 322.00 1242.68 386.93 1076.80 467.52 984.51 541.04 1180.12 593.02
00002263 00000042 914.85 93.37 478.45 648.94 1027.49 320.32 1236.02 386.07 1073.92 462.60 986.85 534.64 1175.52 589.72
00002264 00000043 912.47 93.31 479.68 650.98 1023.55 321.97 1231.84 386.87 1067.93 460.03 983.99 535.19 1171.49 589.49
00002265 00000044 910.51 91.61 468.00 652.81 1020.57 332.07 1226.98 390.16 1068.06 464.31 982.58 544.78 1173.61 590.48
00002266 00000045 910.76 90.85 464.42 656.29 1019.45 331.65 1224.02 388.75 1067.05 463.54 982.98 546.11 1172.29 591.02
00002267 00000046 908.86 94.17 479.10 660.71 1018.78 327.95 1225.75 387.28 1061.90 457.27 982.18 541.79 1170.62 591.32
00002268 00000047 912.57 93.10 476.06 663.51 1020.37 326.56 1226.76 383.88 1063.08 455.87 984.29 543.59 1170.00 591.71
00002269 00000048 913.60 93.03 475.08 655.04 1020.48 325.34 1226.42 381.24 1064.97 454.77 986.37 546.26 1160.37 593.39
00002270 00000049 916.61 88.93 465.87 647.93 1024.22 324.22 1229.64 381.99 1065.72 457.86 984.88 552.15 1151.58 599.31
00002271 00000050 918.04 81.38 463.50 655.57 1026.70 317.84 1232.19 375.54 1070.91 455.06 987.50 548.56 1154.92 595.80
00002272 00000051 920.12 72.36 466.81 662.19 1031.15 312.91 1237.14 369.46 1076.02 449.40 991.80 545.20 1158.52 591.87
00002273 00000052 920.75 73.38 465.80 658.90 1035.28 307.93 1242.07 362.20 1081.89 436.41 994.79 541.79 1158.45 586.98
00002274 00000053 922.59 72.06 467.23 659.77 1036.17 304.71 1245.13 357.89 1082.82 433.01 997.13 541.08 1162.36 585.45
00002275 00000054 920.64 72.03 463.22 651.75 1032.86 307.74 1247.22 359.25 1085.67 435.17 995.12 541.01 1168.02 583.90
00002276 00000055 921.68 71.10 462.32 656.48 1033.47 309.83 1247.86 362.47 1087.14 439.71 995.18 544.74 1169.18 588.35
00002277 00000056 922.93 71.79 464.48 664.37 1034.46 312.35 1249.44 366.39 1086.84 446.85 993.49 550.61 1168.67 595.30
00002278 00000057 919.67 74.63 470.24 669.24 1034.47 315.73 1250.09 372.64 1086.61 454.20 991.96 553.07 1171.08 599.74
00002279 00000058 921.25 87.35 470.19 684.10 1033.41 324.10 1247.85 374.67 1086.75 456.82 997.71 562.72 1173.11 606.80
00002280 00000059 920.63 94.42 473.07 679.98 1027.65 331.97 1244.91 382.17 1083.78 463.56 996.06 568.21 1180.72 611.23
00002281 00000060 923.85 103.98 469.99 664.73 1030.94 335.56 1252.79 388.22 1087.17 473.00 995.78 573.21 1183.46 615.48
00002282 00000061 923.98 103.97 469.89 661.71 1030.29 335.39 1251.54 388.24 1086.53 472.81 996.31 572.85 1182.02 615.22
00002283 00000062 924.03 103.87 470.05 655.64 1029.57 333.92 1249.77 388.71 1084.41 466.58 996.70 568.50 1178.85 612.52
00002284 00000063 924.63 103.94 467.23 651.93 1029.37 332.84 1248.42 387.70 1084.89 467.09 996.66 567.45 1173.26 611.88
00002285 00000064 923.89 103.76 467.82 649.27 1029.16 332.31 1247.33 387.75 1084.19 466.02 997.36 569.44 1167.54 614.53
00002286 00000065 923.10 103.52 468.04 649.46 1027.12 332.82 1245.97 386.99 1083.10 466.70 996.69 574.40 1161.63 618.80
00002287 00000066 920.06 96.65 472.02 656.39 1025.44 337.09 1238.09 383.77 1083.51 469.55 999.12 571.38 1161.53 611.76
00002288 00000067 919.70 96.02 473.20 659.15 1024.64 337.20 1238.80 383.20 1083.25 469.76 998.19 572.66 1162.31 612.51
00002289 00000068 918.51 95.30 474.18 664.27 1024.79 338.17 1238.79 383.27 1082.24 470.33 997.93 574.69 1161.80 613.90
00002290 00000069 919.42 98.31 473.69 669.58 1027.55 339.84 1237.77 383.58 1081.61 468.99 1001.24 579.56 1154.40 618.02
00002291 00000070 920.68 97.47 472.37 668.63 1027.51 338.77 1238.12 383.98 1081.16 469.49 999.86 576.64 1156.03 616.26
00002292 00000071 921.19 93.90 473.73 667.67 1027.85 337.34 1237.50 383.10 1080.45 468.00 1000.86 573.39 1158.80 613.36
00002293 00000072 921.25 94.36 472.93 662.62 1030.33 336.01 1238.94 383.96 1083.90 468.19 1002.31 569.16 1161.57 610.72
00002294 00000073 922.16 89.24 473.54 667.10 1032.72 333.73 1241.28 382.54 1083.18 464.69 1001.40 567.18 1163.03 609.44
00002295 00000074 924.00 85.93 473.49 671.00 1033.28 334.52 1242.05 381.61 1081.64 461.25 1001.99 567.83 1164.99 608.69
00002296 00000075 925.36 84.82 471.47 675.50 1032.68 333.48 1241.96 378.78 1079.88 458.27 1001.79 569.77 1165.85 609.35
00002297 00000076 926.86 83.00 468.77 677.67 1034.75 329.49 1243.65 375.24 1080.55 454.58 1003.62 566.04 1167.64 605.88
00002298 00000077 930.21 76.41 467.12 676.17 1033.43 325.23 1242.69 366.45 1080.73 450.10 1006.15 563.55 1169.07 599.71
00002299 00000078 927.76 69.49 467.73 679.86 1033.78 318.46 1242.50 359.57 1081.48 443.54 1007.32 556.77 1171.07 592.52
00002300 00000079 928.08 67.74 471.08 675.81 1029.63 314.99 1241.83 358.11 1077.02 433.87 1004.80 553.76 1173.69 591.02
00002301 00000080 922.91 65.04 473.23 678.43 1025.29 315.80 1238.32 358.05 1075.61 435.62 1001.52 552.97 1171.55 589.69
00002302 00000081 919.05 67.87 468.72 676.44 1023.11 320.65 1233.92 365.09 1076.21 452.43 998.81 559.81 1170.44 595.73
00002303 00000082 914.77 73.47 466.36 674.63 1015.81 331.13 1227.00 371.98 1071.19 459.05 994.64 565.72 1169.14 598.15
00002304 00000083 910.46 79.97 471.41 677.92 1012.21 339.30 1225.05 379.99 1068.50 470.44 991.98 575.85 1166.55 608.45
00002305 00000084 911.42 91.73 470.75 679.81 1009.70 349.84 1222.02 389.20 1067.07 482.13 990.93 585.59 1164.29 616.87
00002306 00000085 908.10 95.81 471.09 696.26 1007.08 358.78 1214.64 398.14 1061.59 494.70 986.96 599.18 1162.55 630.12
00002307 00000086 906.37 109.02 467.40 683.04 1001.80 370.01 1206.19 406.18 1053.33 503.71 987.16 606.36 1159.09 634.48
00002308 00000087 904.34 112.66 467.30 676.92 1001.75 371.94 1207.07 409.71 1053.71 506.78 986.06 605.44 1155.86 635.08
00002309 00000088 904.64 109.52 466.58 675.71 1001.45 367.68 1205.92 406.42 1052.19 503.59 984.79 600.67 1156.24 630.94
00002310 00000089 907.24 103.38 468.62 675.85 1003.66 362.06 1209.71 401.85 1055.71 497.53 984.68 593.00 1160.75 623.81
00002311 00000090 906.71 100.73 472.81 669.99 1005.35 355.23 1214.44 399.32 1058.19 492.89 983.99 581.54 1167.53 615.59
00002312 00000091 905.25 91.55 474.99 681.26 1004.64 355.13 1216.88 398.65 1054.20 493.85 981.86 580.69 1171.71 614.92
00002313 00000092 905.83 91.31 474.98 681.82 1005.36 351.28 1219.76 394.61 1056.96 491.27 983.63 577.55 1178.50 611.61
00002314 00000093 906.06 90.92 475.83 682.51 1006.54 350.48 1222.44 393.44 1059.57 489.36 984.18 576.33 1182.12 610.01
00002315 00000094 906.45 88.96 477.87 683.09 1007.37 350.49 1224.10 393.72 1061.09 489.94 985.49 576.08 1184.18 609.81
00002316 00000095 907.84 89.54 478.04 681.72 1007.57 349.80 1225.11 392.38 1061.10 488.91 986.30 575.70 1185.49 608.84
00002317 00000096 909.29 89.94 476.95 679.93 1008.59 349.33 1226.60 392.17 1062.53 488.62 987.58 575.57 1186.45 609.02
00002318 00000097 909.03 89.10 479.04 676.46 1008.36 347.90 1226.78 390.07 1063.29 485.95 988.53 573.56 1186.40 606.35
00002319 00000098 913.10 86.28 471.58 670.97 1011.04 348.88 1228.87 390.28 1067.10 478.15 989.93 567.28 1189.40 599.27
00002320 00000099 916.72 81.14 464.45 670.01 1015.35 348.07 1227.22 388.55 1071.40 469.94 995.73 562.00 1190.78 592.93
00002321 00000100 917.57 78.45 469.22 665.25 1017.00 342.07 1231.70 380.92 1074.54 461.05 997.94 556.40 1196.16 586.07
00002322 00000101 919.15 76.39 472.52 663.88 1019.29 335.97 1235.71 375.58 1077.68 457.85 999.15 551.82 1198.97 582.22
00002323 00000102 919.67 75.22 469.00 666.37 1019.66 334.17 1234.63 373.61 1079.19 458.00 999.66 550.96 1199.42 581.28
00002324 00000103 916.17 75.18 473.14 670.54 1018.35 334.45 1236.21 375.15 1079.59 462.06 999.11 554.49 1199.37 585.75
00002325 00000104 914.46 76.41 471.66 679.88 1013.56 341.32 1233.89 379.81 1076.88 472.43 996.21 566.31 1197.81 595.81
00002326 00000105 910.71 88.22 474.52 686.51 1009.70 353.11 1229.63 393.54 1072.70 492.50 990.04 581.81 1191.48 613.10
00002327 00000106 910.87 106.06 471.01 685.25 1012.81 368.34 1222.44 408.21 1073.30 508.51 994.87 595.29 1191.69 626.08
00002328 00000107 909.52 124.93 472.10 685.63 1008.42 378.99 1218.82 419.16 1067.58 527.23 994.09 613.61 1186.78 645.18
00002329 00000108 909.23 126.13 469.30 676.93 1008.10 378.72 1217.47 419.62 1066.45 526.11 992.10 612.12 1179.86 644.22
00002330 00000109 911.47 113.00 467.36 675.54 1009.79 367.81 1214.36 410.22 1063.72 512.23 992.83 598.70 1175.44 631.48
00002331 00000110 913.10 105.23 470.32 661.39 1009.88 356.49 1218.59 399.46 1065.93 497.77 993.66 585.91 1169.38 619.67
00002332 00000111 921.24 89.59 464.33 674.45 1015.35 346.36 1223.13 381.40 1074.54 480.77 1003.24 582.21 1167.95 612.83
00002333 00000112 921.58 78.38 462.50 671.37 1018.55 336.47 1230.82 378.26 1073.51 471.89 1002.39 576.98 1172.82 610.73
00002334 00000113 924.75 77.60 464.29 665.14 1022.31 333.68 1233.77 375.23 1076.29 467.68 1003.91 569.93 1173.53 603.33
00002335 00000114 925.64 79.71 467.60 669.76 1024.48 336.50 1231.04 369.92 1079.09 464.80 1008.69 569.92 1169.73 599.36
00002336 00000115 931.71 82.30 457.61 672.97 1028.96 338.31 1230.61 373.10 1083.97 470.61 1016.78 574.72 1171.71 604.66
00002337 00000116 931.74 83.82 460.22 671.32 1025.40 340.64 1230.68 377.71 1081.20 477.99 1013.19 576.18 1173.55 607.90
00002338 00000117 928.87 84.75 462.53 665.23 1027.69 339.47 1231.97 375.47 1083.14 471.69 1015.19 571.21 1175.53 601.75
00002339 00000118 925.69 82.61 466.65 669.89 1025.71 336.59 1234.53 371.98 1081.82 462.33 1007.78 567.58 1173.50 598.61
00002340 00000119 926.97 79.59 470.23 675.07 1028.52 331.02 1237.63 367.33 1083.05 459.18 1009.07 560.18 1185.80 591.85
00002341 00000120 928.93 73.04 470.90 679.76 1030.92 322.97 1240.98 363.02 1084.50 454.60 1008.03 551.94 1192.96 586.44
00002342 00000121 928.29 74.48 472.79 676.95 1032.96 318.52 1243.25 361.12 1087.01 452.41 1007.33 546.25 1194.21 582.84
00002343 00000122 928.74 72.24 471.17 678.78 1033.37 318.19 1243.23 361.91 1086.47 451.69 1006.00 545.25 1194.03 582.81
00002344 00000123 930.40 72.28 458.01 676.27 1032.54 330.96 1242.54 373.29 1090.69 456.07 1008.03 550.12 1203.52 583.66
00002345 00000124 925.84 75.74 469.29 674.75 1029.63 330.84 1238.36 372.32 1082.03 453.91 1002.79 549.60 1193.12 585.08
00002346 00000125 922.37 76.45 475.63 672.13 1026.87 328.93 1236.75 370.54 1083.44 454.34 1000.95 546.93 1195.07 582.44
00002347 00000126 919.66 77.97 477.99 668.00 1026.63 326.06 1236.55 370.53 1084.58 455.39 1000.45 542.68 1195.99 580.27
00002348 00000127 918.93 80.36 477.75 663.34 1026.50 326.39 1236.32 371.23 1084.90 458.70 1001.12 543.20 1194.84 580.98
00002349 00000128 921.12 79.04 474.31 662.96 1027.51 325.48 1237.12 370.66 1085.30 458.56 1001.43 542.08 1196.80 580.07
00002350 00000129 921.15 79.97 466.52 660.33 1026.12 326.00 1242.07 369.24 1089.32 461.67 1001.33 543.73 1205.78 577.94
00002351 00000130 922.86 80.82 473.80 665.42 1027.15 325.72 1239.40 368.40 1087.10 456.24 1002.80 543.88 1203.87 579.76
00002352 00000131 922.18 82.82 473.81 667.98 1028.98 326.44 1241.43 369.05 1090.23 456.31 1002.66 545.03 1207.37 580.85
00002353 00000132 921.75 83.20 475.96 669.28 1030.28 326.44 1243.50 369.01 1093.39 457.44 1004.02 546.66 1208.65 582.44
00002354 00000133 921.73 85.08 475.94 666.95 1032.18 326.04 1244.98 369.11 1096.73 458.23 1004.78 546.97 1206.44 583.33
00002355 00000134 922.88 83.11 475.47 665.39 1035.84 325.00 1248.53 372.49 1099.04 458.62 1005.13 545.37 1203.51 585.27
00002356 00000135 928.79 82.20 462.77 660.63 1039.88 342.03 1256.81 383.39 1105.93 463.55 1014.39 557.19 1210.21 590.40
00002357 00000136 931.10 83.40 470.29 656.33 1046.14 340.83 1254.84 382.84 1112.91 461.90 1018.10 552.75 1199.85 588.63
00002358 00000137 931.75 84.81 475.98 653.28 1052.14 335.67 1259.47 380.69 1118.31 465.60 1022.82 550.69 1203.46 589.17
00002359 00000138 939.14 91.90 468.31 643.88 1060.80 335.85 1271.69 386.26 1125.91 470.37 1030.42 549.76 1215.30 590.91
00002360 00000139 943.46 95.86 469.42 645.88 1067.30 336.45 1276.81 385.11 1132.91 470.28 1036.04 554.05 1219.25 594.12
00002361 00000140 942.89 93.47 475.21 662.72 1074.70 334.87 1287.19 387.28 1142.85 470.48 1038.69 560.01 1222.62 603.60
00002362 00000141 947.76 101.19 474.28 662.97 1073.65 331.92 1293.65 388.07 1145.22 473.73 1040.24 556.77 1231.61 602.88
00002363 00000142 944.60 93.14 475.12 667.40 1074.96 331.27 1292.77 385.67 1145.81 471.86 1037.33 558.69 1234.26 603.34
00002364 00000143 944.42 91.74 470.39 667.65 1074.04 342.83 1287.59 393.71 1144.52 470.88 1035.92 560.82 1230.66 602.44
00002365 00000144 942.41 89.94 468.35 661.32 1072.54 345.69 1284.34 396.96 1140.98 472.09 1034.44 556.78 1225.85 598.82
00002366 00000145 945.15 90.99 468.02 650.23 1070.51 344.54 1286.65 393.78 1142.58 473.76 1037.55 558.10 1227.51 598.42
00002367 00000146 944.79 93.37 468.76 646.30 1070.75 341.08 1286.29 391.74 1142.71 474.28 1036.97 555.88 1227.68 597.47
00002368 00000147 943.15 94.61 469.85 644.10 1070.17 337.19 1286.58 390.24 1143.74 475.27 1037.16 554.49 1227.31 597.94
00002369 00000148 944.29 92.67 466.62 652.03 1069.68 338.23 1286.31 389.92 1143.60 476.90 1036.12 554.81 1231.62 597.19
00002370 00000149 946.23 95.44 467.32 655.42 1073.62 336.52 1287.43 386.59 1146.93 475.81 1042.25 560.07 1229.33 601.74
00002371 00000150 944.91 96.13 467.66 658.55 1072.57 336.20 1287.50 387.49 1145.93 477.42 1039.46 558.96 1231.95 601.53
00002372 00000151 942.01 95.91 468.46 654.51 1070.73 345.39 1282.62 394.97 1139.95 473.31 1035.39 558.07 1225.22 598.85
00002373 00000152 938.30 97.25 464.51 648.49 1063.65 351.00 1272.42 397.52 1129.99 472.76 1030.81 556.43 1216.17 594.82
00002374 00000153 935.33 92.64 465.54 647.23 1058.27 351.26 1269.37 396.57 1125.13 472.24 1028.83 555.97 1215.74 593.12
00002375 DELETE   929.96 90.35 469.07 647.18 1051.37 350.17 1264.54 397.41 1119.57 473.23 1022.42 553.03 1210.35 591.46
00002376 00000155 922.51 87.49 468.15 651.10 1035.45 341.02 1258.54 390.77 1103.23 476.23 1007.49 558.71 1204.44 598.73
00002377 00000156 912.28 84.29 469.34 646.57 1024.72 334.97 1242.43 390.76 1086.79 471.45 994.01 548.40 1187.45 592.92
00002378 00000157 909.60 89.56 462.18 639.61 1014.92 334.81 1227.72 385.32 1071.61 466.07 984.37 546.78 1174.54 587.05
00002379 00000158 908.49 92.97 459.69 637.85 1010.69 336.18 1220.00 384.45 1065.19 467.12 983.24 550.46 1166.53 589.23
00002380 00000159 904.86 97.97 462.61 637.09 1007.42 341.38 1214.71 386.25 1060.45 466.19 981.47 551.55 1167.59 586.94
00002381 00000160 906.08 96.21 463.99 642.82 1006.28 339.46 1218.07 383.86 1062.79 468.29 980.90 552.26 1175.09 587.21
00002382 00000161 908.01 96.40 463.68 643.46 1006.87 338.05 1219.26 380.77 1063.90 467.56 981.99 552.82 1177.62 586.41
00002383 00000162 906.50 99.47 465.72 639.70 1005.58 336.20 1216.96 378.92 1061.28 467.37 981.12 551.93 1174.92 585.63
00002384 00000163 905.25 98.93 465.25 639.42 1004.62 332.42 1213.62 377.35 1057.24 466.18 978.89 549.73 1169.73 585.22
00002385 00000164 905.09 97.52 466.98 646.35 1004.49 331.74 1214.07 376.67 1057.40 466.02 979.30 551.30 1171.48 586.91
00002386 00000165 905.31 95.88 465.93 645.96 1004.91 329.78 1214.71 372.50 1058.99 464.19 979.83 550.16 1171.95 583.90
