Video ID: 	A0rXQuow4CE
H: 	1080
W: 	1920
FPS: 	25.0

FRAME INDEX X0 Y0 W H [Landmarks (5 Points)]

00001823 00000000 632.06 151.86 408.18 557.07 810.52 326.67 1000.06 356.92 949.20 446.69 789.28 531.81 974.16 559.14
00001824 DELETE   632.78 151.18 408.88 556.75 814.30 326.27 1003.40 357.57 955.19 445.87 794.93 530.61 979.24 558.73
00001825 DELETE   635.25 152.86 409.08 554.50 817.66 326.34 1008.11 358.12 960.94 444.88 802.20 530.46 985.49 559.08
00001826 DELETE   637.05 150.38 411.78 559.01 822.40 327.17 1010.49 360.21 965.63 443.74 804.93 531.61 984.09 561.35
00001827 00000004 640.53 149.01 412.31 561.95 826.66 330.27 1017.43 363.87 969.61 446.18 808.68 534.72 987.98 564.64
00001828 DELETE   644.25 148.91 412.77 560.28 836.70 334.68 1027.74 368.67 981.71 448.63 821.10 536.03 997.49 566.26
00001829 DELETE   652.29 153.94 408.97 555.36 850.32 338.60 1033.53 374.67 994.95 451.70 835.51 537.47 1000.58 569.45
00001830 DELETE   658.90 158.98 407.04 555.46 857.08 342.17 1038.29 378.37 1000.69 452.95 843.42 539.94 1006.63 571.57
00001831 00000008 668.55 163.67 402.01 546.04 874.53 345.85 1038.14 380.61 1004.29 464.03 848.11 542.04 1003.89 572.26
00001832 00000009 673.75 161.70 400.29 549.12 877.22 346.26 1043.82 380.94 1008.11 464.68 850.17 543.06 1009.32 573.43
00001833 00000010 676.51 159.34 400.40 550.16 877.71 344.09 1046.58 379.72 1008.35 462.53 850.26 541.69 1011.51 572.71
00001834 00000011 677.52 156.56 400.28 551.88 875.81 341.84 1048.06 377.34 1007.30 460.85 847.38 538.84 1014.28 569.70
00001835 00000012 675.00 152.19 404.98 556.15 870.88 338.96 1046.18 372.96 1002.87 456.66 844.11 536.55 1014.67 566.05
00001836 DELETE   673.78 146.82 410.51 559.57 867.53 337.44 1045.85 370.94 998.18 452.54 841.64 536.22 1013.96 564.90
00001837 00000014 671.55 147.18 411.37 560.09 863.90 336.25 1044.71 370.61 993.98 453.01 836.25 535.65 1010.53 565.19
00001838 00000015 670.36 141.80 409.43 565.35 850.26 332.25 1040.36 365.04 987.26 444.87 834.71 534.25 1008.57 563.45
00001839 00000016 670.01 140.09 409.85 566.71 847.18 329.97 1041.79 364.16 984.82 442.92 830.34 533.04 1009.99 563.31
00001840 DELETE   668.19 138.39 410.63 569.97 845.98 333.97 1043.70 367.41 984.65 443.17 828.72 532.85 1012.73 562.16
00001841 00000018 665.51 136.13 414.00 568.24 842.94 330.21 1043.42 362.78 982.55 440.33 825.19 531.65 1010.93 560.48
00001842 00000019 664.95 132.74 415.28 570.68 838.19 319.85 1041.72 354.64 977.70 434.95 821.69 526.20 1011.31 556.74
00001843 00000020 661.75 132.74 417.39 568.06 834.02 314.18 1037.69 352.33 970.29 431.35 816.98 522.42 1005.91 555.43
00001844 DELETE   659.14 130.36 418.37 569.96 829.20 310.02 1032.49 349.26 964.03 428.69 809.54 520.55 998.97 554.25
00001845 00000022 653.20 129.56 419.30 572.31 823.98 310.00 1026.83 350.57 959.38 427.46 803.61 519.41 993.52 554.02
00001846 DELETE   648.29 125.98 419.95 578.46 821.96 315.53 1025.43 357.77 954.66 428.33 802.79 521.74 990.93 557.66
00001847 00000024 642.81 127.15 420.03 585.18 816.64 314.59 1020.68 358.79 952.02 428.31 796.55 525.52 985.31 563.01
00001848 DELETE   641.14 129.22 419.67 582.31 813.07 310.39 1017.50 354.64 948.27 428.08 792.78 527.11 979.36 564.72
00001849 DELETE   637.52 127.60 421.87 583.65 809.93 308.72 1012.64 353.44 943.34 426.56 788.26 526.54 973.56 564.51
00001850 DELETE   633.81 124.80 424.57 584.96 803.20 307.15 1006.90 350.19 933.11 424.46 781.77 524.85 968.25 561.49
00001851 00000028 632.04 119.22 420.31 580.48 796.47 312.84 993.17 353.59 924.78 424.62 781.55 526.80 955.92 561.94
00001852 00000029 624.43 108.59 423.65 600.72 790.13 304.27 991.10 344.95 916.56 415.28 773.11 522.50 954.83 557.16
00001853 00000030 620.26 105.39 426.18 602.41 785.88 300.94 988.08 343.36 911.16 414.55 767.54 520.63 949.64 556.52
00001854 00000031 618.61 103.86 425.55 605.70 781.57 299.36 985.49 341.36 907.47 414.83 764.35 522.84 947.65 558.33
00001855 00000032 622.75 118.44 423.11 585.69 780.35 306.56 988.79 348.69 909.85 423.01 764.33 532.05 944.04 568.12
00001856 00000033 616.32 105.30 424.07 606.39 770.21 298.78 980.35 340.63 901.63 413.49 756.57 529.14 942.10 564.52
00001857 00000034 614.31 101.90 426.29 611.18 768.16 298.70 978.75 340.09 900.16 413.57 754.62 530.53 940.75 565.63
00001858 00000035 610.80 104.60 428.61 611.51 763.47 300.49 976.17 340.45 897.11 415.80 750.02 533.31 937.95 567.55
00001859 00000036 609.55 120.27 430.55 598.97 765.41 309.06 981.24 349.02 899.54 423.29 751.59 545.52 936.08 579.27
00001860 00000037 606.92 124.51 432.84 598.65 763.25 309.49 977.38 349.61 898.00 424.38 746.37 546.93 931.03 580.87
00001861 00000038 605.27 125.43 433.50 599.77 759.10 310.29 974.69 350.28 893.73 424.28 744.19 549.71 929.18 583.18
00001862 00000039 602.88 123.49 434.99 604.67 757.45 311.43 972.81 352.31 891.01 424.65 742.84 552.93 925.71 586.67
00001863 00000040 600.37 123.14 436.36 611.63 756.50 312.58 971.85 353.38 889.55 427.82 740.96 554.37 923.36 588.12
00001864 00000041 594.47 113.54 437.26 623.89 745.34 306.26 960.24 344.52 881.51 424.04 731.01 546.45 921.19 579.75
00001865 00000042 589.19 116.14 440.94 625.74 741.67 305.89 958.36 344.49 878.10 426.26 728.96 549.83 917.92 583.43
00001866 00000043 583.07 117.58 445.74 628.51 738.19 304.95 954.72 343.59 874.33 425.46 726.51 550.78 915.01 584.15
00001867 00000044 579.80 114.90 445.76 631.50 734.92 304.09 954.46 344.47 872.75 423.38 724.09 551.00 914.26 585.57
00001868 00000045 576.38 117.11 446.51 629.49 732.36 304.75 951.51 344.24 869.55 423.22 723.10 551.42 911.46 585.08
00001869 00000046 572.56 115.29 447.39 631.82 730.79 304.33 948.70 343.56 867.69 423.43 718.68 549.41 907.95 582.73
00001870 00000047 567.74 112.13 449.40 636.91 727.13 305.72 945.07 342.92 862.72 424.86 714.40 550.91 902.88 582.41
00001871 00000048 570.30 119.95 448.66 628.17 724.25 314.52 935.65 349.28 852.55 425.15 715.89 554.78 890.62 583.22
00001872 00000049 567.06 123.02 448.07 626.29 717.74 316.56 930.44 348.31 845.55 426.88 713.00 558.70 887.22 584.41
00001873 00000050 564.33 124.35 450.11 623.48 714.74 314.97 928.55 346.65 840.76 428.84 710.13 558.94 884.00 584.53
00001874 00000051 561.62 124.07 450.27 625.30 712.17 313.53 927.39 346.00 839.65 428.77 707.92 561.97 881.61 588.10
00001875 00000052 559.75 124.20 449.66 624.22 709.28 313.66 925.98 346.27 837.35 430.81 705.32 563.32 880.39 589.63
00001876 00000053 556.60 122.89 449.90 626.29 708.74 312.61 924.65 345.14 837.10 430.92 704.55 563.88 878.23 590.10
00001877 00000054 553.40 125.18 450.95 625.98 707.85 311.77 924.37 345.03 836.92 433.20 703.91 566.40 876.75 593.10
00001878 00000055 552.20 124.56 451.59 627.32 706.94 311.23 923.31 344.50 836.53 433.07 702.51 565.37 876.43 592.05
00001879 00000056 550.88 125.55 450.72 625.77 704.31 311.50 921.60 344.42 835.39 434.15 701.75 566.50 875.54 592.80
00001880 00000057 549.80 126.07 450.56 624.91 702.34 311.26 920.96 344.50 833.86 435.08 700.48 567.22 874.65 593.74
00001881 00000058 548.64 127.84 450.34 623.04 701.56 310.98 920.58 343.98 833.04 437.25 699.82 568.22 873.85 594.44
00001882 00000059 547.89 128.19 451.41 624.68 699.77 312.05 921.10 344.15 833.11 441.44 698.43 571.34 873.14 597.03
00001883 00000060 547.54 126.86 451.96 627.61 698.29 313.78 920.88 344.94 831.40 443.20 697.33 573.51 872.07 598.50
00001884 00000061 547.14 126.04 451.83 626.96 698.37 312.08 920.63 343.09 831.69 441.77 698.16 572.43 872.77 597.18
00001885 00000062 547.39 126.35 451.01 626.24 698.74 311.97 920.66 342.98 831.90 440.68 698.08 572.26 872.47 597.10
00001886 00000063 545.76 124.84 452.02 628.94 699.41 309.71 920.05 340.86 832.86 438.76 698.83 570.73 873.03 595.66
00001887 00000064 546.46 125.27 451.27 627.94 698.26 309.76 919.11 339.56 830.79 437.53 697.75 571.00 872.75 594.87
00001888 00000065 545.97 123.50 451.75 629.72 696.77 309.63 919.21 339.24 829.40 438.73 697.07 572.06 872.02 595.77
00001889 00000066 544.50 122.33 452.90 632.75 693.99 309.84 918.53 338.24 828.16 439.12 695.87 573.99 871.72 596.60
00001890 00000067 543.26 121.35 453.91 634.66 693.28 310.23 918.26 338.37 827.97 440.08 695.83 575.32 871.12 597.76
00001891 00000068 544.19 121.11 454.41 636.74 693.05 310.72 918.80 338.84 827.83 439.28 694.58 575.55 871.87 597.93
00001892 00000069 543.70 121.40 454.51 634.98 692.28 311.96 919.07 340.60 828.05 439.69 694.19 575.83 872.27 598.67
00001893 00000070 544.16 122.06 454.40 636.17 691.60 311.94 918.94 340.00 827.85 439.33 694.07 576.51 872.60 598.81
00001894 00000071 543.75 122.02 454.20 638.04 691.83 312.67 919.42 340.45 826.39 441.30 695.19 578.98 872.66 600.91
00001895 00000072 543.38 123.07 453.91 645.06 688.34 315.39 919.43 343.02 823.06 446.14 691.65 584.32 872.02 606.32
00001896 00000073 541.68 122.23 454.42 645.61 684.66 317.01 918.10 345.08 820.48 447.30 687.67 584.89 871.37 607.30
00001897 00000074 540.88 119.55 455.53 643.14 685.85 311.84 917.12 341.75 821.43 439.55 686.47 578.55 870.52 602.37
00001898 00000075 540.10 121.02 452.67 635.60 683.24 305.95 912.89 333.58 819.58 431.28 686.61 574.01 868.23 595.85
00001899 00000076 539.32 116.98 454.28 636.61 684.55 305.27 912.63 330.76 820.97 427.30 688.88 570.58 870.21 590.60
00001900 00000077 539.03 113.81 455.37 641.12 684.15 303.75 912.57 329.15 821.30 424.91 688.41 569.67 870.17 589.61
00001901 00000078 539.33 116.28 455.43 638.90 683.77 304.13 913.18 330.11 820.91 426.42 687.39 571.09 870.38 591.48
00001902 00000079 539.92 113.53 456.02 641.36 685.41 303.17 914.56 329.88 822.03 426.85 688.41 571.69 869.48 592.81
00001903 00000080 540.27 111.96 456.18 641.31 685.23 303.01 914.82 328.73 822.32 425.48 689.58 572.49 869.80 592.79
00001904 00000081 539.70 112.30 456.76 642.41 684.66 302.29 914.36 327.96 822.55 425.24 689.45 572.44 869.87 592.63
00001905 00000082 538.30 111.45 457.96 643.46 683.52 301.95 913.44 328.21 821.45 427.15 688.54 572.43 869.17 593.06
00001906 00000083 537.35 110.69 458.45 643.12 681.08 301.48 912.45 326.16 819.45 426.66 687.98 573.15 868.98 592.38
00001907 00000084 536.45 108.91 457.43 644.29 678.80 300.77 911.13 325.89 818.54 425.41 685.48 571.08 868.70 590.71
00001908 00000085 536.27 110.15 456.44 642.49 677.71 300.42 910.14 325.34 818.32 425.39 685.28 570.87 868.79 590.31
00001909 00000086 535.66 111.60 456.76 642.76 676.48 302.28 909.80 327.53 817.45 426.15 682.85 572.59 867.79 592.32
00001910 00000087 535.27 112.01 456.29 642.93 675.07 302.25 909.22 327.23 816.90 426.53 682.28 574.32 867.34 593.74
00001911 00000088 535.11 112.93 456.06 643.35 675.36 302.14 908.77 326.76 817.03 426.75 682.01 575.31 866.71 594.53
00001912 00000089 535.10 114.89 456.25 644.47 675.17 304.41 908.84 329.23 815.86 427.41 680.67 576.68 866.15 596.04
00001913 00000090 534.02 117.04 456.26 642.49 673.49 305.33 907.95 329.49 815.77 427.82 679.24 577.87 866.37 596.64
00001914 00000091 534.27 119.88 455.79 639.63 673.74 306.93 907.73 331.35 814.69 429.79 679.10 578.78 865.59 597.72
00001915 00000092 532.81 118.39 456.29 641.87 672.98 308.04 907.27 332.64 813.52 430.32 678.32 579.49 865.24 598.51
00001916 00000093 530.24 117.77 458.15 646.83 671.48 308.42 906.43 333.58 812.09 433.30 676.15 580.44 863.89 599.98
00001917 00000094 530.00 117.89 458.14 644.96 670.90 309.00 907.17 335.55 810.29 434.35 676.03 581.22 863.16 601.82
00001918 00000095 529.12 116.76 458.06 647.82 668.84 309.82 906.67 337.08 808.57 436.94 673.89 583.69 862.17 604.84
00001919 00000096 526.36 116.18 459.73 647.01 666.74 310.15 905.33 337.64 806.14 438.32 672.88 584.62 860.37 605.87
00001920 00000097 527.40 117.41 457.43 647.75 666.03 311.09 904.81 338.15 806.42 438.80 671.21 585.56 860.60 606.64
00001921 00000098 525.72 117.06 459.19 651.32 664.63 311.53 903.76 339.13 803.45 440.23 668.98 586.71 858.86 608.24
00001922 00000099 524.84 120.37 458.29 644.85 662.87 311.45 901.68 340.55 801.21 440.27 667.16 587.16 856.16 609.78
00001923 00000100 523.64 120.24 458.32 645.20 661.75 312.61 900.79 342.80 799.42 442.38 664.36 588.42 852.78 612.06
00001924 00000101 522.29 123.36 457.85 643.02 659.89 311.21 898.82 343.12 796.95 442.82 660.76 587.47 849.56 612.66
00001925 00000102 522.53 122.99 456.41 646.51 658.91 311.41 898.28 344.51 795.59 443.41 658.05 588.65 847.53 614.97
00001926 00000103 521.43 122.45 456.70 647.73 658.57 312.40 897.87 346.06 795.35 444.02 656.36 588.67 847.23 615.58
00001927 00000104 520.50 125.16 456.36 646.97 656.40 311.60 896.09 345.18 793.40 444.08 653.97 590.53 844.72 617.42
00001928 00000105 518.15 128.02 458.12 643.10 655.08 312.66 895.09 346.71 792.34 445.38 652.75 591.28 842.54 618.59
00001929 00000106 516.50 128.44 459.39 647.71 653.48 312.89 894.30 345.77 790.62 447.77 651.63 592.27 842.25 618.64
00001930 00000107 514.87 128.31 460.63 651.04 651.72 311.56 893.06 344.81 787.86 450.13 649.82 592.82 840.07 619.63
00001931 00000108 514.09 129.81 461.01 648.89 650.76 311.19 892.20 344.52 786.11 450.53 649.00 593.21 838.25 620.03
00001932 00000109 512.66 129.78 463.46 650.09 650.45 310.64 892.24 344.34 786.61 451.23 649.15 593.15 838.72 620.30
00001933 00000110 512.50 128.83 464.00 652.42 650.48 310.66 892.08 344.08 785.76 451.09 649.38 593.07 838.52 620.04
00001934 00000111 512.76 128.36 464.22 652.89 650.43 310.05 892.40 343.55 785.98 451.05 648.99 593.33 838.33 620.33
00001935 00000112 511.99 127.16 465.39 653.60 650.38 309.19 892.80 343.30 787.29 449.35 649.14 593.37 837.56 621.01
00001936 00000113 511.82 126.20 465.93 653.90 650.67 308.53 892.86 342.28 786.92 447.95 649.20 592.25 838.52 619.48
00001937 00000114 513.21 126.91 464.84 651.96 651.65 307.93 892.05 342.11 786.79 447.59 649.55 591.54 837.16 619.16
00001938 00000115 513.63 126.16 463.88 650.65 651.35 307.44 892.58 341.33 787.69 444.44 649.94 590.95 838.53 618.24
00001939 00000116 513.93 125.22 463.50 649.99 651.16 306.88 893.15 340.82 787.86 443.18 649.99 590.79 838.54 618.01
00001940 00000117 514.03 123.41 463.79 653.57 652.07 306.34 893.49 339.78 788.91 442.93 651.21 591.05 838.91 617.99
00001941 00000118 514.65 123.17 463.60 652.30 652.74 306.52 894.09 339.82 789.32 442.54 651.98 591.01 839.26 617.79
00001942 00000119 514.98 124.46 463.02 650.99 653.00 306.16 894.49 339.78 790.37 441.95 652.75 591.49 840.48 618.56
00001943 00000120 516.03 123.72 462.45 648.18 654.22 305.98 895.37 339.90 791.37 440.74 653.32 590.51 840.69 617.80
00001944 00000121 515.69 126.20 463.07 649.60 653.93 306.95 895.45 340.53 791.33 443.22 653.41 592.47 840.93 619.49
00001945 00000122 516.53 126.64 461.59 645.99 653.87 307.18 895.64 340.28 791.91 441.71 653.37 592.41 841.60 618.93
00001946 00000123 517.24 126.71 460.70 647.07 654.91 308.12 895.50 341.15 792.88 442.61 654.49 592.79 842.01 619.35
00001947 00000124 517.78 127.91 459.85 644.94 654.75 308.56 896.03 341.12 793.27 442.32 654.48 593.17 843.06 619.22
00001948 00000125 520.00 126.84 458.65 648.34 655.60 308.71 896.98 342.25 794.19 442.20 654.03 593.18 843.68 620.22
00001949 00000126 521.07 126.55 457.97 645.43 657.02 309.28 897.72 342.54 795.06 441.71 654.93 593.19 843.73 620.02
00001950 00000127 522.87 128.87 455.03 645.47 656.95 309.65 898.03 343.27 795.55 441.80 654.64 593.77 843.42 621.02
00001951 00000128 523.78 129.18 455.23 641.47 658.22 310.19 898.15 343.42 795.87 442.13 656.85 593.13 843.28 620.09
00001952 00000129 524.77 130.49 454.15 640.02 659.65 311.28 897.66 343.64 796.10 443.18 659.66 592.34 843.57 618.53
00001953 00000130 525.33 130.78 455.65 637.67 661.25 312.35 898.97 344.09 797.42 442.67 662.25 592.24 845.83 617.66
00001954 00000131 527.28 130.77 453.28 633.25 662.15 312.61 899.53 344.19 798.46 441.17 663.33 591.68 846.89 616.90
00001955 00000132 529.15 132.43 452.31 632.63 662.52 313.86 899.91 344.18 799.09 441.73 664.46 592.70 847.43 617.04
00001956 00000133 532.02 133.86 448.81 627.54 664.24 315.27 900.37 344.38 800.63 441.52 667.94 592.77 848.67 615.99
00001957 00000134 534.25 133.96 447.48 626.98 665.35 317.32 901.09 344.31 801.03 442.53 671.12 593.01 852.14 614.31
00001958 00000135 537.51 137.74 443.32 621.09 667.01 319.86 901.65 345.27 802.72 445.11 674.45 593.20 855.29 612.98
00001959 00000136 538.82 140.89 442.52 614.56 669.43 321.91 904.07 345.30 806.86 446.04 680.94 594.60 858.95 612.47
00001960 00000137 542.53 142.29 440.03 608.10 672.97 324.33 905.45 346.29 808.34 446.99 685.47 593.11 860.10 609.93
00001961 00000138 544.89 143.44 440.02 607.28 677.83 325.00 906.30 347.66 810.65 450.64 689.58 591.77 860.96 609.27
00001962 00000139 548.89 143.51 438.04 603.06 682.60 326.93 910.42 349.95 814.77 452.39 695.27 591.98 864.06 609.62
00001963 00000140 551.16 143.36 438.31 602.78 690.05 325.59 913.22 351.50 820.86 453.28 701.17 587.94 865.79 608.06
00001964 00000141 554.62 143.64 438.51 603.36 695.45 327.65 918.18 355.54 824.93 454.24 706.63 588.08 866.64 610.09
CROP_BBOX: 285 0 1310 927
