Video ID: 	SXcLqMXfCro
H: 	1080
W: 	1920
FPS: 	25.0

FRAME INDEX X0 Y0 W H [Landmarks (5 Points)]

00001988 00000000 756.11 177.31 379.65 519.04 837.97 399.86 1000.40 377.76 925.46 511.01 890.54 587.00 1017.16 568.88
00001989 DELETE   756.63 181.18 376.69 502.10 841.56 399.05 1008.14 376.51 932.35 513.49 897.27 585.43 1022.01 567.12
00001990 00000002 761.71 181.51 378.15 504.44 847.61 400.03 1014.92 377.27 940.08 515.40 903.28 585.73 1031.72 567.31
00001991 00000003 775.53 179.41 374.03 521.54 867.21 396.13 1023.82 382.69 952.81 509.49 914.25 576.67 1039.92 564.98
00001992 00000004 788.28 174.65 375.09 526.93 880.10 390.44 1038.28 369.29 971.36 492.41 931.00 574.59 1059.18 556.50
00001993 DELETE   799.32 164.84 368.94 527.62 898.60 380.48 1052.26 353.39 993.81 478.81 950.22 568.81 1069.23 545.91
00001994 00000006 807.89 161.59 366.61 526.03 906.78 375.75 1062.09 344.74 1008.09 468.63 960.04 564.84 1080.42 538.46
00001995 00000007 812.73 157.08 366.40 531.67 913.03 372.30 1071.11 345.72 1017.94 467.30 964.43 564.21 1086.22 541.42
00001996 00000008 815.02 156.10 368.52 535.07 914.81 372.81 1075.64 346.17 1021.29 470.28 965.82 566.28 1091.68 543.11
00001997 00000009 817.37 157.36 369.36 533.34 917.12 374.79 1077.52 348.22 1023.51 473.47 967.83 566.48 1095.07 543.38
00001998 00000010 818.27 157.58 370.43 532.09 917.99 376.91 1078.52 350.23 1023.75 474.86 968.73 567.75 1096.48 544.64
00001999 00000011 819.86 158.53 370.76 530.07 918.47 377.08 1079.24 350.27 1024.14 475.02 968.22 566.86 1097.30 543.75
00002000 00000012 820.06 158.26 372.21 529.18 918.06 377.91 1079.40 351.48 1023.79 476.24 967.92 567.02 1097.86 544.23
00002001 00000013 820.96 157.94 371.78 529.38 917.69 380.32 1080.40 352.73 1023.77 477.92 967.55 568.36 1099.41 544.69
00002002 00000014 821.82 158.31 371.95 526.94 918.63 381.62 1081.36 354.38 1024.72 480.37 969.85 570.17 1099.62 546.98
00002003 00000015 822.58 161.11 371.28 524.94 919.55 384.28 1083.38 357.69 1026.26 484.56 971.55 572.39 1100.83 549.74
00002004 00000016 823.14 162.06 371.22 527.83 920.48 385.58 1084.71 359.05 1027.27 487.26 973.04 574.93 1102.13 552.27
00002005 00000017 821.71 163.01 372.17 529.47 918.92 386.26 1083.77 360.50 1025.90 492.14 972.33 576.72 1101.73 554.59
00002006 00000018 821.58 164.04 372.52 527.54 917.34 387.27 1081.04 362.89 1021.74 492.87 970.03 576.21 1098.69 555.23
00002007 00000019 820.93 164.01 371.70 527.67 915.90 385.80 1078.61 364.26 1017.41 492.22 967.91 576.60 1093.73 557.69
00002008 00000020 820.76 161.27 370.04 525.09 913.14 384.84 1074.05 363.59 1012.27 491.97 965.21 575.24 1087.72 556.73
00002009 00000021 820.96 158.18 369.59 523.47 909.99 384.53 1072.30 363.21 1007.39 490.11 962.85 574.60 1085.35 556.05
00002010 00000022 823.44 158.92 366.19 517.70 908.06 381.88 1070.52 361.49 1003.99 488.73 962.22 573.92 1082.26 556.40
00002011 00000023 823.07 157.96 365.78 519.84 907.91 379.29 1067.28 361.04 1001.84 487.99 960.42 571.78 1077.10 556.10
00002012 00000024 823.52 159.78 364.13 521.64 905.79 379.98 1063.59 361.44 997.50 488.63 956.22 570.72 1075.01 554.75
00002013 00000025 822.38 160.96 363.29 521.61 904.64 380.21 1060.92 364.89 994.07 489.42 951.58 570.47 1068.81 557.27
00002014 00000026 821.19 163.18 362.62 520.31 903.74 380.64 1056.84 367.97 990.38 491.93 948.35 570.12 1061.93 559.12
00002015 00000027 817.93 166.05 364.64 522.87 900.69 383.14 1054.59 369.75 986.16 495.91 945.50 573.61 1058.79 562.13
00002016 00000028 815.45 168.69 363.95 524.42 898.59 385.20 1052.50 373.28 983.16 499.55 945.83 578.45 1055.90 568.10
00002017 00000029 812.70 169.54 362.55 521.74 895.78 387.08 1050.07 375.20 980.18 502.35 945.86 582.40 1052.17 571.95
00002018 00000030 809.44 171.73 364.84 522.08 892.56 388.39 1048.05 375.83 977.20 503.22 943.93 583.84 1051.52 572.67
00002019 00000031 808.17 172.73 364.77 519.36 890.56 387.44 1045.97 374.10 975.81 501.44 944.37 582.43 1052.70 570.45
00002020 00000032 808.94 171.97 363.38 518.29 890.91 385.75 1046.69 372.40 976.52 499.16 943.39 579.23 1053.61 567.32
00002021 00000033 809.47 171.63 364.44 518.72 891.49 383.81 1046.85 369.06 977.04 494.82 942.21 574.35 1056.60 561.46
00002022 00000034 810.39 168.19 363.59 517.35 892.31 381.85 1049.46 365.15 981.11 492.07 941.14 570.96 1061.66 556.69
00002023 00000035 810.53 169.92 365.03 516.91 893.29 381.10 1050.43 364.40 982.52 491.39 941.45 570.15 1062.71 555.92
00002024 00000036 810.59 169.59 363.43 519.42 894.97 381.04 1048.54 366.05 982.20 491.97 945.71 571.28 1059.00 558.23
00002025 00000037 810.64 173.15 361.27 521.70 895.56 384.17 1049.32 368.05 983.42 497.14 944.18 575.35 1059.02 561.52
00002026 00000038 807.36 176.15 365.38 523.20 893.29 389.36 1048.70 370.18 983.54 502.08 946.00 581.47 1062.79 564.90
00002027 00000039 805.29 181.21 367.78 520.74 893.03 392.27 1048.77 371.54 984.78 504.88 946.93 583.32 1065.95 565.39
00002028 00000040 805.36 180.98 368.33 521.86 893.56 391.54 1048.78 370.62 985.29 503.09 948.28 581.62 1067.69 563.41
00002029 00000041 806.68 178.45 368.16 524.95 895.58 389.53 1049.36 367.72 986.94 498.57 948.14 577.40 1070.40 558.43
00002030 00000042 809.00 175.54 365.37 528.32 898.67 386.79 1051.04 366.48 989.21 495.21 944.20 570.69 1072.28 553.38
00002031 00000043 809.09 175.74 364.86 531.16 900.03 387.04 1053.93 366.55 992.36 494.56 941.73 568.21 1075.94 551.12
00002032 00000044 809.37 177.60 368.10 533.30 901.68 388.50 1058.31 366.64 996.60 497.79 940.66 567.31 1082.93 549.32
00002033 00000045 808.51 179.35 370.93 530.26 904.49 390.94 1061.38 366.92 1001.24 499.53 944.67 568.06 1086.04 548.48
00002034 00000046 806.39 177.44 373.51 526.85 905.42 393.45 1063.28 365.81 1005.01 498.56 950.79 571.82 1087.09 548.58
00002035 00000047 806.07 174.26 375.89 526.89 905.20 393.53 1063.48 363.91 1006.61 496.63 954.58 572.72 1088.71 547.58
00002036 00000048 806.74 171.90 377.22 529.86 904.57 392.72 1064.52 363.52 1007.44 496.97 952.69 571.99 1090.96 547.12
00002037 00000049 807.00 173.47 377.04 528.23 905.40 392.48 1064.14 364.63 1006.81 497.41 952.52 571.70 1088.94 548.05
00002038 00000050 808.10 171.89 375.24 530.46 905.09 394.71 1063.31 366.27 1006.45 498.03 953.56 575.54 1087.57 551.34
00002039 00000051 808.11 174.18 376.05 532.19 906.01 396.06 1063.34 368.98 1006.03 500.10 954.52 577.98 1086.34 554.95
00002040 00000052 809.28 178.71 375.74 528.39 908.05 396.24 1064.70 371.51 1006.59 502.53 956.80 579.65 1084.71 558.64
00002041 00000053 809.26 178.77 376.12 528.81 907.45 397.45 1064.90 373.08 1006.22 504.71 957.46 582.55 1084.04 561.88
00002042 00000054 808.54 179.50 376.79 528.76 907.71 397.85 1064.91 374.86 1006.37 505.98 958.22 583.89 1082.83 564.31
00002043 00000055 808.88 179.87 377.20 528.82 908.04 397.69 1064.64 374.64 1006.13 506.11 958.23 584.09 1082.32 564.52
00002044 00000056 810.00 177.94 376.32 529.68 907.78 396.94 1063.81 374.52 1004.76 504.31 958.08 583.64 1081.18 564.44
00002045 00000057 810.62 177.10 375.03 529.64 906.92 396.57 1063.02 373.35 1003.57 503.32 957.80 583.58 1081.07 563.64
00002046 00000058 810.91 177.92 373.68 529.50 906.46 395.36 1061.00 372.98 1001.49 503.00 957.90 584.08 1078.36 564.90
00002047 00000059 810.96 179.86 372.71 528.64 906.56 395.89 1059.38 374.12 1000.41 502.53 956.51 583.28 1076.61 564.77
00002048 00000060 811.09 181.37 372.85 530.06 907.24 395.82 1059.72 374.41 1000.79 502.85 956.55 584.59 1076.64 566.43
00002049 00000061 810.86 181.41 372.55 530.63 906.56 395.73 1058.31 373.56 999.63 502.39 956.38 585.14 1075.90 566.38
00002050 00000062 810.55 181.45 373.53 530.57 906.49 394.60 1059.26 372.22 1000.65 499.82 954.35 583.12 1077.21 564.30
00002051 00000063 809.09 179.05 375.86 534.29 906.05 391.70 1060.88 370.35 1001.52 498.03 952.51 582.56 1078.76 564.24
00002052 00000064 809.52 175.02 374.93 534.84 906.14 389.56 1059.76 368.16 1001.54 495.41 952.74 580.46 1077.85 562.24
00002053 00000065 812.52 169.09 373.62 538.92 907.26 385.91 1062.01 364.79 1003.13 492.74 951.85 576.85 1079.39 559.14
00002054 00000066 816.36 163.19 370.50 538.50 908.07 381.73 1059.88 362.56 1000.05 487.56 948.85 568.16 1077.15 552.20
00002055 00000067 818.14 160.63 368.32 537.20 907.09 376.87 1056.23 357.67 995.36 481.30 946.66 562.66 1073.41 546.33
00002056 DELETE   817.90 156.22 366.67 535.15 901.44 371.58 1054.10 351.39 988.57 474.42 942.67 561.02 1068.13 544.20
00002057 00000069 814.77 154.84 369.28 534.93 897.52 369.59 1051.83 348.12 984.02 469.65 939.49 559.14 1065.24 541.88
00002058 00000070 815.11 151.22 364.98 535.51 895.99 364.29 1050.56 349.03 978.69 468.08 934.57 555.14 1056.90 542.89
00002059 00000071 806.72 147.90 367.96 534.71 891.17 368.88 1051.49 357.48 973.96 473.25 932.93 553.54 1061.33 544.63
00002060 00000072 802.87 149.32 367.49 531.95 884.52 370.07 1045.29 360.70 965.22 475.18 925.24 550.96 1056.41 543.56
00002061 00000073 800.43 150.71 367.60 528.84 879.93 372.67 1040.68 363.37 958.58 476.58 920.01 550.67 1052.41 543.21
00002062 00000074 796.92 155.05 368.24 525.35 877.50 374.67 1034.92 365.42 954.39 479.02 917.51 551.37 1046.72 544.18
00002063 00000075 797.17 155.92 365.73 529.99 875.82 375.60 1032.06 367.48 950.91 481.05 914.66 552.77 1045.18 546.62
00002064 00000076 797.41 157.42 365.33 530.04 875.34 374.94 1032.55 368.70 949.66 481.63 912.37 553.18 1043.05 548.83
00002065 00000077 798.20 158.08 364.14 528.60 875.88 375.56 1032.20 369.34 949.85 482.01 912.52 552.49 1043.07 548.12
00002066 00000078 797.66 158.02 364.55 529.24 876.25 375.72 1032.73 369.55 950.55 481.69 912.31 552.26 1043.16 547.86
00002067 00000079 796.87 158.68 365.12 527.49 876.38 375.59 1033.03 369.29 951.77 482.16 913.14 552.33 1043.80 547.72
00002068 00000080 796.37 158.41 365.97 526.93 876.25 375.48 1032.71 368.49 952.22 482.31 915.41 553.14 1044.31 547.95
00002069 00000081 795.03 158.02 366.28 525.74 876.11 375.82 1032.97 368.13 953.10 482.45 916.54 553.49 1044.95 547.60
00002070 00000082 795.36 157.59 365.45 527.52 875.40 375.56 1032.77 367.93 952.33 482.74 915.94 554.11 1045.25 548.30
00002071 00000083 794.47 158.10 365.56 526.63 874.28 374.87 1032.57 367.75 951.35 483.59 916.41 555.45 1044.60 550.19
00002072 00000084 793.24 155.57 366.08 532.80 873.09 373.79 1030.88 367.07 949.95 483.21 915.60 556.62 1042.96 551.87
00002073 00000085 794.17 154.60 364.63 533.82 872.06 373.20 1028.94 366.02 947.89 481.67 914.07 556.12 1041.20 551.04
00002074 00000086 794.51 153.03 363.27 530.88 871.02 371.70 1027.32 365.35 945.17 478.90 910.26 552.69 1036.83 548.36
00002075 00000087 795.22 150.21 362.72 532.14 869.88 366.60 1026.10 362.09 941.51 475.80 906.23 549.06 1032.77 546.22
00002076 00000088 796.55 144.31 363.08 535.74 869.77 360.52 1025.29 359.05 938.37 473.61 904.35 546.54 1028.88 546.28
00002077 00000089 798.30 142.83 362.23 533.33 870.37 358.56 1025.35 358.23 937.14 473.43 903.08 543.57 1028.03 544.29
00002078 00000090 798.59 142.61 362.93 531.34 870.28 358.34 1025.83 358.49 936.42 474.45 901.50 540.83 1028.52 541.82
00002079 00000091 798.75 142.83 364.24 536.07 871.74 359.18 1028.63 358.37 939.59 474.78 903.55 544.19 1030.18 544.67
00002080 00000092 800.47 142.76 364.14 537.96 874.46 359.54 1032.55 358.04 944.54 475.73 910.74 547.72 1034.79 547.73
00002081 00000093 803.69 143.30 363.14 539.02 876.53 360.74 1036.56 356.61 948.27 474.77 914.22 549.01 1040.93 546.59
00002082 00000094 815.18 143.56 358.24 538.92 881.17 353.85 1042.47 345.92 958.14 468.10 920.80 549.54 1044.23 542.73
00002083 00000095 813.25 142.78 365.71 530.42 886.43 359.64 1047.85 354.11 960.22 472.65 925.27 545.55 1052.71 541.77
00002084 00000096 822.51 144.83 360.96 533.08 888.64 356.42 1048.57 347.96 964.38 468.35 924.44 548.54 1050.28 541.32
00002085 00000097 824.87 147.40 359.22 529.29 890.72 359.18 1050.13 352.79 965.14 471.90 923.99 549.88 1049.96 544.50
00002086 00000098 825.88 149.98 358.19 530.67 891.85 362.26 1050.55 356.36 965.25 474.17 924.37 552.25 1050.45 547.41
00002087 00000099 828.56 147.97 354.23 532.73 893.57 363.12 1050.32 358.22 966.04 476.86 929.23 556.61 1048.65 552.60
00002088 00000100 832.16 147.22 354.81 533.87 897.20 363.50 1055.44 359.00 969.78 476.60 930.41 556.00 1053.65 552.13
00002089 00000101 836.60 144.76 353.19 536.42 902.18 361.74 1061.08 358.13 975.52 473.61 933.39 554.74 1057.86 551.40
00002090 00000102 833.43 153.49 358.87 527.96 909.71 361.94 1069.29 362.52 981.38 475.47 936.05 548.96 1063.32 550.73
00002091 00000103 837.58 144.08 352.83 534.67 903.82 361.07 1064.69 359.12 978.11 472.85 932.57 553.00 1059.27 551.10
00002092 00000104 836.05 148.06 352.87 531.20 902.92 365.38 1060.58 363.44 975.88 476.64 930.20 553.84 1057.13 552.18
00002093 00000105 834.69 152.49 352.15 529.47 901.38 370.97 1056.08 367.34 973.75 480.44 929.65 557.28 1055.71 554.44
00002094 00000106 833.17 153.43 352.99 532.56 902.40 372.89 1056.46 369.68 974.56 482.92 932.53 561.87 1055.60 559.18
CROP_BBOX: 545 0 1361 842
