Video ID: 	HQcnCMxGhN8
H: 	1080
W: 	1920
FPS: 	25.0

FRAME INDEX X0 Y0 W H [Landmarks (5 Points)]

00008627 00000000 1033.72 249.14 442.03 617.78 1157.40 468.45 1351.28 517.26 1222.38 608.30 1126.86 693.24 1277.35 734.96
00008628 DELETE   1031.03 260.73 443.83 617.54 1156.55 465.63 1347.00 518.60 1217.65 623.44 1123.59 695.08 1272.45 740.93
00008629 00000002 1026.69 275.18 447.18 614.61 1153.38 472.26 1345.88 523.34 1216.40 629.34 1123.87 703.48 1272.47 747.53
00008630 00000003 1026.24 277.21 446.31 615.85 1151.32 476.93 1345.37 527.86 1216.11 632.25 1121.82 708.00 1272.47 751.84
00008631 00000004 1028.28 282.61 442.71 607.80 1152.16 481.72 1343.83 532.16 1215.07 636.05 1123.58 707.57 1271.86 751.02
00008632 00000005 1027.53 285.45 444.64 605.13 1149.91 485.60 1343.14 535.69 1213.80 640.00 1122.63 710.94 1271.37 754.00
00008633 00000006 1026.70 284.46 445.47 609.23 1149.72 485.97 1342.20 535.86 1213.52 639.33 1122.27 709.04 1273.35 752.02
00008634 00000007 1025.64 287.00 446.88 609.80 1149.74 483.97 1342.82 534.58 1213.65 637.26 1122.05 708.28 1273.41 751.94
00008635 00000008 1025.27 288.67 445.62 610.75 1148.67 483.03 1343.41 532.68 1212.82 636.25 1121.78 711.10 1273.37 754.01
00008636 00000009 1026.31 287.13 444.20 611.26 1148.56 482.07 1344.33 530.60 1213.05 635.32 1121.70 712.63 1272.36 754.72
00008637 00000010 1026.56 284.40 444.09 610.85 1149.39 479.74 1345.03 527.47 1214.22 632.99 1123.00 711.04 1272.51 752.48
00008638 00000011 1027.15 285.55 443.44 609.08 1148.72 477.03 1345.77 524.00 1214.42 630.08 1123.75 710.86 1273.21 751.56
00008639 00000012 1027.23 278.76 444.05 615.69 1149.20 476.13 1345.12 522.54 1214.21 629.29 1124.29 709.23 1273.80 749.53
00008640 00000013 1027.53 276.36 444.23 618.88 1149.99 475.60 1345.56 522.31 1214.59 628.66 1125.20 707.82 1275.47 748.31
00008641 00000014 1027.52 277.27 443.42 619.31 1149.61 474.85 1345.41 520.97 1215.01 628.94 1125.34 707.76 1277.51 747.82
00008642 00000015 1030.01 280.34 440.64 615.91 1149.45 474.49 1345.88 520.01 1214.73 628.50 1125.39 707.78 1278.82 747.37
00008643 00000016 1031.71 273.61 440.28 623.32 1150.92 473.31 1346.63 518.18 1215.24 627.69 1126.50 706.94 1281.25 746.03
00008644 00000017 1032.03 269.26 441.54 629.05 1150.25 470.92 1347.03 515.21 1215.08 623.88 1126.44 705.77 1284.00 744.43
00008645 00000018 1038.50 272.05 433.55 626.85 1153.69 474.57 1349.80 512.67 1225.63 612.85 1134.68 706.19 1288.03 738.41
00008646 00000019 1035.17 268.34 441.95 628.99 1150.85 467.78 1347.61 508.10 1218.16 617.19 1130.29 703.36 1290.14 738.64
00008647 00000020 1040.51 265.19 433.92 633.89 1155.23 470.89 1352.47 509.10 1228.56 607.46 1137.60 700.79 1293.80 732.64
00008648 00000021 1041.28 260.96 433.85 638.50 1157.47 468.27 1353.39 506.93 1231.31 602.58 1139.60 694.74 1299.52 726.52
00008649 00000022 1041.34 256.97 436.02 639.79 1156.93 464.68 1355.08 502.19 1231.59 597.40 1139.00 689.40 1306.93 719.73
00008650 00000023 1034.88 240.20 445.09 641.44 1156.47 457.42 1351.72 491.12 1228.56 591.50 1131.64 684.84 1311.33 712.33
00008651 00000024 1033.47 239.12 448.25 644.54 1156.12 451.98 1349.35 486.06 1226.19 587.86 1130.08 680.01 1311.31 707.64
00008652 00000025 1031.39 235.99 448.67 646.84 1152.55 448.38 1345.91 482.36 1221.53 586.22 1127.32 678.16 1308.78 705.69
00008653 00000026 1032.15 244.92 438.60 658.61 1146.06 452.25 1336.87 482.61 1212.40 580.98 1126.91 680.06 1303.50 704.84
00008654 00000027 1024.57 234.76 444.91 661.89 1133.55 441.04 1323.85 473.20 1195.49 580.56 1116.72 679.99 1292.91 707.81
00008655 00000028 1013.65 242.50 442.12 669.29 1126.11 447.85 1314.38 477.96 1184.71 574.89 1108.92 679.31 1286.05 704.28
00008656 00000029 1004.48 252.07 443.46 650.43 1115.50 454.79 1311.38 482.48 1180.26 589.90 1099.94 685.96 1281.57 706.30
00008657 00000030 995.67 253.88 439.13 645.18 1096.43 469.18 1292.10 493.93 1160.56 601.76 1084.00 687.32 1269.66 705.64
00008658 DELETE   986.65 277.38 433.17 621.99 1080.39 487.78 1270.81 507.25 1146.44 613.72 1072.62 700.00 1256.34 714.74
00008659 DELETE   976.74 288.15 427.51 613.97 1069.11 501.97 1261.28 520.83 1137.10 633.17 1066.82 716.29 1245.33 730.65
00008660 DELETE   960.36 283.75 438.09 622.86 1047.22 505.31 1250.37 528.34 1119.59 649.66 1045.70 722.49 1227.94 743.36
00008661 00000034 955.98 292.31 435.60 609.76 1044.17 504.49 1245.06 528.42 1115.15 650.49 1041.86 723.55 1216.98 745.44
00008662 00000035 951.55 281.06 436.75 617.17 1037.86 499.34 1242.04 521.48 1111.43 644.89 1036.25 721.87 1211.27 742.20
00008663 00000036 946.91 280.41 436.75 616.24 1031.51 494.89 1237.95 516.19 1107.26 639.96 1031.87 720.81 1208.84 740.29
00008664 00000037 942.86 281.06 436.72 612.68 1029.17 492.50 1236.02 514.59 1105.82 637.21 1028.08 717.40 1207.25 737.39
00008665 00000038 938.17 276.77 439.39 613.04 1027.65 493.03 1233.17 515.79 1102.84 638.48 1025.87 713.93 1205.90 734.41
00008666 00000039 934.29 277.89 440.66 611.85 1026.56 493.88 1232.04 515.98 1102.37 639.27 1023.64 709.59 1209.11 729.43
00008667 00000040 931.11 281.87 441.68 610.94 1026.13 495.34 1230.88 519.01 1102.02 645.42 1022.11 708.48 1210.79 729.41
00008668 00000041 930.77 287.53 439.96 613.63 1023.73 496.02 1230.78 521.69 1098.35 651.30 1018.69 713.64 1214.40 735.53
00008669 00000042 927.97 292.28 441.87 614.54 1024.04 515.02 1217.02 532.06 1094.13 652.35 1019.09 717.95 1212.31 731.08
00008670 00000043 925.90 300.08 440.27 622.98 1021.63 517.68 1214.49 533.19 1092.82 656.84 1017.06 730.67 1211.33 742.39
00008671 00000044 922.04 300.42 440.37 631.50 1018.84 516.60 1212.28 533.40 1089.35 658.08 1014.83 739.58 1204.59 752.17
00008672 00000045 922.46 293.18 439.54 639.27 1014.37 511.81 1207.77 527.33 1082.51 652.38 1015.54 746.72 1195.66 758.15
00008673 00000046 921.16 288.65 436.82 619.83 1013.15 506.69 1209.68 518.06 1086.17 636.37 1016.29 733.61 1195.72 741.94
00008674 00000047 924.98 273.48 432.72 612.01 1013.56 491.76 1213.03 505.99 1086.39 623.55 1018.28 719.39 1187.75 730.13
00008675 00000048 927.99 258.41 428.72 610.55 1014.70 482.04 1212.82 501.88 1083.86 612.58 1013.99 700.20 1186.28 716.06
00008676 00000049 928.15 243.92 429.33 618.42 1022.34 466.67 1215.49 491.49 1086.42 603.90 1013.39 688.58 1187.31 708.51
00008677 00000050 932.01 239.51 429.13 617.08 1025.76 461.52 1219.45 486.33 1089.85 595.71 1017.36 683.59 1189.01 703.89
00008678 00000051 932.92 231.12 432.50 616.77 1027.52 457.23 1223.60 482.94 1092.24 588.64 1019.61 679.38 1190.77 700.33
00008679 00000052 933.44 228.94 435.63 610.49 1030.88 454.80 1228.07 478.30 1096.57 578.47 1024.49 673.23 1195.51 692.32
00008680 00000053 936.04 226.47 434.42 605.72 1032.49 451.76 1229.79 474.71 1096.81 571.47 1026.13 669.48 1194.57 688.02
00008681 00000054 937.31 219.28 434.37 608.39 1035.27 446.35 1232.26 470.68 1100.61 564.96 1027.50 665.52 1193.85 684.96
00008682 00000055 941.80 216.34 433.02 605.77 1038.64 440.43 1234.09 466.20 1101.26 559.73 1029.62 659.05 1192.84 679.45
00008683 00000056 948.09 218.92 440.01 608.83 1044.07 437.03 1235.13 463.03 1100.06 558.30 1035.83 651.72 1187.11 673.94
00008684 00000057 950.07 220.94 436.07 604.47 1049.07 422.07 1239.51 451.38 1104.30 544.44 1037.16 645.88 1177.19 671.94
00008685 00000058 955.01 215.42 434.56 612.77 1054.55 416.31 1244.11 441.50 1107.86 536.35 1046.20 647.86 1174.98 671.04
00008686 00000059 959.99 211.14 434.97 614.69 1058.14 411.79 1245.94 435.71 1108.14 525.15 1049.53 641.70 1176.15 663.91
00008687 00000060 966.98 206.32 433.69 611.86 1062.04 408.93 1248.42 433.76 1110.13 520.13 1051.42 634.52 1179.58 657.67
00008688 00000061 970.63 201.40 436.36 608.70 1066.20 405.42 1252.87 432.36 1113.66 517.73 1049.86 626.99 1187.72 651.60
00008689 00000062 981.47 210.27 431.58 598.41 1069.30 408.95 1255.16 431.88 1118.08 515.35 1053.80 624.63 1196.55 645.64
00008690 00000063 985.54 210.26 433.00 590.73 1072.41 409.81 1258.93 435.64 1120.08 516.75 1054.93 622.09 1200.11 645.13
00008691 00000064 988.27 208.26 432.57 588.17 1072.95 412.85 1259.99 439.44 1117.60 516.34 1054.89 625.35 1202.67 648.83
00008692 00000065 990.80 210.08 428.98 594.84 1074.24 408.08 1259.03 435.42 1117.29 515.74 1057.32 624.73 1204.03 649.02
00008693 00000066 991.93 212.15 429.30 594.17 1072.65 410.80 1259.82 435.21 1117.04 517.41 1058.37 628.08 1213.22 649.46
00008694 00000067 991.74 209.33 429.60 594.39 1070.27 412.78 1256.01 435.70 1112.76 517.88 1057.31 627.96 1212.45 648.01
00008695 00000068 992.75 204.29 429.55 593.05 1067.58 413.85 1252.27 436.56 1109.42 519.11 1053.38 626.08 1206.98 645.91
00008696 00000069 987.12 195.65 431.18 589.72 1064.59 408.34 1250.86 431.76 1102.76 521.02 1047.90 622.88 1198.07 642.43
00008697 00000070 987.44 195.18 430.73 589.20 1063.99 405.95 1248.33 430.18 1098.98 520.56 1046.78 618.58 1194.36 638.80
00008698 00000071 985.08 200.60 433.02 588.32 1064.85 404.20 1243.88 429.90 1098.59 507.79 1042.31 611.17 1192.63 634.01
00008699 00000072 980.44 209.43 434.56 583.61 1058.08 399.50 1235.13 424.08 1087.52 500.12 1036.56 603.47 1196.03 625.15
00008700 00000073 977.11 209.28 434.72 582.90 1051.89 401.09 1226.80 421.46 1079.97 500.00 1033.27 602.67 1192.34 620.31
00008701 DELETE   971.21 190.85 437.84 604.67 1041.04 402.17 1217.21 424.45 1065.93 516.45 1027.89 615.07 1177.63 635.19
00008702 00000075 966.01 196.77 437.01 631.51 1033.62 420.06 1211.22 436.44 1063.72 532.87 1033.73 648.68 1177.41 663.53
00008703 DELETE   961.74 214.36 439.78 639.47 1026.55 449.85 1193.51 463.23 1046.63 559.88 1030.98 671.02 1181.52 682.31
00008704 00000077 950.26 210.13 444.61 653.10 1018.25 467.65 1189.00 481.06 1044.30 583.46 1023.53 680.62 1180.20 692.28
00008705 00000078 943.73 226.76 448.45 633.26 1012.53 471.39 1188.79 489.11 1046.89 592.11 1015.71 678.70 1178.22 693.98
00008706 00000079 939.38 230.93 451.67 625.98 1010.36 467.99 1190.41 485.44 1048.08 591.71 1013.01 676.27 1177.95 691.29
00008707 00000080 937.80 231.17 453.05 623.93 1009.39 464.54 1188.66 481.83 1045.74 590.28 1013.29 674.80 1178.40 689.59
00008708 00000081 937.31 235.02 452.51 621.86 1009.34 464.89 1189.20 482.08 1046.67 590.49 1013.02 675.50 1178.26 690.29
00008709 00000082 937.54 238.96 449.59 621.40 1008.62 469.96 1190.63 486.94 1048.57 596.63 1010.27 677.47 1180.66 692.21
00008710 00000083 936.20 233.55 448.52 633.49 1008.34 473.61 1190.75 493.41 1047.95 604.40 1007.46 681.56 1178.53 698.72
00008711 00000084 938.66 242.74 441.50 623.65 1005.96 472.59 1188.78 494.70 1048.50 608.86 1011.15 682.34 1181.99 699.02
00008712 00000085 937.98 239.45 445.30 620.93 1010.52 470.54 1193.51 489.55 1051.54 597.75 1009.31 678.25 1177.78 694.79
00008713 00000086 941.52 229.17 446.20 620.16 1012.52 460.68 1195.38 478.96 1051.17 586.38 1011.72 670.37 1182.81 686.07
00008714 00000087 945.16 224.24 446.08 608.87 1017.31 446.51 1203.93 468.02 1056.31 572.63 1014.19 657.58 1189.52 675.38
00008715 00000088 949.87 213.64 443.29 613.87 1022.20 436.97 1214.36 455.26 1072.12 555.06 1020.82 644.47 1195.59 660.71
00008716 00000089 957.77 205.72 441.44 616.71 1032.28 428.62 1222.44 448.16 1079.84 549.61 1028.96 638.64 1198.53 656.37
00008717 00000090 964.50 210.08 441.18 603.35 1040.99 429.13 1225.64 449.23 1081.44 543.90 1035.51 634.78 1203.92 651.48
00008718 00000091 978.77 212.66 434.36 596.37 1052.86 412.70 1240.07 442.96 1088.90 529.64 1037.84 620.61 1211.08 645.75
00008719 00000092 978.77 206.24 436.95 597.81 1059.77 403.66 1244.58 437.10 1098.70 522.96 1039.52 612.32 1201.47 640.75
00008720 00000093 987.72 200.22 435.34 590.87 1064.08 400.65 1245.51 431.13 1100.61 518.77 1041.69 611.43 1190.31 637.63
00008721 DELETE   986.36 189.09 432.12 585.59 1069.13 390.29 1241.96 422.44 1094.17 497.80 1040.23 601.07 1163.54 630.29
00008722 DELETE   991.30 186.15 437.48 581.74 1075.04 390.32 1240.60 414.67 1092.48 486.20 1043.15 591.13 1173.60 612.36
00008723 00000096 991.88 161.41 435.34 595.15 1071.58 368.77 1245.66 396.70 1093.31 463.95 1042.63 580.69 1174.74 606.31
00008724 DELETE   990.67 160.14 440.11 594.96 1072.92 357.63 1242.29 384.77 1085.25 448.32 1039.56 570.81 1171.85 595.43
00008725 00000098 991.04 161.15 441.62 589.48 1074.15 356.85 1239.52 373.48 1081.87 432.12 1034.88 564.03 1166.32 580.28
00008726 00000099 985.03 151.46 445.37 596.34 1068.38 353.30 1237.02 362.13 1076.27 420.50 1028.99 558.75 1159.64 568.66
00008727 00000100 981.74 154.06 444.46 588.39 1067.22 352.36 1236.42 358.78 1074.85 412.82 1022.75 554.00 1154.61 561.97
00008728 00000101 982.35 152.97 446.69 585.97 1061.29 352.49 1239.49 362.70 1074.52 414.30 1020.26 554.48 1165.57 565.61
00008729 00000102 978.16 147.24 447.47 591.74 1060.29 351.02 1236.38 365.58 1077.21 417.54 1021.48 549.89 1163.65 564.67
00008730 00000103 978.16 148.62 438.32 584.66 1059.26 351.73 1225.07 369.33 1070.51 428.54 1022.54 551.07 1149.09 567.89
00008731 00000104 958.78 147.55 445.71 584.87 1048.60 353.07 1222.97 379.67 1067.21 436.96 1017.08 558.49 1141.58 582.62
00008732 DELETE   965.39 156.89 440.15 587.43 1056.86 366.22 1220.96 394.42 1065.92 448.18 1026.03 567.95 1140.95 593.67
00008733 DELETE   959.92 160.28 436.99 604.89 1042.89 385.85 1214.70 410.74 1057.78 473.20 1015.16 596.20 1136.37 618.91
00008734 00000107 955.44 187.76 441.76 596.20 1038.53 394.82 1216.54 423.36 1062.03 498.70 1013.63 617.10 1139.62 642.84
00008735 00000108 950.70 184.90 442.33 616.67 1033.83 408.41 1212.04 437.09 1061.32 507.19 1013.30 627.52 1146.45 653.17
00008736 DELETE   950.49 176.86 445.72 635.04 1035.26 411.18 1214.46 437.73 1064.45 507.03 1016.91 628.44 1161.04 652.14
00008737 00000110 952.42 178.70 447.74 626.40 1039.76 407.27 1222.71 430.62 1072.20 499.17 1020.44 624.93 1167.93 645.55
00008738 00000111 962.60 163.80 439.20 628.68 1044.70 396.32 1226.49 423.91 1072.83 495.19 1022.52 615.92 1169.29 640.26
00008739 00000112 967.49 170.12 437.73 611.72 1051.45 389.79 1233.42 422.60 1079.87 492.05 1025.07 609.15 1167.34 637.62
00008740 00000113 973.70 174.39 440.43 601.19 1060.66 384.17 1239.93 417.59 1084.60 488.71 1029.46 602.27 1170.73 630.92
00008741 00000114 976.44 172.45 436.98 597.89 1065.11 382.39 1244.43 418.34 1090.21 487.68 1031.33 598.85 1172.49 629.60
00008742 00000115 976.01 171.86 447.71 603.68 1068.93 385.17 1253.88 424.40 1099.64 482.26 1031.49 600.11 1181.16 633.40
00008743 00000116 983.75 169.12 437.59 594.96 1073.70 376.81 1259.90 413.97 1102.14 481.42 1036.73 595.87 1181.19 627.76
00008744 00000117 982.73 168.05 450.55 605.32 1077.85 380.96 1266.35 419.82 1110.29 476.27 1041.96 599.58 1192.37 632.30
00008745 00000118 986.80 171.88 444.74 595.89 1078.89 371.57 1274.51 405.58 1111.75 469.00 1047.13 597.48 1200.42 626.29
00008746 00000119 989.76 170.76 443.51 592.82 1084.86 368.15 1278.28 399.74 1118.43 459.39 1053.88 592.20 1206.76 618.98
00008747 00000120 994.39 166.26 440.27 594.76 1085.89 368.03 1278.13 396.11 1121.22 456.44 1058.50 588.86 1213.46 612.76
00008748 00000121 996.62 164.67 435.12 592.50 1087.24 369.72 1281.02 396.67 1128.49 454.31 1062.28 586.88 1218.50 610.02
00008749 00000122 996.41 158.84 433.55 599.72 1088.61 375.47 1278.64 401.99 1132.68 455.58 1068.80 587.23 1226.46 609.46
00008750 00000123 999.72 164.27 433.25 596.58 1090.58 379.04 1281.38 403.62 1135.58 458.50 1070.96 588.55 1233.98 608.55
00008751 00000124 1000.22 165.09 433.04 598.82 1087.87 384.01 1282.01 403.04 1137.24 461.95 1073.79 593.73 1240.98 608.81
00008752 00000125 997.94 172.71 433.32 595.12 1080.84 386.00 1277.31 400.31 1126.86 474.16 1067.33 601.82 1235.39 613.58
00008753 00000126 995.63 175.00 431.25 593.59 1077.15 384.31 1271.00 402.87 1120.19 482.27 1060.82 604.70 1222.63 619.96
00008754 00000127 992.66 178.26 430.74 591.46 1072.15 386.79 1264.51 404.93 1113.18 486.36 1057.23 606.42 1217.46 621.42
00008755 00000128 992.26 175.76 425.09 596.96 1069.10 392.37 1255.18 408.82 1112.29 492.42 1056.41 609.72 1214.82 623.34
00008756 DELETE   986.99 187.60 430.07 602.15 1061.04 406.07 1248.89 419.45 1109.07 507.00 1054.63 618.09 1222.22 629.43
00008757 00000130 985.99 205.20 427.44 601.52 1057.80 412.66 1244.07 425.33 1102.10 515.92 1052.77 626.11 1222.25 636.46
00008758 00000131 983.94 207.22 425.23 605.24 1055.19 413.99 1241.54 432.93 1097.53 525.21 1046.12 627.18 1217.84 642.79
00008759 00000132 983.84 210.36 423.32 607.92 1054.01 421.05 1237.44 439.70 1093.91 533.79 1048.70 642.43 1203.45 658.72
00008760 DELETE   977.01 209.80 427.68 608.85 1046.82 434.52 1226.45 452.10 1085.40 549.32 1041.96 652.91 1182.09 669.42
00008761 00000134 972.64 213.14 429.56 612.49 1043.12 437.54 1223.19 457.88 1081.33 554.44 1037.31 657.83 1173.08 676.64
00008762 00000135 972.54 211.79 426.13 621.93 1038.94 440.62 1215.83 463.27 1073.89 560.79 1033.13 667.96 1155.49 689.30
00008763 00000136 968.70 213.88 427.62 624.95 1038.40 442.80 1212.57 465.76 1067.98 561.95 1030.44 672.71 1146.49 694.59
00008764 00000137 963.23 220.45 429.59 622.52 1036.67 447.62 1210.39 471.43 1064.38 567.71 1025.44 677.40 1142.53 699.94
00008765 00000138 957.85 223.13 432.25 626.38 1031.91 455.38 1210.45 477.99 1064.12 576.19 1022.80 688.02 1140.66 709.69
00008766 00000139 952.54 231.54 434.10 626.98 1028.94 458.25 1211.71 484.99 1062.58 584.94 1017.68 690.87 1141.34 715.89
00008767 00000140 947.74 237.21 435.78 629.66 1026.64 462.18 1210.21 491.72 1064.70 591.75 1014.64 694.60 1140.55 721.88
00008768 00000141 948.28 250.87 433.41 621.57 1023.97 468.77 1208.39 495.90 1066.25 598.33 1015.16 702.52 1145.18 727.40
00008769 00000142 946.03 246.66 437.06 619.61 1023.33 467.93 1210.94 495.64 1069.11 599.12 1013.48 696.09 1154.34 721.22
00008770 00000143 948.64 240.94 438.05 618.02 1025.02 464.65 1212.01 489.38 1068.48 593.09 1016.64 692.25 1156.90 715.04
00008771 00000144 950.65 231.60 439.25 624.02 1028.21 462.17 1214.35 483.55 1072.51 590.17 1023.05 691.05 1159.83 711.10
00008772 00000145 955.55 229.45 436.67 622.67 1032.39 458.44 1217.50 479.70 1076.29 586.33 1028.29 687.23 1164.11 707.09
00008773 00000146 959.01 224.49 437.31 623.54 1035.84 455.53 1221.55 476.31 1083.22 584.98 1034.57 682.39 1174.27 701.56
00008774 00000147 962.87 223.26 436.19 626.06 1040.46 451.79 1225.85 473.19 1088.92 584.18 1039.39 676.63 1182.80 696.23
00008775 00000148 968.00 225.50 434.33 622.49 1043.18 450.09 1229.60 469.97 1094.50 584.07 1044.83 677.36 1185.52 695.82
00008776 00000149 970.42 225.44 433.12 622.87 1048.13 446.33 1234.42 464.19 1099.98 579.69 1052.00 674.85 1186.85 691.72
00008777 00000150 975.44 223.52 427.92 622.25 1052.91 442.05 1234.13 457.90 1100.41 567.47 1057.15 673.60 1181.98 688.90
00008778 00000151 972.02 218.93 432.44 629.50 1057.02 440.00 1234.67 450.97 1106.76 560.46 1060.72 668.58 1194.41 678.69
00008779 DELETE   975.32 207.34 427.67 616.54 1050.89 428.95 1238.07 447.54 1105.57 551.74 1052.11 654.41 1196.42 671.90
00008780 DELETE   974.16 198.50 429.61 617.21 1048.76 428.16 1235.64 446.02 1101.00 536.64 1045.13 641.57 1197.62 658.15
00008781 DELETE   972.68 194.32 431.36 612.78 1050.69 420.29 1237.16 439.13 1102.28 526.25 1045.32 629.66 1200.96 647.04
00008782 00000155 970.79 189.03 431.97 611.21 1052.76 412.94 1236.73 434.03 1098.60 520.70 1043.95 622.79 1192.90 642.16
00008783 00000156 967.74 191.26 431.46 605.55 1051.79 410.28 1233.79 429.91 1094.88 517.32 1043.06 624.23 1177.76 642.83
00008784 00000157 966.75 191.65 430.47 602.03 1048.07 410.09 1229.75 429.05 1090.78 517.39 1038.16 625.84 1170.12 644.15
00008785 00000158 963.68 192.88 430.60 601.10 1041.98 412.18 1224.59 429.79 1082.89 519.08 1032.96 627.56 1165.96 644.79
00008786 00000159 961.44 193.30 429.77 601.10 1038.50 416.40 1217.76 432.59 1077.93 520.99 1033.04 629.69 1161.60 645.63
00008787 00000160 956.38 196.04 429.27 608.25 1031.40 419.89 1212.00 435.33 1074.18 528.39 1029.91 637.66 1158.71 652.77
00008788 00000161 949.24 194.80 431.82 616.66 1025.78 423.43 1205.44 441.85 1067.61 532.15 1023.68 640.95 1151.62 658.23
00008789 00000162 939.98 192.25 435.55 624.90 1017.15 432.78 1196.46 450.06 1061.56 542.78 1015.50 649.94 1144.46 666.16
CROP_BBOX: 620 0 1723 1080
