Video ID: 	sYEIOzGaKHc
H: 	1080
W: 	1920
FPS: 	25.0

FRAME INDEX X0 Y0 W H [Landmarks (5 Points)]

00002028 00000000 1129.61 203.28 323.83 518.88 1179.65 400.11 1318.50 414.79 1201.84 525.95 1183.04 587.35 1300.63 598.73
00002029 DELETE   1128.67 196.99 320.95 523.65 1174.49 397.30 1309.51 410.91 1192.90 521.77 1181.53 585.89 1294.48 594.81
00002030 00000002 1125.70 200.99 322.82 519.03 1170.08 399.42 1304.16 409.86 1189.57 521.51 1181.89 589.88 1290.65 596.26
00002031 00000003 1124.31 202.15 321.86 517.12 1169.13 405.21 1299.59 408.43 1187.84 522.02 1181.07 595.52 1285.61 599.51
00002032 00000004 1123.40 201.81 321.02 514.99 1167.97 404.95 1298.94 408.94 1187.23 522.83 1179.51 595.31 1283.56 599.80
00002033 00000005 1122.23 201.35 320.47 517.14 1166.92 405.11 1298.15 409.68 1185.50 523.18 1177.57 596.89 1281.49 601.77
00002034 00000006 1119.64 202.20 321.16 522.10 1166.24 405.59 1297.77 411.60 1182.71 523.48 1173.88 597.19 1281.22 603.12
00002035 00000007 1116.47 201.94 323.09 528.78 1162.76 403.47 1297.47 412.78 1178.89 524.38 1171.61 595.03 1285.49 602.10
00002036 00000008 1115.36 206.68 316.96 517.39 1160.64 406.40 1293.90 416.11 1173.68 523.75 1164.63 595.17 1277.95 603.34
00002037 00000009 1114.03 201.93 317.69 519.22 1157.84 401.57 1290.16 413.39 1169.74 520.62 1164.36 594.20 1273.03 602.71
00002038 00000010 1115.85 200.33 313.58 504.50 1155.74 399.21 1288.22 409.36 1167.13 513.58 1159.50 586.46 1265.26 595.05
00002039 00000011 1116.47 194.73 313.74 505.15 1155.80 395.21 1287.78 404.23 1167.71 507.82 1161.00 582.94 1263.90 590.81
00002040 00000012 1117.84 195.33 311.77 502.01 1156.47 396.51 1288.81 404.52 1170.23 509.56 1162.86 584.07 1265.83 590.98
00002041 00000013 1116.64 200.84 311.68 502.71 1155.81 400.61 1289.35 408.76 1172.56 516.91 1164.03 590.57 1266.39 597.61
00002042 00000014 1116.59 207.70 310.56 505.28 1157.11 405.62 1287.93 412.66 1172.68 520.63 1167.30 598.47 1267.57 604.42
00002043 00000015 1114.12 209.35 312.19 505.79 1155.43 406.50 1286.33 416.55 1170.99 523.48 1161.96 597.80 1263.03 605.97
00002044 00000016 1112.29 209.38 313.46 503.05 1154.13 405.29 1284.49 415.97 1168.63 522.05 1159.74 594.45 1261.21 603.16
00002045 00000017 1112.15 206.65 312.75 498.28 1152.19 402.77 1284.24 411.95 1167.71 519.33 1160.11 590.28 1261.58 598.02
00002046 00000018 1112.70 204.76 311.78 493.15 1150.63 399.87 1283.06 409.21 1165.24 515.94 1157.34 586.10 1258.73 593.96
00002047 00000019 1112.08 202.02 311.89 502.13 1150.77 400.04 1281.07 407.84 1164.17 515.66 1158.51 588.41 1257.36 595.05
00002048 00000020 1102.52 198.44 323.31 519.56 1147.86 400.68 1281.28 410.33 1164.51 516.17 1156.58 592.66 1261.42 598.94
00002049 00000021 1101.71 198.16 324.27 523.26 1147.25 399.75 1281.11 409.50 1163.21 515.61 1155.30 591.86 1263.74 598.23
00002050 00000022 1100.58 196.14 326.51 524.16 1146.93 398.33 1281.04 408.02 1161.71 513.52 1154.51 589.83 1264.60 596.20
00002051 00000023 1100.72 191.20 326.04 527.22 1147.49 396.15 1280.24 405.52 1160.85 511.14 1155.01 587.46 1264.46 593.69
00002052 00000024 1100.83 191.28 325.62 526.11 1147.47 394.30 1280.44 403.68 1161.64 509.56 1155.62 585.76 1264.70 591.97
00002053 00000025 1100.89 191.44 325.10 525.42 1147.26 394.07 1280.34 403.44 1161.58 509.35 1155.61 585.67 1264.56 591.87
00002054 00000026 1100.83 190.77 324.97 526.42 1147.15 394.05 1280.32 403.02 1161.53 509.18 1155.82 586.07 1264.67 591.98
00002055 00000027 1101.50 190.73 324.92 526.31 1147.28 393.98 1280.94 402.53 1162.94 509.70 1157.07 586.40 1266.00 591.94
00002056 00000028 1103.14 190.98 323.97 524.18 1148.81 394.95 1282.35 402.96 1165.67 510.16 1159.46 585.69 1268.53 590.70
00002057 00000029 1111.35 196.54 315.23 514.14 1152.17 395.73 1284.49 400.23 1166.99 510.25 1162.79 584.21 1270.09 588.66
00002058 00000030 1112.30 191.86 317.21 527.88 1157.97 396.23 1293.74 403.63 1175.87 512.19 1167.36 587.15 1281.66 592.85
00002059 00000031 1114.01 193.29 320.05 529.27 1163.08 400.66 1302.95 406.66 1187.10 515.54 1173.94 590.51 1291.04 595.19
00002060 00000032 1115.08 194.86 322.46 529.00 1166.74 401.65 1311.91 408.40 1196.22 518.39 1176.74 591.43 1298.27 596.98
00002061 00000033 1115.66 196.95 325.78 529.57 1170.07 404.66 1318.70 409.42 1204.78 523.55 1182.91 593.66 1307.52 597.81
00002062 00000034 1120.40 201.74 328.19 515.63 1172.53 406.84 1318.93 415.65 1212.91 527.18 1189.07 589.46 1314.18 597.82
00002063 00000035 1119.65 201.54 329.32 516.50 1173.55 408.63 1322.68 417.76 1217.62 529.58 1190.58 590.17 1318.08 598.75
00002064 00000036 1119.23 203.72 330.54 515.53 1174.21 409.99 1324.11 419.05 1220.50 532.43 1192.45 591.98 1319.47 600.60
00002065 00000037 1118.14 205.33 332.12 514.44 1174.90 411.09 1326.23 420.03 1224.20 535.30 1194.83 593.99 1321.96 602.54
00002066 00000038 1117.36 206.99 333.82 511.58 1176.50 412.48 1327.91 421.02 1227.96 536.32 1196.98 594.08 1323.24 602.34
00002067 00000039 1116.64 207.05 334.71 509.24 1177.00 412.88 1330.22 420.91 1230.21 535.77 1197.83 593.44 1325.78 601.29
00002068 00000040 1117.14 206.29 334.06 507.23 1177.69 411.16 1330.16 419.62 1230.07 534.70 1196.87 590.82 1325.21 599.08
00002069 00000041 1118.28 203.38 333.55 509.57 1177.28 408.95 1328.30 416.20 1227.66 530.52 1195.93 588.46 1325.15 595.58
00002070 00000042 1118.99 200.80 333.45 510.12 1179.47 407.03 1328.93 414.08 1229.71 528.59 1198.23 588.78 1321.45 595.88
00002071 00000043 1118.22 196.36 335.77 516.92 1180.73 403.52 1331.68 411.03 1230.82 524.84 1196.20 587.56 1320.71 595.35
00002072 00000044 1120.43 196.89 334.79 516.78 1182.49 405.37 1331.58 412.19 1234.35 527.28 1200.06 590.56 1320.48 597.81
00002073 00000045 1119.52 198.82 335.80 515.46 1183.07 409.85 1331.62 415.80 1239.00 531.84 1205.67 595.08 1323.01 601.61
00002074 00000046 1117.54 202.29 336.40 512.97 1182.78 413.98 1335.00 420.00 1242.86 535.80 1207.56 599.84 1325.33 606.59
00002075 00000047 1116.51 205.49 336.22 511.40 1181.90 415.67 1334.84 421.77 1243.05 537.81 1207.38 601.01 1325.88 607.90
00002076 00000048 1117.38 205.93 335.09 513.64 1182.07 415.39 1335.89 422.31 1243.66 539.66 1206.99 601.59 1326.72 609.08
00002077 00000049 1116.89 206.79 335.33 511.99 1183.15 415.42 1337.31 422.43 1245.78 539.34 1207.37 600.47 1328.04 608.01
00002078 00000050 1117.54 207.04 334.80 513.84 1184.13 415.84 1339.25 423.02 1248.03 540.91 1207.72 600.59 1330.42 608.16
00002079 00000051 1117.79 205.78 335.33 515.54 1185.32 417.58 1341.99 423.62 1251.52 542.20 1210.65 601.93 1335.17 608.32
00002080 00000052 1114.61 211.17 337.40 509.14 1185.64 421.86 1345.08 426.07 1255.07 545.93 1212.74 603.61 1340.59 608.36
00002081 00000053 1115.41 219.59 335.48 502.78 1187.79 426.32 1344.68 430.46 1257.90 549.45 1215.59 605.27 1341.75 610.00
00002082 00000054 1118.58 213.31 330.69 520.89 1192.52 429.41 1345.39 426.19 1260.86 551.47 1214.22 613.38 1342.92 609.52
00002083 00000055 1122.79 227.08 328.24 504.71 1195.32 431.40 1346.01 434.62 1266.44 556.85 1223.73 611.33 1344.74 614.84
00002084 00000056 1119.73 215.24 329.29 520.61 1194.11 434.52 1347.19 429.16 1266.12 555.63 1218.49 618.44 1344.91 612.64
00002085 00000057 1119.83 215.21 329.06 519.17 1194.81 434.93 1348.18 428.71 1268.26 555.41 1219.68 617.44 1347.23 610.82
00002086 00000058 1119.92 215.59 329.64 518.50 1195.50 434.58 1348.94 428.20 1269.82 554.80 1220.84 617.95 1347.20 611.30
00002087 00000059 1122.82 225.77 328.96 502.77 1198.89 433.27 1350.52 432.52 1275.01 556.38 1229.09 612.49 1349.52 612.76
00002088 00000060 1123.54 225.58 329.15 503.84 1200.37 432.92 1352.26 431.53 1277.50 555.44 1230.99 612.36 1352.26 611.98
00002089 00000061 1124.64 223.84 328.78 504.80 1201.49 433.11 1354.46 429.92 1280.32 553.73 1232.82 612.81 1355.30 610.91
00002090 00000062 1126.19 222.86 328.33 506.53 1203.81 433.24 1356.77 429.75 1283.51 553.63 1234.99 613.37 1357.33 611.19
00002091 00000063 1123.33 215.21 328.02 516.55 1202.04 431.47 1358.62 423.83 1281.49 550.77 1226.18 617.08 1353.46 610.27
00002092 00000064 1124.09 215.19 327.67 517.71 1203.13 432.48 1359.77 425.03 1283.45 552.11 1226.93 617.97 1354.07 611.30
00002093 00000065 1124.39 218.70 327.63 514.39 1204.03 434.01 1360.31 426.44 1284.10 554.25 1227.93 620.17 1354.37 613.51
00002094 00000066 1125.14 219.96 327.13 515.42 1204.38 436.01 1361.09 428.84 1284.38 556.04 1227.80 622.86 1354.24 616.68
00002095 00000067 1125.44 220.20 327.96 518.10 1205.31 436.79 1361.64 429.44 1284.75 556.96 1229.36 625.67 1354.47 619.34
00002096 00000068 1127.95 227.29 331.51 512.16 1209.05 437.64 1361.38 432.76 1291.15 560.73 1244.27 624.86 1360.47 621.46
00002097 00000069 1127.28 226.76 333.39 511.76 1209.07 436.09 1361.17 430.63 1291.76 559.89 1246.35 625.74 1359.88 621.86
00002098 00000070 1126.93 225.38 333.21 511.67 1208.04 435.34 1358.68 430.77 1290.10 559.75 1246.78 625.62 1357.14 622.56
00002099 00000071 1125.83 225.21 331.22 514.80 1203.66 434.58 1353.12 434.69 1280.01 559.32 1237.39 623.01 1349.28 624.12
00002100 00000072 1124.34 225.50 329.44 511.92 1199.43 434.01 1347.55 437.53 1271.12 559.42 1227.65 617.41 1342.62 621.42
00002101 00000073 1122.64 226.02 329.75 510.70 1195.96 432.65 1344.16 438.91 1264.90 559.75 1222.46 616.04 1337.77 622.42
00002102 00000074 1120.98 225.15 330.45 506.08 1193.98 433.68 1342.10 438.92 1263.48 559.14 1224.50 616.58 1335.81 622.24
00002103 00000075 1120.17 225.14 330.41 505.93 1191.98 432.03 1342.54 440.55 1259.34 558.32 1218.02 613.37 1333.86 621.85
00002104 00000076 1117.68 213.24 329.46 515.56 1188.80 429.73 1342.44 432.08 1252.01 553.38 1209.00 616.73 1330.61 617.90
00002105 00000077 1117.81 210.98 329.40 517.29 1187.07 427.58 1341.56 430.00 1248.12 550.67 1207.87 617.45 1328.03 618.83
00002106 00000078 1118.63 210.40 328.29 517.42 1186.51 424.82 1341.41 428.39 1245.09 548.78 1206.53 616.71 1325.73 619.15
00002107 00000079 1119.27 206.89 325.86 517.28 1184.70 421.34 1338.52 426.29 1239.36 544.96 1204.59 614.29 1321.91 617.73
00002108 00000080 1119.07 203.41 325.19 519.93 1182.17 414.73 1334.08 422.40 1230.48 540.36 1198.81 608.57 1315.57 614.19
00002109 DELETE   1117.60 204.39 328.81 522.97 1177.44 410.53 1323.19 421.03 1218.89 531.87 1190.94 601.32 1298.04 610.01
00002110 DELETE   1119.64 195.44 320.65 524.31 1170.73 414.11 1310.50 422.22 1202.27 528.35 1183.86 602.32 1291.92 609.02
00002111 DELETE   1119.34 199.17 320.34 514.56 1165.90 406.75 1307.35 412.45 1195.34 522.03 1176.79 600.40 1283.43 606.41
00002112 00000084 1117.67 191.82 319.32 525.65 1165.14 399.11 1303.86 408.40 1187.87 520.13 1175.59 599.10 1280.62 606.05
00002113 00000085 1119.55 188.60 317.20 531.92 1165.33 396.18 1302.39 405.83 1184.74 517.07 1173.81 597.57 1279.61 604.79
00002114 00000086 1118.35 187.60 319.46 533.76 1165.34 395.94 1302.61 405.01 1183.83 516.13 1173.23 595.49 1281.19 602.40
00002115 00000087 1114.78 187.47 324.07 527.72 1163.42 394.45 1304.37 405.32 1187.12 515.92 1171.91 588.52 1285.37 595.51
00002116 00000088 1113.88 185.55 324.91 527.60 1162.38 393.49 1303.49 404.88 1185.76 514.16 1168.99 584.87 1285.13 592.25
00002117 00000089 1113.91 184.52 323.92 527.17 1161.60 393.45 1302.45 404.62 1184.96 513.62 1169.29 585.84 1283.88 592.98
00002118 00000090 1117.30 185.09 318.08 529.35 1161.57 394.30 1298.71 404.08 1180.47 511.69 1168.04 590.37 1277.10 597.97
00002119 00000091 1115.89 185.66 319.14 531.49 1161.15 393.78 1297.60 403.97 1179.13 510.97 1166.12 588.79 1277.12 596.68
00002120 00000092 1111.02 183.98 324.98 531.28 1159.39 393.37 1298.40 403.99 1180.93 510.56 1165.66 587.69 1277.76 594.66
00002121 00000093 1111.09 183.82 324.28 530.22 1159.60 393.70 1297.89 403.73 1180.61 509.00 1165.89 587.10 1277.29 593.70
00002122 00000094 1110.45 185.38 324.55 528.34 1158.79 394.13 1297.55 403.61 1180.55 508.92 1165.70 586.94 1277.61 593.15
00002123 00000095 1109.60 186.19 325.73 528.92 1158.41 394.81 1297.39 403.54 1179.88 509.12 1166.31 587.77 1278.35 593.43
00002124 00000096 1113.44 188.12 319.21 529.08 1159.51 397.42 1295.08 403.49 1177.06 508.82 1168.40 590.56 1278.34 595.20
00002125 00000097 598.71 82.62 235.99 345.50
00002126 00000098 1113.23 191.62 320.59 527.25 1159.06 397.95 1297.14 403.48 1179.11 510.62 1168.95 588.88 1283.61 593.05
00002127 00000099 1114.70 193.03 319.95 525.21 1160.33 397.77 1300.41 402.35 1182.86 511.54 1170.22 586.90 1290.74 590.34
00002128 00000100 1112.05 192.97 325.88 524.80 1163.11 399.61 1307.96 404.05 1192.37 511.27 1173.93 584.39 1299.22 586.95
00002129 00000101 1115.75 197.83 326.71 525.31 1168.58 399.61 1315.16 405.61 1198.67 515.22 1176.21 582.56 1309.15 586.11
00002130 00000102 1117.14 202.02 329.15 523.39 1174.52 401.91 1322.13 409.33 1208.14 522.77 1181.85 581.30 1319.92 585.62
00002131 00000103 1117.52 205.43 331.87 523.05 1177.54 405.46 1327.50 411.79 1216.84 526.54 1186.21 585.18 1325.82 588.66
00002132 DELETE   1122.77 207.31 328.16 520.88 1183.79 407.52 1334.50 414.08 1227.53 534.25 1195.68 588.37 1332.85 591.80
00002133 00000105 1123.04 215.66 333.80 507.78 1188.52 416.66 1343.21 417.09 1238.28 534.50 1201.54 598.08 1339.02 597.95
00002134 00000106 1126.91 216.99 333.73 510.29 1194.19 418.16 1345.86 419.60 1242.10 537.14 1207.70 597.84 1343.52 598.48
00002135 00000107 1130.60 217.91 329.83 510.59 1195.48 418.78 1347.85 419.64 1245.74 537.85 1208.02 601.29 1345.20 601.46
00002136 00000108 1132.45 218.01 328.54 512.39 1195.68 419.16 1349.11 419.86 1248.85 538.10 1205.61 599.56 1348.24 599.36
00002137 00000109 1129.97 216.56 331.50 512.48 1196.38 417.69 1350.55 418.41 1250.99 537.83 1206.29 598.18 1349.34 598.23
00002138 00000110 1127.84 214.99 334.52 514.50 1196.66 416.72 1351.74 417.04 1253.22 537.34 1206.92 596.65 1351.25 596.40
00002139 00000111 1130.63 213.14 332.29 516.32 1197.85 416.75 1352.11 415.79 1254.75 536.08 1209.60 597.26 1352.71 595.97
00002140 00000112 1132.51 212.72 330.71 517.28 1198.82 415.70 1352.15 415.29 1255.06 535.34 1210.05 595.09 1353.25 594.22
00002141 00000113 1138.17 211.57 327.01 516.46 1198.30 417.61 1349.16 412.89 1256.66 530.81 1212.77 594.18 1350.42 590.45
00002142 00000114 1139.35 210.17 327.28 516.47 1201.13 415.18 1352.33 412.02 1259.26 529.51 1213.22 592.12 1352.51 589.94
00002143 00000115 1140.90 209.23 327.67 517.98 1203.51 413.94 1354.60 412.02 1260.65 529.09 1213.82 589.91 1354.93 588.77
00002144 00000116 1142.83 206.82 326.85 518.81 1204.96 412.27 1356.15 410.75 1262.04 528.54 1214.95 587.68 1357.17 586.83
00002145 00000117 1144.01 205.73 327.06 519.56 1205.84 410.82 1357.35 410.05 1261.89 528.27 1214.93 585.39 1359.55 585.02
00002146 00000118 1146.39 203.58 326.68 521.38 1207.75 409.91 1358.19 408.92 1262.89 527.37 1217.61 584.52 1360.65 583.90
00002147 00000119 1148.37 201.63 326.75 522.05 1210.87 409.07 1362.15 408.47 1266.71 527.11 1223.94 587.44 1358.98 587.20
00002148 00000120 1149.02 201.44 332.22 521.64 1210.36 409.66 1364.75 408.27 1273.55 527.35 1232.40 593.20 1363.18 592.93
00002149 00000121 1148.87 191.49 323.50 526.03 1217.72 409.65 1366.42 408.10 1273.55 526.20 1240.34 605.22 1355.26 603.31
00002150 00000122 616.95 88.67 236.77 345.95
00002151 00000123 617.95 88.16 237.19 346.10
00002152 00000124 618.95 87.65 237.60 346.25
00002153 00000125 619.95 87.14 238.02 346.40
00002154 00000126 620.96 86.63 238.44 346.55
00002155 00000127 621.72 86.29 238.69 346.70
00002156 00000128 622.49 85.94 238.93 346.84
00002157 00000129 1158.17 189.09 330.58 539.74 1233.89 405.97 1377.46 415.16 1298.46 525.54 1258.42 608.64 1364.87 617.84
00002158 00000130 1158.47 190.54 331.20 533.44 1233.83 407.93 1383.64 414.83 1301.70 528.48 1255.50 603.07 1375.14 609.91
00002159 00000131 1154.39 198.10 335.42 517.47 1229.53 409.42 1385.51 406.20 1300.10 524.69 1250.76 599.42 1373.52 597.38
00002160 00000132 1154.74 197.00 334.61 519.76 1229.39 410.02 1384.47 405.90 1299.85 524.81 1252.71 602.43 1372.07 599.83
00002161 00000133 1159.18 190.89 329.55 532.96 1232.78 406.12 1378.89 414.34 1295.61 525.86 1253.48 596.53 1372.76 604.46
00002162 00000134 1153.81 195.26 334.62 521.77 1225.74 406.16 1381.06 404.88 1293.14 521.21 1242.78 591.27 1371.71 590.34
00002163 00000135 1152.92 192.46 332.17 515.56 1222.39 404.54 1378.27 403.27 1290.27 517.66 1239.87 588.01 1368.05 587.14
00002164 00000136 1151.81 189.46 328.10 516.14 1218.46 403.67 1370.57 404.51 1278.93 518.35 1237.72 588.83 1359.87 588.84
00002165 DELETE   1150.50 192.48 324.21 520.99 1213.54 402.55 1362.75 404.92 1264.00 521.91 1226.87 589.59 1351.80 592.00
00002166 DELETE   1148.70 193.57 324.39 522.42 1205.58 403.24 1355.82 409.31 1250.78 525.18 1217.59 592.84 1341.63 597.74
00002167 00000139 1145.42 195.20 324.28 524.64 1200.93 407.17 1349.84 414.63 1241.89 528.87 1214.59 602.36 1331.17 607.91
00002168 00000140 1141.70 199.84 324.16 527.23 1195.85 406.40 1342.47 415.25 1231.79 529.80 1207.01 603.68 1323.24 610.29
00002169 00000141 1138.42 199.24 323.59 528.02 1191.68 405.07 1337.16 416.68 1222.29 529.99 1201.02 601.80 1316.55 610.29
00002170 00000142 1137.80 199.31 321.36 527.53 1189.64 402.82 1332.07 413.07 1215.69 526.52 1200.27 599.44 1315.65 606.97
00002171 00000143 1136.63 198.36 319.71 519.83 1187.50 399.08 1328.47 409.75 1211.44 523.84 1196.77 590.94 1313.56 598.85
00002172 00000144 1132.82 194.04 325.37 523.18 1184.34 399.10 1326.05 407.05 1210.61 520.55 1195.84 585.78 1315.10 590.42
00002173 00000145 1133.49 190.64 323.76 523.89 1183.47 397.12 1324.09 404.80 1207.82 515.85 1193.57 584.25 1309.41 589.16
00002174 00000146 1133.48 188.88 324.26 523.56 1182.08 396.03 1321.91 403.71 1205.69 513.17 1192.18 587.15 1300.15 592.64
00002175 00000147 1133.75 186.25 322.85 522.58 1180.24 395.90 1319.60 403.05 1203.21 511.57 1190.85 589.77 1293.48 594.95
00002176 00000148 1135.77 189.41 317.96 506.81 1179.05 394.55 1316.18 398.19 1204.90 507.06 1189.74 586.98 1289.57 591.76
00002177 00000149 1135.84 190.37 317.93 503.82 1179.34 394.37 1316.00 397.81 1205.62 504.45 1190.24 585.14 1289.82 589.73
00002178 00000150 1134.85 191.18 318.51 499.03 1178.29 393.41 1316.04 397.36 1204.55 503.25 1187.97 582.24 1289.67 587.12
00002179 00000151 1134.18 186.10 320.04 509.26 1177.79 392.28 1316.83 399.35 1201.02 504.75 1187.83 582.81 1290.31 588.29
00002180 00000152 1133.78 186.14 319.96 508.85 1177.42 392.38 1316.05 398.84 1200.15 503.67 1187.37 581.96 1290.21 587.10
00002181 00000153 1133.83 187.53 319.92 506.43 1177.33 392.57 1315.77 398.75 1200.14 503.87 1187.90 581.53 1290.62 586.48
00002182 00000154 1134.48 192.84 317.83 494.62 1177.83 392.96 1314.38 395.74 1202.85 501.74 1187.99 579.87 1290.46 583.90
00002183 00000155 1134.01 192.75 317.45 494.78 1177.32 393.75 1314.33 396.41 1203.13 502.90 1187.73 579.97 1291.19 583.88
00002184 00000156 1132.89 192.65 317.82 494.57 1176.61 394.60 1314.43 397.03 1203.26 503.76 1187.37 580.64 1291.80 584.39
00002185 00000157 1132.97 193.32 317.61 496.84 1176.68 395.76 1315.12 398.04 1204.02 504.77 1188.36 581.96 1293.01 585.60
00002186 00000158 1132.88 195.27 319.01 495.25 1179.01 398.53 1318.85 401.29 1209.10 504.97 1190.99 581.33 1297.64 585.35
00002187 00000159 1134.55 196.75 318.54 493.87 1182.28 401.34 1322.58 403.96 1215.44 507.58 1195.66 583.50 1302.13 587.40
00002188 00000160 1135.80 193.82 317.06 505.08 1186.49 401.54 1331.45 407.57 1222.98 514.39 1201.91 587.62 1314.07 591.87
00002189 00000161 1136.00 193.56 320.07 507.52 1188.64 405.09 1335.87 408.32 1230.71 518.01 1208.02 593.12 1319.38 594.89
00002190 00000162 1137.25 193.57 321.19 509.47 1190.88 406.34 1339.95 407.54 1237.03 517.14 1211.52 594.36 1324.21 594.57
00002191 00000163 1137.55 193.18 321.88 512.24 1192.61 406.53 1343.35 405.56 1242.76 518.14 1213.91 593.97 1330.44 592.54
00002192 00000164 1138.89 190.95 322.11 513.56 1195.10 405.78 1347.58 404.22 1247.98 518.23 1216.83 594.28 1335.12 592.38
00002193 00000165 1139.56 192.21 322.36 513.74 1197.71 406.09 1350.02 402.68 1252.90 517.75 1220.52 594.40 1340.13 591.05
00002194 00000166 1140.25 192.39 323.42 513.47 1199.70 407.96 1352.60 403.63 1257.44 519.68 1223.76 595.62 1343.72 591.55
00002195 00000167 1140.24 193.13 325.37 516.36 1202.24 409.74 1355.37 404.95 1261.49 522.46 1226.36 596.88 1347.76 592.48
