Video ID: 	m_V9fXh9VPE
H: 	2160
W: 	3840
FPS: 	25.0

FRAME INDEX X0 Y0 W H [Landmarks (5 Points)]

00001499 00000000 983.08 321.45 704.12 1080.16 1294.34 827.56 1570.93 749.52 1577.50 939.68 1448.59 1188.31 1654.67 1122.05
00001500 00000001 987.49 319.09 700.15 1095.85 1313.28 832.93 1585.80 759.25 1602.70 948.89 1457.13 1196.52 1661.68 1134.64
00001501 00000002 994.96 318.01 699.80 1115.15 1329.06 842.20 1589.61 762.64 1618.68 955.64 1456.88 1201.37 1666.49 1135.63
00001502 00000003 1001.79 316.66 695.13 1122.38 1338.18 846.33 1590.49 754.60 1637.52 957.40 1461.29 1206.93 1669.02 1132.44
00001503 00000004 1007.09 324.62 692.60 1109.22 1346.56 846.63 1588.34 746.58 1650.50 953.34 1470.77 1203.01 1672.13 1122.41
00001504 00000005 1021.07 326.05 684.95 1091.92 1363.21 847.36 1593.34 737.32 1664.40 942.64 1484.54 1194.58 1679.26 1106.85
00001505 00000006 1035.21 332.86 684.66 1074.53 1377.38 836.86 1606.34 730.33 1677.99 929.95 1490.81 1181.72 1690.22 1098.00
00001506 00000007 1044.33 319.63 684.13 1076.09 1396.65 814.21 1617.92 718.23 1692.85 914.68 1498.07 1164.69 1691.81 1091.62
00001507 00000008 1063.93 288.01 671.02 1086.04 1401.86 792.28 1598.97 708.38 1698.33 890.84 1535.95 1138.60 1668.49 1077.81
00001508 00000009 1073.29 285.89 664.03 1092.99 1416.23 775.91 1596.97 697.94 1717.48 878.43 1547.52 1132.71 1665.84 1077.50
00001509 00000010 1080.63 285.53 661.21 1087.14 1429.99 773.59 1597.80 693.32 1728.68 882.41 1557.29 1132.58 1665.36 1075.50
00001510 DELETE   1084.10 287.03 663.75 1080.89 1445.97 775.68 1600.19 698.40 1740.76 885.57 1580.72 1136.02 1676.27 1080.38
00001511 DELETE   1094.44 300.50 663.13 1068.01 1465.41 786.25 1607.80 710.32 1760.15 894.17 1602.97 1141.46 1691.40 1087.59
00001512 00000013 1105.94 307.32 660.22 1065.91 1483.50 783.15 1623.04 711.69 1774.56 899.81 1619.43 1149.68 1708.44 1098.96
00001513 00000014 1127.60 305.10 666.20 1086.67 1511.87 778.76 1632.01 693.47 1791.67 870.24 1628.46 1140.30 1735.67 1076.18
00001514 00000015 1144.71 294.35 670.85 1054.63 1524.60 754.01 1649.92 691.64 1808.81 873.16 1644.82 1116.66 1738.03 1070.65
00001515 00000016 1166.05 294.73 671.30 1048.54 1542.21 740.38 1664.57 678.38 1814.00 853.86 1662.08 1107.42 1759.50 1060.46
00001516 00000017 1193.97 276.46 655.55 1062.79 1554.92 740.43 1674.45 676.65 1827.14 853.87 1672.23 1111.69 1765.76 1063.05
00001517 00000018 1206.86 275.55 649.74 1071.90 1566.57 742.07 1685.42 677.92 1837.70 856.29 1678.13 1121.25 1770.42 1072.08
00001518 00000019 1217.36 274.80 644.50 1076.96 1580.10 739.15 1694.78 678.78 1848.84 858.63 1683.83 1124.99 1770.76 1078.11
00001519 00000020 1224.72 274.35 648.04 1079.95 1600.86 738.38 1703.25 679.53 1865.75 860.92 1694.87 1124.49 1776.17 1077.90
00001520 00000021 1232.02 267.25 651.84 1085.10 1606.63 746.73 1716.35 683.94 1870.58 861.57 1703.36 1124.36 1789.81 1075.44
00001521 00000022 1236.20 272.62 655.30 1089.36 1617.49 761.70 1724.61 695.30 1879.09 874.74 1708.76 1129.86 1796.57 1078.52
00001522 DELETE   1235.10 271.79 652.34 1095.99 1630.05 784.57 1727.21 709.49 1905.14 905.54 1715.78 1138.56 1770.97 1088.63
00001523 00000024 1242.37 300.70 646.58 1085.88 1636.17 800.99 1727.38 727.08 1911.67 920.39 1713.57 1154.77 1768.02 1107.85
00001524 00000025 1243.24 312.92 661.05 1109.61 1650.78 756.36 1732.22 729.48 1893.03 919.84 1693.75 1152.23 1754.06 1136.03
00001525 00000026 1250.47 309.39 658.05 1136.46 1655.19 746.95 1731.89 724.11 1903.36 924.57 1684.31 1162.39 1736.63 1151.02
00001526 00000027 1256.65 298.32 657.14 1149.49 1660.15 741.29 1734.64 714.10 1906.42 915.61 1687.07 1156.18 1740.68 1141.88
00001527 00000028 1259.32 296.46 652.66 1142.64 1661.70 740.10 1734.12 711.12 1901.56 906.23 1701.67 1152.66 1754.56 1135.30
00001528 00000029 1257.37 292.96 651.34 1138.73 1659.27 745.44 1731.19 712.99 1894.29 902.07 1723.67 1156.09 1770.69 1133.97
00001529 00000030 1258.20 284.71 641.86 1108.70 1648.75 785.53 1735.83 722.64 1918.84 912.48 1737.56 1160.10 1787.59 1119.83
00001530 00000031 1255.53 275.63 640.39 1102.88 1647.46 779.43 1735.89 717.67 1916.89 905.53 1742.13 1151.20 1792.27 1110.76
00001531 00000032 1261.03 264.81 632.51 1098.87 1647.93 776.20 1739.49 713.40 1919.51 902.04 1743.57 1142.22 1796.49 1100.60
00001532 00000033 1263.62 263.91 629.45 1094.50 1648.11 773.36 1739.77 711.47 1916.91 899.43 1744.41 1139.41 1795.86 1097.64
00001533 00000034 1264.62 280.71 627.76 1085.18 1649.29 774.90 1737.54 717.00 1912.71 904.76 1740.80 1149.14 1789.76 1110.30
00001534 00000035 1271.29 290.58 619.90 1079.48 1654.27 776.41 1738.88 722.84 1914.64 912.44 1738.28 1154.23 1783.94 1118.60
00001535 00000036 1269.92 291.70 620.30 1075.17 1653.46 778.44 1737.31 723.76 1912.86 913.04 1735.12 1153.81 1779.23 1117.67
00001536 00000037 1276.06 295.01 614.14 1067.90 1654.78 775.94 1736.19 722.40 1910.58 910.83 1734.18 1150.53 1775.72 1114.79
00001537 00000038 1274.24 291.82 612.30 1066.04 1656.54 768.15 1735.30 714.64 1905.11 906.81 1730.73 1144.53 1772.09 1108.41
00001538 00000039 1275.81 287.48 609.42 1065.43 1655.37 767.00 1729.64 712.83 1906.02 906.24 1726.19 1139.19 1762.40 1103.26
00001539 00000040 1273.58 295.67 613.10 1055.04 1653.17 767.73 1723.96 709.98 1907.64 905.35 1718.52 1131.82 1754.63 1093.92
00001540 00000041 1266.91 282.57 618.36 1061.50 1649.09 763.44 1723.99 705.48 1903.74 899.87 1715.73 1122.29 1754.84 1084.10
00001541 00000042 1261.76 280.91 623.63 1070.13 1647.33 760.21 1718.94 706.60 1901.95 900.63 1713.84 1123.84 1749.48 1089.25
00001542 00000043 1254.80 276.33 628.79 1075.52 1644.05 762.50 1714.85 708.96 1897.19 903.23 1711.43 1123.50 1746.89 1088.96
00001543 00000044 1253.88 276.75 627.72 1069.30 1639.72 764.68 1716.07 713.40 1890.91 904.18 1714.40 1122.14 1752.80 1088.46
00001544 00000045 1249.35 278.78 629.44 1059.18 1636.36 767.06 1715.31 714.52 1885.93 900.49 1717.26 1117.31 1758.23 1081.74
00001545 00000046 1249.53 278.38 625.33 1060.53 1637.49 770.85 1713.51 716.97 1883.90 905.28 1715.19 1121.05 1753.49 1084.56
00001546 00000047 1247.75 283.69 624.36 1068.22 1641.07 773.88 1713.97 720.95 1888.53 914.11 1710.25 1132.04 1746.71 1097.35
00001547 00000048 1235.74 289.04 630.06 1089.58 1638.79 755.89 1726.10 734.18 1860.26 916.98 1692.69 1132.62 1759.11 1119.91
00001548 00000049 1235.08 287.98 629.60 1093.20 1638.55 760.52 1725.36 739.57 1858.94 922.99 1687.17 1134.52 1755.31 1122.82
00001549 00000050 1247.23 287.51 617.59 1088.99 1644.85 782.90 1711.43 729.73 1887.71 931.63 1696.74 1147.46 1733.42 1114.82
00001550 00000051 1243.46 292.80 620.30 1099.99 1641.32 781.12 1706.86 727.69 1895.54 934.56 1679.61 1151.99 1717.46 1121.47
00001551 00000052 1245.41 288.19 618.12 1092.25 1640.08 778.05 1705.68 721.89 1895.19 930.90 1675.81 1142.39 1713.37 1109.98
00001552 00000053 1245.05 285.30 617.44 1083.06 1640.60 776.00 1707.84 720.52 1889.37 928.29 1677.06 1136.16 1715.66 1103.36
00001553 00000054 1248.57 286.71 613.94 1083.50 1638.19 774.82 1705.34 717.86 1888.67 927.18 1673.83 1135.82 1711.05 1102.00
00001554 00000055 1248.38 287.43 614.80 1084.85 1637.24 775.33 1702.87 717.94 1889.29 928.62 1669.52 1136.05 1707.23 1102.37
00001555 00000056 1247.24 288.62 617.01 1077.64 1635.53 774.96 1704.84 719.82 1884.42 924.17 1675.86 1134.12 1714.50 1100.98
00001556 00000057 1254.10 272.41 595.09 1104.13 1619.22 766.45 1711.84 730.59 1864.19 901.95 1677.52 1120.34 1746.87 1101.81
00001557 00000058 1253.15 276.14 592.84 1073.23 1617.22 759.74 1709.37 722.53 1858.04 889.20 1693.20 1106.57 1760.01 1086.65
00001558 00000059 1251.98 278.96 594.03 1065.63 1616.43 754.43 1705.22 719.34 1856.11 884.64 1700.97 1104.35 1764.62 1085.39
00001559 00000060 1247.76 282.25 594.31 1066.19 1615.23 758.50 1703.06 723.57 1859.07 892.31 1701.58 1110.86 1765.35 1091.98
00001560 00000061 1237.97 288.69 613.62 1072.51 1616.81 767.12 1710.99 734.44 1863.16 905.70 1693.72 1124.83 1765.51 1106.74
00001561 00000062 1243.92 309.60 613.58 1075.00 1630.39 775.40 1714.48 748.78 1864.99 924.67 1694.00 1142.21 1758.05 1127.84
00001562 00000063 1248.98 322.89 606.12 1080.77 1632.10 798.81 1723.28 770.24 1864.58 949.81 1680.41 1163.18 1752.15 1148.56
00001563 00000064 1239.86 323.96 609.62 1096.05 1633.49 827.47 1744.24 795.62 1869.07 980.40 1654.29 1184.23 1743.25 1169.80
00001564 00000065 1216.51 320.08 626.89 1088.43 1625.92 826.21 1753.20 796.85 1867.02 978.58 1639.74 1170.81 1742.32 1159.02
00001565 DELETE   1192.04 322.15 650.54 1059.58 1616.11 799.76 1771.68 782.63 1859.45 959.27 1629.06 1149.63 1754.83 1145.19
00001566 DELETE   1181.62 320.10 652.46 1044.36 1593.13 763.78 1774.24 766.33 1835.45 927.12 1630.97 1130.20 1773.33 1136.40
00001567 00000068 1186.16 305.99 643.74 1054.17 1578.77 733.31 1778.06 742.91 1822.03 905.98 1636.53 1110.53 1785.53 1119.67
00001568 00000069 1189.98 317.50 648.31 1034.13 1574.60 725.29 1784.61 747.19 1826.80 903.72 1620.54 1099.44 1786.19 1118.42
00001569 00000070 1191.94 327.17 665.66 1040.71 1585.77 730.46 1799.73 764.61 1839.88 914.16 1608.97 1109.61 1782.12 1139.53
00001570 00000071 1216.25 359.50 666.38 1040.72 1604.81 744.03 1820.70 786.44 1861.58 933.06 1602.82 1121.84 1791.42 1159.55
00001571 00000072 1226.75 368.37 667.91 1045.41 1616.48 746.42 1843.59 803.10 1875.74 936.29 1599.06 1124.23 1802.89 1173.85
00001572 00000073 1231.75 363.34 675.73 1037.55 1622.15 741.57 1852.56 793.84 1883.99 924.80 1611.14 1116.57 1817.14 1162.37
00001573 00000074 1233.51 348.51 676.32 1016.95 1617.98 731.26 1850.69 784.51 1882.92 908.83 1620.97 1099.86 1825.86 1145.97
00001574 00000075 1229.38 339.49 671.64 1010.84 1611.06 725.60 1843.02 772.55 1875.63 900.75 1621.88 1091.55 1825.15 1132.57
00001575 00000076 1233.91 339.62 653.20 1009.47 1601.95 730.66 1838.49 771.82 1868.72 894.33 1626.01 1093.31 1824.41 1130.21
00001576 00000077 1219.97 336.72 667.49 1017.46 1597.77 748.53 1828.59 772.17 1856.36 920.03 1616.02 1115.80 1813.34 1138.82
00001577 00000078 1212.88 334.51 657.02 1031.21 1592.98 774.64 1820.43 789.65 1843.57 949.85 1594.58 1136.67 1797.08 1153.63
00001578 00000079 1206.72 327.90 655.31 1039.15 1588.04 786.80 1813.98 787.79 1845.10 954.40 1593.34 1145.75 1795.48 1153.57
00001579 00000080 1215.05 339.34 631.36 1023.26 1565.59 779.59 1798.70 773.20 1840.23 934.40 1604.89 1141.75 1807.30 1145.22
00001580 DELETE   1197.56 317.14 638.25 1057.43 1541.00 778.78 1782.74 746.88 1820.55 924.33 1605.65 1148.20 1804.73 1132.49
00001581 00000082 1179.79 328.08 661.40 1048.14 1528.13 787.29 1760.58 742.29 1818.51 929.87 1599.38 1143.16 1794.14 1111.81
00001582 00000083 1159.27 322.58 671.01 1061.43 1511.04 795.25 1743.78 742.54 1801.06 934.94 1578.77 1148.32 1774.85 1111.67
00001583 00000084 1150.88 323.60 673.01 1069.15 1500.47 801.68 1734.07 745.70 1785.95 941.23 1569.44 1155.28 1764.53 1115.55
00001584 00000085 1143.73 328.76 677.75 1071.51 1492.33 810.64 1729.10 749.92 1779.84 946.81 1563.43 1160.52 1761.28 1116.62
00001585 00000086 1141.58 317.35 667.03 1089.13 1502.44 806.74 1753.05 744.48 1793.86 958.95 1570.72 1180.21 1765.53 1142.26
00001586 00000087 1135.56 338.05 679.81 1074.13 1487.44 826.88 1730.73 764.05 1772.93 964.83 1560.66 1174.13 1758.56 1127.64
00001587 00000088 1132.24 349.41 686.61 1077.40 1488.01 838.30 1735.21 772.96 1773.78 980.59 1559.10 1189.29 1756.45 1140.43
00001588 00000089 1132.52 368.95 692.92 1066.15 1492.07 851.08 1745.44 778.32 1782.11 1000.92 1552.17 1203.02 1754.22 1148.90
00001589 00000090 1128.33 373.67 697.06 1068.20 1489.59 862.27 1750.13 788.46 1783.11 1014.85 1553.62 1214.01 1754.26 1158.53
00001590 00000091 1128.76 378.99 695.94 1063.86 1487.55 869.24 1750.73 790.36 1784.03 1023.30 1553.39 1222.29 1749.75 1163.11
00001591 00000092 1125.60 384.67 698.41 1059.79 1486.35 870.58 1753.66 796.53 1782.52 1030.20 1556.65 1228.41 1748.63 1172.72
00001592 00000093 1124.75 389.07 697.62 1055.29 1485.49 871.86 1754.96 799.76 1782.07 1037.44 1558.25 1233.67 1746.84 1179.29
00001593 00000094 1121.83 395.24 700.78 1049.94 1485.30 873.02 1756.30 800.40 1783.84 1041.40 1559.21 1236.21 1747.00 1181.36
00001594 00000095 1121.67 395.41 705.79 1043.23 1484.46 871.03 1762.06 801.92 1782.73 1039.74 1563.48 1234.80 1755.77 1181.93
00001595 00000096 1123.55 402.44 707.71 1033.60 1482.98 871.47 1767.36 802.03 1782.26 1040.71 1561.30 1231.88 1760.67 1178.89
00001596 00000097 1119.32 407.33 711.78 1026.73 1483.53 871.94 1768.46 802.83 1779.21 1043.48 1555.49 1228.44 1756.34 1176.08
00001597 00000098 1114.38 409.14 715.10 1028.61 1481.47 873.25 1768.05 808.06 1775.86 1043.94 1549.36 1226.09 1753.86 1177.05
00001598 00000099 1110.00 411.38 711.65 1029.09 1477.16 879.53 1766.99 815.15 1772.59 1052.19 1541.60 1230.41 1747.77 1182.29
00001599 00000100 1109.78 410.88 712.27 1032.18 1472.27 887.62 1767.47 822.01 1768.09 1056.59 1536.13 1234.05 1750.77 1184.57
00001600 00000101 1112.47 404.74 708.31 1033.24 1472.04 881.08 1760.45 810.01 1765.32 1042.95 1533.08 1222.90 1748.71 1169.66
00001601 00000102 1125.99 378.65 695.65 1028.16 1475.74 854.33 1750.78 784.62 1753.39 1001.77 1541.54 1191.82 1751.75 1139.52
00001602 00000103 1120.09 351.60 692.89 1031.20 1474.12 831.40 1729.48 770.51 1755.78 961.25 1538.45 1155.56 1748.93 1112.21
00001603 00000104 1121.18 321.06 672.85 1058.98 1482.00 808.95 1739.92 743.09 1772.36 956.57 1538.88 1162.35 1754.58 1120.25
00001604 00000105 1118.57 355.16 670.21 1024.61 1464.18 820.70 1722.74 759.17 1756.47 981.41 1542.81 1161.35 1756.70 1117.72
00001605 00000106 1107.80 357.82 686.82 1040.36 1454.81 844.25 1724.96 780.59 1729.60 987.50 1507.34 1172.66 1730.42 1126.86
00001606 00000107 1107.08 379.82 689.19 1042.32 1449.72 859.36 1739.06 798.75 1729.60 1018.27 1508.71 1199.95 1737.35 1155.43
00001607 00000108 1104.51 392.79 700.35 1041.21 1452.08 872.27 1747.67 806.44 1741.09 1031.51 1511.34 1211.22 1744.32 1162.54
00001608 00000109 1107.87 398.02 700.19 1037.87 1455.60 873.31 1750.45 808.24 1746.41 1030.12 1514.74 1211.13 1746.41 1163.32
00001609 00000110 1110.40 392.24 697.90 1039.45 1458.61 868.15 1749.91 804.25 1746.51 1023.04 1515.53 1204.92 1745.22 1158.05
00001610 00000111 1113.41 386.32 698.37 1041.17 1462.95 864.11 1748.20 798.27 1749.01 1016.14 1521.26 1200.99 1746.12 1152.77
00001611 00000112 1114.50 383.36 697.81 1041.16 1465.02 861.56 1747.75 796.46 1750.00 1012.67 1522.88 1199.05 1745.23 1151.52
00001612 00000113 1115.50 387.36 696.91 1038.48 1468.20 863.07 1751.00 800.08 1752.85 1017.06 1523.97 1200.93 1744.86 1155.08
00001613 00000114 1116.84 388.98 698.98 1038.70 1471.73 865.03 1753.48 801.21 1757.59 1019.62 1525.98 1202.67 1745.91 1156.23
00001614 00000115 1116.62 391.41 699.36 1039.14 1476.65 869.12 1756.03 804.75 1764.97 1024.64 1526.02 1205.52 1744.34 1158.91
00001615 00000116 1116.12 394.92 705.14 1038.97 1483.51 870.85 1759.90 803.99 1774.33 1031.31 1527.96 1210.84 1743.15 1162.43
00001616 00000117 1119.03 399.96 706.86 1035.62 1488.11 874.12 1763.91 803.42 1784.08 1033.14 1529.58 1212.84 1745.58 1161.64
00001617 00000118 1119.90 399.00 708.59 1035.32 1492.56 872.76 1769.37 803.92 1787.16 1033.60 1534.42 1213.81 1748.63 1163.82
00001618 00000119 1124.05 396.69 708.21 1038.33 1498.59 870.88 1773.37 801.56 1793.76 1032.54 1537.70 1213.74 1749.55 1163.55
00001619 00000120 1125.63 392.80 704.21 1041.02 1502.29 870.53 1776.30 807.14 1794.88 1032.10 1538.80 1211.16 1751.49 1165.48
00001620 00000121 1127.17 391.24 701.27 1038.64 1506.47 866.60 1787.22 801.17 1796.22 1036.96 1543.61 1213.71 1780.91 1163.32
00001621 00000122 1124.49 394.60 702.26 1037.17 1507.62 868.36 1788.28 802.57 1797.57 1041.37 1545.05 1217.14 1779.25 1166.37
00001622 00000123 1123.81 394.21 703.38 1039.86 1506.25 866.41 1789.53 799.70 1797.94 1043.68 1547.72 1221.63 1777.81 1170.23
00001623 00000124 1118.97 399.52 706.27 1037.38 1504.21 869.21 1789.75 800.25 1802.56 1047.05 1551.15 1228.93 1779.36 1175.68
00001624 00000125 1118.28 402.76 707.51 1036.07 1505.14 871.90 1792.76 802.10 1805.67 1052.24 1554.34 1234.35 1779.55 1180.53
00001625 00000126 1107.65 403.49 714.36 1042.53 1495.52 885.96 1772.31 815.93 1801.02 1054.08 1538.35 1233.61 1739.28 1183.75
00001626 00000127 1104.86 405.59 716.04 1043.59 1494.41 888.25 1772.72 817.26 1802.03 1057.35 1537.73 1236.85 1738.49 1186.48
00001627 00000128 1104.08 408.68 715.66 1041.39 1494.29 889.05 1771.02 817.79 1799.60 1060.05 1538.10 1238.78 1734.88 1188.14
00001628 00000129 1105.94 407.80 712.77 1043.19 1495.00 890.22 1769.43 817.61 1799.58 1060.96 1537.90 1239.98 1732.84 1188.43
00001629 00000130 1106.11 409.59 714.34 1040.91 1494.34 889.72 1769.79 818.29 1798.10 1060.11 1540.26 1239.57 1735.89 1188.53
00001630 00000131 1105.83 409.39 714.67 1041.31 1494.14 889.22 1771.09 818.47 1798.98 1061.38 1539.26 1240.99 1734.51 1190.74
00001631 00000132 1104.81 409.65 715.47 1041.55 1494.68 889.28 1770.99 820.92 1797.31 1061.71 1540.27 1240.68 1734.22 1192.22
00001632 00000133 1102.93 411.15 717.29 1041.38 1494.10 889.23 1770.33 821.50 1797.45 1061.81 1541.02 1241.16 1734.96 1193.10
00001633 00000134 1103.57 411.44 716.61 1040.82 1494.11 888.41 1768.28 821.37 1796.23 1061.13 1541.07 1240.92 1732.42 1193.35
00001634 00000135 1103.80 409.48 715.58 1043.35 1494.21 887.69 1766.52 822.23 1795.60 1060.57 1539.90 1240.47 1729.91 1194.21
00001635 00000136 1112.22 414.16 706.78 1035.10 1504.14 876.35 1788.58 813.44 1800.48 1062.92 1552.31 1244.53 1765.95 1197.19
00001636 00000137 1112.08 418.65 705.58 1032.46 1503.64 873.57 1788.03 814.92 1800.49 1063.07 1555.29 1247.38 1765.88 1203.42
00001637 00000138 1113.13 419.08 704.09 1034.69 1503.86 873.85 1788.74 814.24 1802.19 1062.36 1558.48 1250.06 1768.64 1205.38
00001638 00000139 1111.43 413.80 703.90 1041.14 1504.60 873.00 1785.74 816.80 1804.05 1061.40 1559.03 1249.31 1767.80 1206.93
00001639 00000140 1112.61 403.77 699.60 1048.01 1509.85 882.96 1782.06 824.95 1803.30 1061.98 1559.11 1246.67 1764.81 1203.47
00001640 00000141 1115.48 409.12 699.79 1041.98 1510.80 879.52 1784.74 823.13 1804.17 1060.56 1564.44 1248.42 1767.95 1206.21
00001641 00000142 1117.83 399.85 700.39 1051.68 1510.09 874.39 1787.52 816.40 1806.15 1057.17 1567.64 1247.94 1773.43 1203.77
00001642 00000143 1122.37 402.85 701.50 1050.50 1509.67 872.58 1788.73 813.64 1807.86 1054.90 1572.03 1249.06 1779.00 1203.52
00001643 00000144 1126.58 398.61 702.87 1055.82 1511.87 872.31 1790.90 809.69 1811.33 1053.38 1573.45 1248.46 1780.37 1199.86
00001644 00000145 1126.97 398.29 705.58 1058.16 1512.03 869.66 1792.19 807.56 1811.31 1052.20 1574.35 1248.39 1782.80 1200.10
00001645 00000146 1130.63 401.29 706.79 1056.70 1512.68 870.51 1794.50 806.67 1812.00 1052.62 1575.67 1250.00 1785.70 1200.13
00001646 00000147 1133.15 404.00 706.28 1054.94 1513.44 869.84 1796.05 805.80 1812.91 1052.38 1577.86 1250.92 1788.26 1200.98
00001647 00000148 1135.93 403.91 704.64 1053.55 1513.90 870.52 1797.17 804.63 1813.22 1052.09 1580.31 1251.86 1789.76 1200.31
00001648 00000149 1140.94 408.74 702.04 1048.76 1515.21 870.81 1798.65 803.61 1813.49 1052.48 1580.16 1251.15 1791.75 1198.63
00001649 00000150 1143.08 414.41 702.25 1044.31 1516.90 868.43 1801.43 801.15 1816.67 1051.53 1581.98 1250.92 1794.78 1198.68
00001650 00000151 1150.03 410.46 697.82 1048.44 1521.53 867.86 1802.06 801.87 1815.96 1048.59 1584.55 1248.24 1794.32 1197.19
00001651 00000152 1155.89 410.83 693.47 1048.59 1526.90 866.27 1802.62 802.38 1816.18 1047.78 1586.00 1246.21 1792.29 1197.24
00001652 00000153 1160.09 414.80 690.32 1047.47 1534.59 865.89 1805.92 803.77 1819.79 1050.64 1589.66 1248.26 1790.57 1200.65
00001653 00000154 1164.72 411.45 686.36 1046.01 1538.11 879.01 1804.41 817.27 1819.99 1052.59 1593.34 1245.13 1794.70 1197.96
00001654 00000155 1168.69 408.15 685.96 1051.20 1538.09 877.32 1806.75 815.71 1822.30 1051.08 1592.46 1245.00 1795.64 1197.87
00001655 00000156 1173.07 407.25 684.67 1055.03 1542.97 869.50 1808.22 809.63 1824.29 1049.17 1593.90 1242.80 1793.49 1197.16
00001656 00000157 1176.33 408.10 688.01 1054.63 1546.70 865.27 1814.12 805.60 1828.13 1049.62 1597.79 1243.71 1796.02 1197.98
