Video ID: 	WebgTpW1Ljg
H: 	1080
W: 	1920
FPS: 	25.0

FRAME INDEX X0 Y0 W H [Landmarks (5 Points)]

00001416 00000000 1085.16 252.89 383.72 549.57 1132.14 474.07 1287.36 465.22 1157.05 538.71 1142.35 662.41 1281.13 655.87
00001417 00000001 1083.70 259.36 381.00 557.78 1131.02 479.46 1285.07 470.16 1154.49 548.02 1142.97 671.98 1278.92 665.10
00001418 00000002 1082.62 271.22 383.66 553.25 1129.27 487.10 1283.52 474.81 1152.71 554.19 1142.12 682.33 1275.08 673.06
00001419 00000003 1082.15 269.45 383.16 550.06 1131.96 488.17 1286.36 477.12 1158.71 544.26 1140.24 673.71 1267.24 664.62
00001420 00000004 1086.15 254.26 385.65 553.91 1132.53 484.59 1287.23 471.49 1158.92 542.92 1140.07 669.32 1266.02 658.98
00001421 00000005 1088.20 247.57 387.29 543.13 1131.69 478.82 1293.19 466.10 1164.56 541.94 1137.81 660.39 1272.17 650.55
00001422 00000006 584.97 109.66 267.06 362.85
00001423 00000007 585.43 107.91 267.29 362.76
00001424 00000008 585.90 106.15 267.52 362.67
00001425 00000009 588.97 106.92 267.14 362.33
00001426 00000010 1114.38 243.93 389.44 547.53 1167.99 473.96 1320.29 467.21 1184.07 538.18 1164.50 648.43 1296.06 643.07
00001427 00000011 1124.45 241.09 385.18 553.30 1175.52 471.62 1329.84 460.48 1198.19 534.36 1174.79 649.40 1309.42 640.63
00001428 00000012 1137.35 237.20 385.84 553.02 1173.46 466.49 1335.06 456.41 1201.70 531.92 1175.47 646.25 1314.53 638.66
00001429 00000013 1140.11 237.15 385.09 540.39 1180.71 465.59 1338.06 456.56 1204.17 530.15 1181.37 640.11 1314.76 632.51
00001430 00000014 1144.26 234.26 385.17 538.55 1185.86 460.90 1342.29 456.02 1208.10 527.96 1185.60 637.26 1318.04 632.61
00001431 00000015 607.69 107.65 265.09 359.99
00001432 00000016 610.90 106.47 264.83 359.50
00001433 00000017 614.11 105.29 264.58 359.01
00001434 00000018 1172.80 242.44 374.23 543.75 1219.90 451.17 1362.78 443.15 1238.61 519.07 1229.25 635.17 1359.71 630.29
00001435 00000019 1175.58 237.99 374.93 556.91 1222.40 453.79 1369.78 441.19 1244.75 521.77 1234.22 640.29 1370.95 631.46
00001436 00000020 1176.51 238.00 372.89 545.82 1223.76 454.94 1371.43 442.86 1249.32 519.61 1234.48 631.87 1372.78 623.59
00001437 00000021 623.58 102.72 264.94 357.66
00001438 00000022 625.66 102.27 265.14 357.37
00001439 00000023 627.74 101.81 265.35 357.08
00001440 00000024 628.06 101.15 265.34 356.42
00001441 00000025 628.38 100.50 265.34 355.75
00001442 DELETE   628.70 99.84 265.33 355.08
00001443 00000027 629.02 99.18 265.33 354.41
00001444 00000028 1173.00 241.60 374.16 520.31 1225.06 464.34 1381.46 438.87 1264.79 513.00 1240.09 629.22 1385.27 610.01
00001445 00000029 628.76 99.27 265.04 353.42
00001446 00000030 628.18 100.00 264.75 353.10
00001447 00000031 627.60 100.74 264.46 352.78
00001448 00000032 627.02 101.48 264.17 352.46
00001449 00000033 626.44 102.22 263.88 352.14
00001450 00000034 625.73 102.62 263.73 352.02
00001451 00000035 625.02 103.03 263.57 351.89
00001452 00000036 624.30 103.44 263.41 351.77
00001453 00000037 1136.28 237.68 385.13 522.87 1175.56 470.10 1333.84 459.23 1206.53 526.41 1174.57 637.37 1304.38 628.52
00001454 00000038 622.87 104.26 263.10 351.53
00001455 00000039 622.30 104.90 263.00 351.78
00001456 00000040 1135.50 226.46 378.24 538.50 1178.60 462.01 1339.50 453.76 1211.66 520.90 1182.38 635.23 1309.51 628.20
00001457 00000041 621.15 106.18 262.81 352.29
00001458 00000042 620.58 106.82 262.71 352.54
00001459 00000043 620.01 107.46 262.62 352.79
00001460 00000044 616.25 107.73 262.66 352.83
00001461 DELETE   612.50 107.99 262.71 352.88
00001462 00000046 608.75 108.26 262.76 352.92
00001463 00000047 604.99 108.53 262.81 352.96
00001464 00000048 601.24 108.80 262.86 353.01
00001465 00000049 596.73 111.51 262.82 352.57
00001466 00000050 592.22 114.23 262.79 352.13
00001467 DELETE   587.71 116.95 262.75 351.68
00001468 DELETE   583.20 119.67 262.72 351.24
00001469 DELETE   1002.22 295.75 379.81 531.88 1045.57 520.54 1203.60 517.02 1077.51 588.19 1052.11 694.19 1186.79 690.52
00001470 00000054 569.97 126.86 263.16 351.65
00001471 DELETE   561.25 131.33 263.64 352.50
00001472 00000056 552.53 135.80 264.12 353.35
00001473 00000057 543.81 140.27 264.60 354.20
00001474 00000058 941.35 329.72 383.06 553.65 985.46 570.38 1140.32 553.73 1024.19 640.13 1009.75 757.39 1137.83 743.55
00001475 00000059 932.98 337.36 384.24 545.76 976.26 573.81 1130.64 559.30 1015.55 640.96 1000.83 754.99 1127.83 742.53
00001476 00000060 929.87 341.90 383.16 540.79 973.47 575.13 1125.73 559.17 1014.31 636.32 994.53 752.55 1119.07 738.93
00001477 00000061 927.27 335.79 384.24 544.27 969.90 574.33 1123.35 556.60 1010.78 634.28 990.34 752.29 1115.26 737.43
00001478 00000062 925.38 329.81 379.76 545.03 965.47 575.14 1118.05 555.18 1002.10 633.06 983.42 753.68 1107.75 737.22
00001479 00000063 922.11 331.66 380.11 541.67 962.21 573.96 1113.07 554.94 993.47 631.91 975.73 751.56 1099.52 736.07
00001480 00000064 920.96 334.14 378.66 538.07 959.25 573.62 1108.93 555.34 987.57 629.80 970.98 750.31 1091.11 735.30
00001481 00000065 919.24 332.82 379.92 537.45 959.39 570.43 1109.95 554.20 987.36 628.07 969.21 748.36 1087.34 735.33
00001482 00000066 498.50 157.48 266.15 356.60
00001483 00000067 495.59 157.78 266.44 356.87
00001484 00000068 492.69 158.09 266.72 357.13
00001485 00000069 492.76 157.22 266.10 357.68
00001486 00000070 492.83 156.34 265.49 358.23
00001487 00000071 492.90 155.47 264.87 358.78
00001488 00000072 492.98 154.60 264.25 359.33
00001489 00000073 493.05 153.73 263.63 359.89
00001490 00000074 494.45 152.54 262.86 359.38
00001491 00000075 495.85 151.36 262.09 358.88
00001492 00000076 497.25 150.17 261.32 358.37
00001493 00000077 498.65 148.98 260.55 357.87
00001494 00000078 500.06 147.79 259.78 357.37
00001495 00000079 503.73 147.57 259.32 356.83
00001496 00000080 507.41 147.35 258.86 356.30
00001497 00000081 985.40 263.25 376.26 567.22 1027.03 501.25 1165.71 491.53 1038.27 563.21 1033.74 691.83 1148.46 682.98
00001498 00000082 986.25 287.90 376.29 533.23 1026.07 506.32 1168.20 500.07 1040.13 571.21 1033.69 682.62 1152.35 676.06
00001499 00000083 996.46 286.56 371.31 532.12 1036.78 512.35 1184.54 504.92 1060.33 576.86 1044.66 686.33 1169.37 679.21
00001500 00000084 1001.30 284.74 377.35 523.24 1048.23 504.91 1207.87 496.12 1082.51 571.27 1056.82 680.98 1190.45 674.53
00001501 DELETE   1014.82 277.15 364.49 521.13 1062.99 494.99 1224.66 492.56 1098.66 565.19 1068.49 669.74 1204.59 670.42
00001502 DELETE   1027.92 266.45 363.71 531.22 1085.82 485.97 1255.93 492.00 1130.78 554.26 1084.27 656.77 1230.19 664.65
00001503 00000087 1038.39 262.86 362.51 534.37 1106.73 476.88 1271.94 491.68 1152.12 557.70 1097.07 647.84 1240.90 663.06
00001504 00000088 1040.86 256.86 373.10 536.50 1120.47 474.94 1287.04 499.04 1169.27 562.58 1106.63 648.99 1250.10 670.51
00001505 00000089 1040.15 270.57 375.48 532.38 1127.77 482.43 1298.19 508.67 1179.72 567.88 1114.03 657.54 1256.60 681.41
00001506 00000090 1043.39 266.11 371.59 548.66 1125.71 492.65 1303.23 514.31 1181.66 573.49 1114.75 673.69 1260.15 693.93
00001507 00000091 1039.40 268.77 381.39 556.76 1124.81 495.23 1306.33 519.96 1180.49 581.01 1110.56 681.59 1258.76 704.48
00001508 00000092 1038.93 273.33 374.90 549.52 1119.31 490.80 1298.27 523.88 1171.87 577.25 1100.83 674.22 1247.89 704.12
00001509 00000093 1034.38 267.83 378.60 540.20 1117.21 481.53 1285.83 514.14 1156.50 564.34 1094.81 662.27 1226.89 692.06
00001510 00000094 1029.90 270.23 370.00 526.90 1114.32 472.52 1273.60 508.26 1144.30 546.17 1080.24 647.55 1203.85 680.62
00001511 00000095 1020.25 270.49 378.79 515.73 1104.38 467.63 1259.26 500.88 1134.15 535.05 1068.15 638.04 1188.00 668.47
00001512 00000096 1008.59 251.52 390.44 533.91 1093.05 464.58 1251.95 500.85 1124.11 526.75 1055.63 637.30 1175.31 668.16
00001513 00000097 1002.39 259.36 393.80 528.53 1086.61 464.73 1249.28 505.92 1117.55 528.98 1049.21 640.30 1179.81 674.57
00001514 00000098 992.60 267.71 393.16 535.32 1087.47 470.14 1249.54 517.72 1114.24 554.34 1044.80 650.48 1172.69 690.67
00001515 00000099 993.29 266.79 386.62 554.05 1091.65 485.05 1259.72 535.22 1131.17 579.96 1047.55 665.42 1188.05 707.28
00001516 00000100 997.20 271.47 399.63 572.09 1089.71 504.49 1268.55 556.52 1132.26 606.67 1052.05 686.30 1197.64 730.39
00001517 00000101 994.90 292.45 390.78 577.78 1086.37 527.84 1261.09 571.73 1133.63 628.43 1052.00 709.98 1197.31 749.54
00001518 00000102 988.43 313.33 395.54 575.45 1082.46 528.71 1258.93 577.64 1126.23 632.32 1048.78 722.91 1200.21 762.79
00001519 00000103 978.50 321.72 388.82 570.60 1064.42 540.24 1247.05 576.10 1111.57 640.72 1043.57 731.57 1198.72 762.06
00001520 00000104 973.78 322.91 391.66 561.60 1057.62 535.46 1239.61 575.03 1097.67 640.44 1033.96 725.53 1189.16 758.68
00001521 00000105 973.22 307.85 394.94 565.51 1050.53 530.64 1233.89 570.17 1086.44 635.39 1025.42 718.71 1184.10 751.11
00001522 00000106 973.91 297.75 394.05 568.50 1047.18 527.57 1229.86 564.18 1083.15 630.96 1024.70 714.82 1184.80 744.22
00001523 00000107 976.79 305.00 392.13 552.27 1045.40 528.55 1229.86 561.44 1081.78 626.22 1025.73 713.64 1184.99 740.08
00001524 00000108 977.52 300.79 389.13 556.47 1045.38 528.23 1228.53 561.71 1082.53 629.93 1027.61 714.27 1185.60 741.30
00001525 00000109 975.43 295.45 406.22 571.65 1058.09 532.56 1229.82 571.50 1095.31 629.19 1035.48 712.02 1172.40 744.79
00001526 00000110 984.22 301.91 387.88 569.35 1058.86 522.24 1230.64 567.45 1096.16 627.43 1029.33 715.99 1166.13 752.95
00001527 00000111 989.79 296.08 387.85 571.12 1055.87 518.59 1231.01 563.63 1094.50 624.73 1032.71 715.97 1169.46 753.49
00001528 00000112 1000.63 289.45 389.53 565.66 1072.96 522.73 1236.69 559.36 1103.34 611.86 1048.13 705.35 1173.53 736.28
00001529 00000113 1006.06 283.69 392.41 561.77 1082.88 511.28 1249.95 556.24 1114.30 606.52 1052.21 692.55 1183.20 729.79
00001530 00000114 1012.32 284.16 397.28 561.02 1082.45 511.82 1256.91 553.19 1116.70 600.35 1056.05 695.82 1187.74 730.13
00001531 00000115 1017.10 280.61 398.01 569.77 1085.49 508.74 1264.12 550.23 1122.87 601.67 1058.89 697.78 1198.03 731.77
00001532 00000116 1018.55 281.45 392.27 573.52 1089.50 506.21 1268.88 548.82 1127.37 602.78 1059.91 694.15 1205.91 729.47
00001533 00000117 1027.22 271.93 392.54 581.99 1099.70 502.89 1267.09 545.82 1134.91 604.98 1076.06 692.58 1219.71 728.07
00001534 00000118 1022.74 287.66 395.94 560.09 1095.69 501.77 1276.02 549.14 1134.90 602.43 1064.74 688.98 1210.20 727.81
00001535 00000119 1025.36 290.37 394.19 547.62 1098.19 499.19 1277.26 542.17 1136.85 598.91 1073.18 688.36 1208.85 723.50
00001536 00000120 1037.81 274.15 389.92 554.92 1105.95 490.90 1286.72 533.73 1149.39 595.78 1080.06 685.15 1220.09 722.56
00001537 00000121 552.10 149.23 264.61 352.32
00001538 00000122 554.37 147.05 264.89 351.75
00001539 00000123 556.63 144.88 265.16 351.18
00001540 00000124 558.09 143.75 265.16 350.63
00001541 00000125 559.55 142.62 265.17 350.08
00001542 00000126 561.01 141.49 265.17 349.53
00001543 00000127 562.46 140.36 265.17 348.99
00001544 00000128 563.92 139.22 265.18 348.44
00001545 00000129 565.26 137.82 264.86 348.65
00001546 00000130 566.60 136.42 264.54 348.87
00001547 00000131 567.94 135.02 264.23 349.08
00001548 00000132 569.28 133.61 263.91 349.30
00001549 00000133 570.62 132.21 263.59 349.51
00001550 00000134 572.16 130.64 262.96 349.11
00001551 00000135 573.70 129.06 262.33 348.71
00001552 00000136 575.23 127.49 261.70 348.31
00001553 00000137 576.77 125.92 261.07 347.91
00001554 00000138 578.31 124.35 260.44 347.51
00001555 00000139 580.37 121.35 260.30 347.77
00001556 00000140 582.43 118.36 260.17 348.02
00001557 00000141 584.49 115.37 260.03 348.28
00001558 00000142 586.55 112.38 259.90 348.53
00001559 00000143 588.61 109.38 259.76 348.79
00001560 00000144 590.07 108.02 259.65 348.34
00001561 00000145 591.53 106.65 259.54 347.89
00001562 00000146 592.99 105.28 259.43 347.44
00001563 00000147 594.45 103.92 259.32 346.99
00001564 00000148 595.91 102.55 259.21 346.54
00001565 00000149 595.96 103.09 259.07 346.53
00001566 00000150 596.02 103.63 258.93 346.52
00001567 00000151 596.08 104.18 258.79 346.51
00001568 00000152 596.13 104.72 258.65 346.49
00001569 00000153 596.19 105.26 258.51 346.48
00001570 00000154 595.85 108.06 258.28 346.32
00001571 00000155 595.51 110.86 258.04 346.15
00001572 00000156 595.17 113.65 257.81 345.99
00001573 00000157 1098.39 258.80 363.98 539.96 1187.52 484.50 1363.46 485.76 1270.92 560.97 1204.66 663.29 1357.41 665.37
00001574 00000158 1096.04 260.35 371.58 542.89 1192.49 487.26 1372.31 492.18 1280.43 568.47 1209.58 667.11 1365.47 671.81
00001575 00000159 1094.17 268.69 368.94 538.89 1193.91 494.10 1373.90 497.80 1285.29 574.76 1211.17 670.98 1368.49 674.55
CROP_BBOX: 768 0 1700 1025
