Video ID: 	trRXmGjl6I4
H: 	1080
W: 	1920
FPS: 	25.0

FRAME INDEX X0 Y0 W H [Landmarks (5 Points)]

00007553 00000000 869.10 151.06 493.03 756.38 923.44 407.91 1135.64 445.12 944.51 601.93 918.51 713.50 1099.40 746.00
00007554 00000001 861.82 162.26 479.13 745.70 919.00 405.54 1130.39 444.96 938.62 606.19 912.52 715.64 1085.13 750.17
00007555 00000002 858.51 157.56 480.46 749.83 917.60 400.14 1125.97 448.57 929.04 604.67 909.29 712.79 1078.21 754.44
00007556 00000003 861.05 165.18 487.14 736.92 915.04 398.49 1120.95 450.80 925.04 602.83 906.16 711.05 1068.93 755.84
00007557 DELETE   859.89 165.61 482.41 738.34 914.08 398.10 1116.03 452.50 919.62 603.44 905.40 714.67 1062.08 760.95
00007558 DELETE   858.78 165.90 480.82 742.36 914.50 399.26 1115.26 451.47 919.07 602.60 904.84 717.49 1058.32 761.81
00007559 00000006 857.53 164.70 482.41 748.24 915.64 401.14 1114.41 453.67 916.23 603.01 906.51 713.64 1064.70 757.62
00007560 00000007 859.99 168.27 488.85 743.88 915.42 401.87 1113.90 455.43 917.55 605.50 908.10 710.75 1069.00 755.38
00007561 00000008 860.35 164.00 486.18 748.54 918.05 401.46 1113.99 455.83 916.73 602.17 907.35 707.87 1069.30 753.18
00007562 00000009 863.08 162.95 474.96 747.87 919.12 401.03 1115.70 455.03 919.40 603.54 909.02 708.44 1070.07 753.21
00007563 00000010 862.13 158.99 478.86 748.47 917.14 400.59 1115.29 457.04 916.96 603.73 905.44 706.42 1070.86 753.30
00007564 00000011 864.70 170.53 476.91 735.22 922.01 405.53 1115.05 462.50 924.05 602.74 914.83 705.46 1072.49 751.39
00007565 00000012 866.09 169.50 476.88 736.63 923.53 405.39 1117.58 462.55 925.60 599.21 913.15 705.46 1069.72 751.83
00007566 00000013 865.92 162.69 475.96 743.88 921.02 400.23 1116.70 455.96 922.43 597.52 906.38 707.45 1063.65 754.35
00007567 00000014 864.65 160.72 480.35 747.47 920.79 398.98 1115.39 456.00 920.86 599.04 906.48 708.80 1060.37 757.04
00007568 00000015 865.31 162.60 473.56 748.81 922.39 399.62 1114.92 456.85 922.17 600.77 909.91 711.81 1062.33 759.89
00007569 00000016 863.46 164.00 477.61 752.45 924.47 399.97 1114.66 457.12 920.41 598.88 909.44 710.57 1060.28 758.41
00007570 00000017 861.90 164.23 473.46 746.56 925.49 396.58 1115.95 459.09 923.26 598.06 906.57 706.55 1053.48 759.35
00007571 00000018 863.30 165.55 474.55 739.10 923.05 396.84 1116.09 460.41 921.33 600.39 902.40 704.70 1049.60 758.53
00007572 00000019 861.21 165.29 473.49 739.86 922.29 396.01 1117.75 461.78 922.39 603.46 901.47 705.29 1049.92 761.11
00007573 00000020 863.06 165.37 482.30 744.33 923.20 399.24 1118.08 461.31 924.41 601.38 905.82 706.45 1055.47 759.31
00007574 00000021 866.50 166.13 484.89 751.26 925.40 403.58 1118.91 461.63 925.96 603.63 911.69 707.98 1066.19 756.48
00007575 00000022 870.07 167.22 479.59 754.33 927.54 400.35 1120.32 460.14 926.63 604.12 915.37 708.17 1068.30 757.85
00007576 00000023 867.77 161.78 479.64 768.69 928.12 400.24 1119.66 461.79 927.62 603.11 915.41 709.08 1070.57 759.87
00007577 00000024 865.32 161.85 473.22 777.75 931.50 402.71 1120.08 461.89 928.71 603.70 917.24 714.54 1070.89 763.16
00007578 00000025 861.20 164.65 477.77 773.16 929.35 401.58 1118.85 463.27 925.20 605.98 914.52 713.51 1068.98 764.03
00007579 00000026 862.93 165.89 479.53 750.19 922.07 400.15 1117.34 462.84 920.92 605.71 902.06 713.72 1057.01 765.87
00007580 00000027 863.02 165.90 475.67 741.65 922.20 398.38 1116.07 463.40 922.00 602.66 901.64 710.28 1049.31 765.35
00007581 00000028 863.84 166.95 478.71 740.67 920.91 396.41 1115.60 462.84 919.74 602.69 901.17 705.77 1052.26 761.72
00007582 00000029 864.55 165.22 479.01 743.68 921.47 398.96 1115.62 463.42 918.97 600.72 903.74 703.02 1059.25 756.86
00007583 00000030 869.25 171.37 478.36 733.28 926.35 400.76 1116.15 469.00 922.57 603.40 909.96 697.94 1065.32 753.17
00007584 00000031 871.14 169.94 478.91 735.58 927.47 402.15 1116.86 468.54 926.03 601.33 913.88 698.73 1069.34 752.45
00007585 00000032 871.49 169.98 485.01 738.09 927.61 404.08 1117.18 467.67 926.27 601.87 917.31 700.01 1076.58 751.55
00007586 00000033 873.45 169.81 485.24 745.43 928.69 405.37 1119.27 467.40 926.96 599.48 918.12 704.10 1078.63 754.44
00007587 00000034 874.98 159.84 479.33 761.58 927.31 402.69 1122.56 460.50 928.13 605.32 917.36 708.02 1080.54 755.44
00007588 00000035 878.61 159.22 478.85 759.30 929.31 404.41 1125.38 462.17 932.15 605.61 918.49 708.79 1081.27 756.78
00007589 00000036 881.90 171.21 479.96 745.01 935.04 408.12 1124.41 470.65 932.04 605.56 924.23 710.44 1079.17 761.96
00007590 00000037 883.46 169.15 478.08 744.65 935.37 407.10 1127.13 470.59 935.68 607.05 924.43 710.14 1079.90 762.84
00007591 00000038 881.42 162.50 485.26 754.77 933.10 405.70 1128.91 465.94 933.95 608.86 921.67 708.04 1084.99 757.84
00007592 00000039 885.41 167.12 477.26 748.95 936.99 408.46 1128.40 471.35 935.92 609.57 926.60 711.47 1082.75 763.56
00007593 00000040 885.02 166.42 480.33 751.90 936.86 409.79 1128.03 470.23 934.42 608.46 929.21 712.66 1085.54 762.76
00007594 00000041 882.95 162.45 481.81 753.82 932.21 407.64 1127.95 462.18 935.44 610.72 925.83 710.23 1089.00 755.34
00007595 00000042 878.85 161.05 484.30 754.67 928.45 407.60 1126.87 460.43 934.30 611.02 923.50 711.82 1087.88 755.66
00007596 00000043 881.85 166.76 486.31 745.94 929.32 410.42 1123.04 467.47 932.12 611.60 926.70 712.85 1086.30 759.82
00007597 00000044 881.79 172.61 486.24 741.02 930.49 410.35 1122.88 468.90 929.56 613.36 926.23 711.28 1085.85 759.35
00007598 00000045 882.48 166.38 486.80 746.52 929.74 412.29 1127.21 469.24 936.84 616.52 928.26 713.16 1090.55 760.32
00007599 00000046 891.90 170.58 472.58 743.44 935.04 418.54 1136.67 470.97 947.24 617.81 935.48 719.42 1099.64 763.45
00007600 DELETE   903.05 175.50 482.11 745.22 946.56 417.98 1155.19 474.33 960.69 623.01 943.60 722.45 1110.49 769.96
00007601 00000048 904.53 183.60 489.98 736.77 966.82 414.56 1173.07 484.52 974.04 621.81 953.02 709.99 1126.86 765.52
00007602 DELETE   914.85 164.28 494.66 755.23 983.53 404.89 1195.52 478.59 987.02 611.55 959.78 703.28 1135.79 764.41
00007603 00000050 924.17 160.55 491.08 759.32 994.45 401.72 1202.94 479.46 995.02 604.83 963.91 696.97 1136.90 761.77
00007604 00000051 925.46 145.20 495.32 772.90 996.19 402.84 1206.04 477.11 997.37 600.88 964.51 695.99 1140.79 758.33
00007605 00000052 926.24 145.50 499.81 775.57 997.31 402.66 1206.93 477.36 996.74 598.74 965.17 695.24 1141.36 757.99
00007606 DELETE   927.29 146.70 498.84 771.91 997.79 401.26 1207.61 480.39 995.32 599.35 964.15 692.97 1141.08 759.12
00007607 00000054 925.83 151.15 500.48 765.59 996.55 400.55 1206.31 481.58 994.11 601.39 963.10 693.52 1138.59 761.31
00007608 00000055 924.11 150.37 502.59 769.79 995.39 402.90 1204.37 480.76 994.03 601.60 963.15 697.98 1137.91 763.26
00007609 00000056 923.62 147.60 501.38 775.94 995.86 403.53 1204.03 479.36 994.53 599.61 963.95 700.54 1137.65 764.14
00007610 00000057 923.14 155.27 498.12 764.38 993.00 404.83 1201.96 480.67 993.69 603.44 962.29 704.27 1137.06 767.70
00007611 00000058 923.85 159.88 498.17 762.33 994.96 406.32 1200.74 481.52 994.59 601.94 963.43 708.18 1132.52 771.47
00007612 00000059 923.05 163.87 494.08 761.19 996.64 406.66 1201.10 481.47 998.04 602.36 963.04 711.40 1127.69 774.58
00007613 00000060 922.15 167.12 499.93 760.92 996.89 405.99 1199.86 480.26 997.21 602.12 962.49 712.65 1121.46 775.56
00007614 00000061 923.57 175.71 495.09 739.22 995.49 408.08 1194.44 482.15 995.92 605.12 961.70 711.14 1109.07 774.29
00007615 00000062 921.02 169.59 490.17 743.86 993.94 408.02 1193.28 484.05 992.88 608.12 958.81 710.12 1108.78 774.75
00007616 00000063 914.05 158.44 498.16 762.94 989.25 414.19 1188.71 481.78 992.29 614.10 964.77 719.07 1112.56 776.81
00007617 00000064 908.56 159.38 504.39 776.46 980.81 424.93 1186.98 486.31 990.34 620.56 962.82 728.59 1127.25 780.38
00007618 DELETE   906.55 157.49 505.38 775.54 974.66 426.17 1182.37 484.70 984.63 622.98 957.25 730.57 1123.02 780.08
00007619 DELETE   900.89 157.13 498.02 771.07 971.79 427.96 1179.33 485.35 984.52 623.32 953.53 727.80 1115.73 776.81
00007620 DELETE   900.10 173.34 491.07 755.24 971.12 428.03 1179.25 484.40 989.96 625.47 952.32 734.41 1108.39 782.96
00007621 00000068 908.02 187.95 472.94 739.55 956.92 432.65 1169.18 482.13 983.79 626.34 947.08 739.94 1099.80 783.43
00007622 DELETE   903.52 194.62 473.52 732.51 951.23 434.17 1163.84 483.01 978.19 632.85 944.70 744.09 1099.30 786.76
00007623 00000070 901.48 186.79 478.61 751.21 947.41 439.32 1158.91 487.03 972.75 641.44 948.50 751.72 1104.93 793.39
00007624 00000071 902.60 189.66 466.77 751.45 946.79 442.31 1153.68 490.87 970.22 646.78 948.83 755.10 1101.62 798.08
00007625 DELETE   895.02 180.48 477.55 768.29 942.84 445.67 1149.21 500.25 960.05 650.14 943.43 755.31 1096.48 802.64
00007626 DELETE   880.53 161.97 509.25 798.94 946.54 459.13 1150.20 506.26 960.22 669.27 947.47 770.32 1104.61 809.06
00007627 00000074 885.83 176.81 499.42 773.25 929.13 471.97 1147.59 515.55 956.21 666.12 925.44 774.82 1090.37 812.98
00007628 00000075 884.05 177.75 488.46 778.58 924.02 480.09 1141.75 523.74 955.97 675.20 926.18 778.81 1099.46 816.56
00007629 00000076 884.68 171.64 494.78 783.26 928.44 473.04 1146.95 524.99 957.02 672.77 927.64 773.10 1098.61 817.49
00007630 DELETE   882.28 194.84 488.84 755.27 928.28 463.58 1141.68 516.19 955.32 667.63 928.32 764.57 1095.75 809.48
00007631 DELETE   880.72 175.98 492.69 768.53 928.61 451.47 1142.51 505.58 953.33 657.73 925.58 758.00 1091.23 803.89
00007632 00000079 884.79 150.34 496.59 781.76 931.63 440.20 1145.45 497.79 952.09 646.66 925.44 745.86 1093.87 794.04
00007633 DELETE   888.00 160.77 481.16 768.77 934.50 432.08 1142.99 495.02 951.09 637.24 926.06 736.51 1092.78 789.71
00007634 00000081 884.01 154.01 493.60 764.53 947.03 423.91 1156.65 490.40 959.61 630.75 934.44 725.81 1102.36 781.68
00007635 00000082 885.34 161.67 500.46 756.61 949.77 415.04 1160.28 484.56 959.54 620.74 933.74 718.34 1102.56 776.95
00007636 00000083 887.53 159.53 497.59 761.91 954.52 411.77 1161.13 482.93 960.44 615.49 936.64 714.98 1101.45 774.96
00007637 00000084 892.69 151.50 496.47 765.28 957.05 407.86 1164.23 479.27 960.56 610.64 936.96 711.57 1100.30 772.07
00007638 00000085 898.22 151.80 492.56 764.55 964.11 404.74 1168.14 477.92 964.53 605.17 942.48 706.80 1102.88 768.58
00007639 00000086 905.76 150.36 484.42 758.37 969.68 398.49 1174.09 476.19 968.36 599.23 943.16 700.97 1102.76 766.62
00007640 00000087 913.49 149.94 480.97 757.28 977.96 399.14 1180.01 476.97 975.91 598.08 949.93 698.73 1107.41 764.38
00007641 00000088 915.42 149.02 485.54 758.17 980.51 397.11 1186.15 475.67 981.12 598.41 951.63 698.81 1113.21 765.08
00007642 00000089 917.32 152.18 493.13 757.62 982.10 397.38 1188.13 475.04 980.42 599.38 954.97 697.01 1120.31 762.14
00007643 00000090 922.43 161.82 490.81 747.72 986.00 396.81 1193.10 475.22 985.42 599.83 957.70 697.25 1124.48 762.92
00007644 00000091 925.40 167.71 488.73 747.83 989.40 399.83 1195.54 477.07 987.65 601.92 962.10 698.82 1129.90 763.20
00007645 00000092 925.59 165.33 494.75 747.44 988.38 402.63 1197.02 476.80 988.62 604.67 963.98 701.95 1136.03 763.92
00007646 00000093 929.53 162.97 487.98 754.51 993.02 403.60 1200.50 477.03 994.87 607.68 968.55 702.53 1142.90 763.68
00007647 00000094 927.55 164.90 493.48 754.18 989.78 406.97 1199.98 477.15 995.00 613.94 968.33 706.79 1144.64 765.45
00007648 00000095 925.90 169.03 498.86 751.68 988.74 409.35 1200.35 477.07 997.27 619.05 971.69 710.27 1146.81 766.83
00007649 00000096 922.65 172.57 499.13 750.06 985.93 408.98 1199.48 476.07 997.36 622.74 970.76 715.15 1146.93 771.39
00007650 00000097 920.32 171.96 501.87 751.90 985.38 413.14 1196.56 476.89 996.35 623.22 973.74 717.20 1147.01 770.65
00007651 00000098 916.04 165.99 507.33 760.64 982.13 425.94 1188.48 485.21 991.93 631.91 975.79 722.40 1149.17 771.71
00007652 00000099 911.73 155.69 508.91 775.20 978.36 427.91 1185.25 485.78 989.41 633.46 973.22 726.12 1146.22 774.09
00007653 00000100 908.02 167.73 514.93 765.40 976.37 430.08 1182.23 487.18 986.32 631.67 968.53 725.05 1142.93 772.41
00007654 00000101 907.81 169.00 514.62 766.57 973.41 433.46 1178.90 488.10 984.64 635.30 969.28 730.31 1145.60 775.43
00007655 00000102 906.32 181.57 497.82 762.88 968.81 444.70 1171.16 490.04 983.99 645.20 971.05 743.22 1148.76 779.90
00007656 00000103 898.16 196.51 499.17 757.98 961.82 465.16 1167.04 502.64 987.35 662.88 973.31 760.96 1150.84 791.45
00007657 DELETE   884.80 197.03 510.17 770.86 951.62 483.55 1160.31 531.60 975.45 679.55 971.26 760.83 1145.93 798.67
00007658 00000105 881.30 220.57 521.07 764.38 940.43 502.67 1155.48 542.06 971.71 706.92 969.23 788.37 1146.42 818.13
00007659 00000106 884.80 251.62 498.78 726.51 936.25 504.98 1144.90 541.60 966.54 711.23 962.92 800.68 1139.02 830.51
00007660 00000107 883.21 242.49 491.26 737.86 933.98 505.16 1143.63 543.67 963.96 713.68 956.94 799.32 1137.92 830.82
00007661 00000108 879.61 237.86 492.06 739.57 929.73 504.64 1142.82 544.49 961.83 717.15 952.71 801.00 1131.70 834.05
00007662 00000109 876.72 243.23 493.44 737.17 928.77 506.20 1143.00 544.09 962.39 719.35 952.79 803.22 1131.96 834.66
00007663 00000110 872.00 246.51 490.09 736.22 927.01 510.31 1139.94 545.85 963.68 721.43 955.60 807.31 1129.73 836.85
00007664 00000111 868.33 256.34 496.09 729.61 927.06 517.85 1142.03 552.00 967.55 726.52 959.37 811.81 1134.13 839.98
00007665 00000112 876.06 253.96 495.97 734.11 929.76 519.81 1140.53 559.32 963.73 733.12 960.76 813.34 1139.13 845.59
00007666 00000113 873.54 247.97 499.21 737.69 928.58 525.22 1141.86 561.53 965.61 736.81 962.52 815.80 1139.96 845.74
00007667 00000114 875.31 252.20 502.76 728.87 929.24 521.89 1144.02 560.86 966.74 735.14 960.72 812.87 1140.31 844.95
00007668 00000115 871.80 251.31 502.51 734.94 930.94 517.37 1143.78 558.38 966.16 729.15 959.55 808.66 1137.98 843.00
00007669 00000116 873.98 252.65 490.75 730.51 930.04 513.90 1145.43 552.07 970.96 726.55 957.47 809.02 1137.30 840.59
00007670 00000117 875.63 239.05 489.01 735.51 928.83 508.28 1153.95 544.37 975.66 720.18 952.21 804.67 1136.92 835.07
00007671 00000118 881.04 234.16 484.45 740.56 936.68 503.81 1162.51 542.90 980.97 713.39 953.80 795.42 1144.04 828.27
00007672 00000119 887.85 241.65 480.42 732.39 942.57 500.52 1168.26 540.93 985.58 713.57 960.95 794.91 1147.96 828.70
00007673 00000120 890.94 239.60 487.68 736.32 947.99 495.62 1174.09 538.90 990.69 710.96 963.88 791.48 1150.88 827.64
00007674 00000121 895.51 230.26 494.73 749.65 952.27 494.93 1177.71 534.75 993.86 706.90 968.43 791.28 1157.58 824.17
00007675 00000122 887.07 226.97 510.34 752.62 952.48 494.93 1182.23 540.68 993.06 706.39 971.19 783.86 1157.99 819.26
00007676 00000123 887.74 223.23 503.53 755.59 954.60 491.53 1186.61 535.46 998.23 701.18 970.70 782.88 1157.35 816.77
00007677 00000124 889.49 226.54 506.10 749.44 953.71 489.81 1183.83 532.60 996.12 699.45 972.02 781.54 1158.01 814.15
00007678 00000125 890.59 230.62 505.61 738.16 953.01 489.91 1186.30 531.74 997.92 699.11 972.65 779.31 1160.72 811.36
00007679 00000126 893.46 227.54 509.38 749.21 954.75 486.78 1187.60 530.81 996.16 698.29 974.37 778.54 1165.45 812.31
00007680 00000127 895.87 227.66 506.95 750.62 956.09 487.32 1190.80 531.68 999.27 699.98 974.64 779.65 1166.52 813.82
00007681 00000128 895.06 227.33 503.45 745.85 957.57 486.83 1193.31 532.05 1002.35 700.61 975.21 777.98 1166.24 813.01
00007682 00000129 894.82 233.63 507.44 742.18 957.27 485.07 1192.46 531.78 999.86 699.17 974.62 775.57 1167.96 811.98
00007683 00000130 893.92 235.47 505.17 738.26 955.70 483.42 1188.28 529.79 998.22 696.88 972.25 775.29 1162.27 810.98
00007684 00000131 895.75 219.92 488.56 744.29 952.38 477.60 1181.33 524.08 995.84 691.36 964.52 771.32 1156.73 809.60
00007685 00000132 894.38 225.34 492.78 736.55 947.03 476.84 1174.62 522.31 990.15 687.68 958.56 770.68 1148.28 808.42
00007686 00000133 887.87 201.11 488.92 759.24 941.85 471.56 1169.71 519.45 979.01 682.60 947.81 767.34 1143.77 806.74
00007687 00000134 886.73 215.20 487.37 734.19 938.36 470.84 1166.90 515.05 979.31 679.85 946.32 763.50 1141.97 799.91
00007688 00000135 886.81 228.13 481.64 718.00 940.41 466.02 1164.32 510.06 970.68 671.54 947.02 757.15 1131.72 793.89
00007689 00000136 889.56 215.29 479.69 728.08 938.75 461.84 1162.58 505.45 970.68 669.12 946.43 757.19 1128.14 793.97
00007690 00000137 892.31 220.00 476.82 724.99 941.32 460.56 1158.95 503.88 968.27 665.79 950.42 753.72 1130.45 790.59
00007691 00000138 890.31 224.96 478.34 717.30 939.94 461.21 1155.89 507.02 964.83 665.65 948.79 753.71 1125.98 792.95
00007692 00000139 889.98 215.84 484.18 728.11 941.81 465.25 1150.46 507.21 961.96 659.73 952.27 754.59 1128.01 790.53
00007693 00000140 889.92 194.84 494.36 748.98 934.48 468.23 1149.65 509.38 961.81 668.96 948.02 759.72 1134.58 792.90
00007694 00000141 884.87 202.28 498.62 747.49 942.39 468.67 1146.24 513.65 962.88 671.45 958.97 750.43 1139.43 783.61
00007695 00000142 889.40 184.20 502.86 763.82 937.72 463.25 1153.85 507.34 962.50 666.67 946.85 758.85 1128.64 794.98
00007696 00000143 888.04 187.97 500.71 760.87 935.32 460.70 1149.52 505.18 962.40 664.32 946.69 757.81 1129.35 793.90
00007697 00000144 892.04 197.73 482.87 749.27 940.87 458.70 1149.24 503.43 960.85 659.49 951.62 755.05 1121.64 794.48
00007698 00000145 892.26 213.36 482.28 731.08 941.13 462.35 1157.27 506.18 966.81 665.59 950.78 758.81 1123.81 796.67
00007699 00000146 894.39 206.26 481.12 743.48 943.07 467.64 1167.09 512.98 979.41 675.10 951.55 764.24 1138.74 801.84
00007700 00000147 900.96 224.78 494.74 734.79 953.86 472.40 1183.80 521.40 993.90 691.70 968.33 770.24 1158.50 810.31
00007701 00000148 901.49 233.35 499.25 731.44 965.20 481.20 1199.28 530.35 1009.14 694.41 979.99 770.24 1170.54 808.98
00007702 00000149 909.92 225.40 499.47 744.32 972.07 480.08 1204.99 535.48 1009.09 692.37 978.28 768.61 1172.37 812.98
00007703 00000150 918.99 202.93 499.45 769.22 980.30 482.92 1204.77 535.32 1011.79 685.62 984.77 764.40 1178.77 806.41
00007704 00000151 917.22 173.77 515.81 785.43 980.80 473.70 1211.02 530.90 1015.61 679.66 980.46 761.57 1181.80 808.17
00007705 00000152 921.87 205.03 506.18 756.35 977.38 472.21 1205.41 527.32 1011.03 677.65 980.03 758.01 1179.77 802.87
00007706 00000153 917.95 196.78 502.18 759.75 980.60 469.64 1209.42 524.10 1019.24 678.93 979.04 757.92 1181.66 802.25
00007707 00000154 918.17 216.32 497.06 744.42 975.66 471.84 1210.36 524.89 1015.70 675.18 975.60 759.57 1177.29 803.15
00007708 00000155 919.44 206.84 496.22 754.59 975.84 471.52 1211.84 525.20 1016.48 675.64 974.96 758.82 1176.52 803.11
00007709 00000156 917.39 220.97 500.18 742.39 976.79 472.05 1212.16 526.63 1016.96 676.35 975.65 759.45 1176.81 804.47
00007710 00000157 917.04 214.91 507.01 745.10 982.95 472.59 1213.46 522.23 1024.20 674.70 980.88 763.76 1181.29 804.58
00007711 00000158 921.56 222.51 506.31 740.08 986.62 473.87 1215.60 523.89 1025.78 675.75 984.44 765.72 1181.59 807.47
00007712 00000159 922.80 218.46 507.03 747.04 988.53 474.12 1217.24 525.05 1026.89 675.10 984.27 766.25 1182.22 808.94
00007713 00000160 923.45 220.33 502.24 743.92 988.77 474.79 1217.12 526.46 1026.48 677.58 983.94 765.81 1182.59 809.04
00007714 00000161 922.47 218.27 503.36 749.82 985.71 477.06 1213.77 527.40 1024.44 682.80 985.88 769.60 1180.55 811.59
00007715 00000162 917.36 214.85 502.72 750.76 981.37 475.30 1209.38 528.46 1020.82 684.88 983.10 764.92 1178.75 808.74
00007716 00000163 912.36 225.87 500.17 734.35 971.51 473.64 1207.77 527.23 1011.58 677.28 974.27 758.65 1174.38 802.18
00007717 00000164 910.36 216.34 503.77 733.60 970.37 466.50 1207.70 520.18 1011.32 670.09 973.14 752.93 1174.44 796.34
00007718 00000165 906.20 189.08 515.64 761.48 972.51 454.10 1205.72 509.73 1009.63 668.66 969.52 745.84 1177.04 791.05
00007719 00000166 904.98 193.02 507.45 759.49 967.61 454.99 1201.67 507.09 1006.56 661.94 973.94 749.43 1174.41 791.50
00007720 00000167 903.64 205.10 505.93 745.03 967.87 456.12 1200.07 509.90 1005.65 664.36 975.23 747.47 1171.69 791.14
