Video ID: 	Zs30EKa2zSw
H: 	1080
W: 	1920
FPS: 	29.97002997002997

FRAME INDEX X0 Y0 W H [Landmarks (5 Points)]

00000979 00000000 557.28 185.03 375.37 498.52 772.51 357.73 908.46 375.69 907.88 453.83 792.13 545.50 893.78 560.07
00000980 00000001 568.27 193.97 371.18 499.95 782.88 363.75 913.42 380.31 919.28 458.13 802.77 557.23 898.66 570.58
00000981 00000002 583.59 194.22 364.14 511.58 807.26 360.57 918.03 384.82 934.79 465.16 813.69 560.94 894.20 581.68
00000982 00000003 596.49 193.52 356.71 520.38 825.50 363.59 926.41 384.11 948.89 472.86 830.80 570.84 901.24 589.64
00000983 00000004 592.12 188.48 359.26 522.64 828.67 366.82 924.14 386.07 947.51 477.61 837.13 569.22 905.08 583.31
00000984 00000005 590.63 190.43 363.35 522.23 828.25 371.04 927.19 389.30 954.39 480.26 839.81 570.87 911.38 584.20
00000985 DELETE   590.72 201.35 363.48 511.63 825.36 375.95 930.98 395.75 952.56 484.05 836.14 571.09 912.99 585.87
00000986 00000007 583.40 198.72 370.68 515.78 818.60 377.06 935.13 395.48 949.09 488.25 825.52 572.35 913.51 587.00
00000987 00000008 575.46 201.62 385.04 515.14 809.34 381.32 940.95 397.59 939.95 492.54 817.27 575.53 916.16 588.63
00000988 00000009 585.06 216.10 376.76 510.31 796.31 378.97 942.66 403.37 932.79 489.06 803.55 585.29 905.99 605.54
00000989 00000010 573.54 211.28 383.84 527.29 780.73 378.49 927.11 393.87 917.83 491.24 788.30 597.97 895.85 611.54
00000990 00000011 570.01 215.45 383.64 521.42 772.17 385.44 924.91 402.58 912.09 489.03 782.86 589.91 895.34 604.46
00000991 00000012 570.03 219.92 384.13 513.35 766.18 387.61 921.32 396.57 907.80 491.67 776.28 587.31 895.29 596.19
00000992 00000013 572.30 220.10 384.06 509.22 768.55 385.69 926.27 397.90 909.86 490.49 779.05 586.69 897.88 598.01
00000993 00000014 579.31 218.12 383.88 507.26 776.87 381.72 936.15 397.16 916.81 490.23 787.77 587.04 904.43 600.64
00000994 00000015 587.50 214.37 382.85 509.85 791.43 380.40 948.23 399.47 930.04 492.54 797.95 587.15 911.23 603.86
00000995 00000016 574.89 207.63 393.61 515.70 796.02 384.17 944.27 393.59 934.75 500.59 811.95 584.37 923.15 592.08
00000996 00000017 581.73 209.74 386.99 512.50 802.97 389.29 945.00 397.35 940.76 503.20 821.01 586.40 925.28 592.72
00000997 00000018 585.69 204.94 387.64 516.91 808.90 394.33 948.39 399.84 944.49 505.55 826.84 589.22 927.13 593.60
00000998 00000019 590.22 204.70 386.36 517.71 811.55 398.92 948.97 404.03 945.94 505.77 830.26 590.01 928.22 594.12
00000999 00000020 590.85 208.70 388.70 514.20 808.37 407.39 949.79 411.86 944.58 503.87 827.04 587.49 931.08 591.95
00001000 00000021 591.48 212.66 388.49 510.77 806.60 406.85 950.15 412.23 942.97 501.98 823.21 585.13 930.93 590.48
00001001 00000022 591.29 205.47 390.18 518.40 804.57 402.15 948.56 406.44 940.60 500.40 821.24 585.87 928.56 590.01
00001002 00000023 589.73 200.65 391.75 523.77 807.54 396.73 948.62 402.65 941.63 501.52 821.57 586.83 924.65 592.11
00001003 00000024 591.09 203.66 391.12 521.46 807.13 393.34 949.24 397.74 942.73 502.07 822.70 587.57 926.22 591.64
00001004 00000025 593.97 202.47 388.80 520.85 807.42 394.49 950.43 398.86 943.39 501.18 822.80 587.06 927.87 591.21
00001005 00000026 598.32 205.53 384.36 518.33 809.66 393.78 951.80 397.60 945.24 501.45 827.00 588.45 929.48 591.87
00001006 00000027 598.69 202.20 384.71 520.80 812.46 394.74 952.89 398.46 946.55 501.03 830.23 588.68 930.74 591.80
00001007 00000028 602.40 200.42 382.72 522.48 815.53 395.36 954.26 396.90 947.52 502.61 833.93 590.64 931.13 592.09
00001008 00000029 602.39 198.31 381.27 524.65 815.50 396.09 951.71 396.35 947.03 502.78 834.00 591.36 929.03 591.72
00001009 00000030 598.24 202.91 381.60 521.10 810.95 395.36 948.81 398.86 946.24 501.53 830.50 589.77 928.97 592.73
00001010 00000031 595.97 212.48 380.08 510.73 805.55 395.94 946.93 399.21 942.05 502.10 826.82 588.53 928.91 591.45
00001011 00000032 590.11 215.30 384.69 505.50 799.96 400.55 945.03 403.94 937.14 500.23 822.74 585.67 929.73 588.68
00001012 DELETE   586.25 209.43 384.56 511.03 797.37 396.84 944.03 403.30 936.06 497.07 819.59 583.90 928.55 589.35
00001013 00000034 582.53 202.45 386.11 517.25 795.34 391.57 944.38 398.69 936.51 494.14 815.80 580.76 929.12 586.82
00001014 00000035 583.60 198.91 383.44 516.41 795.69 385.50 944.25 393.30 934.13 490.53 814.49 577.05 928.41 583.60
00001015 00000036 585.21 195.93 381.74 519.01 796.87 381.18 943.22 390.34 938.54 484.99 815.62 572.66 931.11 580.41
00001016 00000037 586.07 194.04 379.46 519.53 799.22 374.34 938.57 387.21 941.72 479.04 818.05 568.46 928.27 578.98
00001017 00000038 603.46 183.15 366.42 528.13 808.88 362.63 950.98 380.48 954.04 463.23 819.63 566.46 929.74 582.43
00001018 00000039 603.59 179.62 364.58 522.90 806.52 355.81 946.18 369.95 952.05 453.41 826.47 562.48 930.20 575.05
00001019 00000040 606.44 175.31 362.03 514.94 806.99 351.77 947.06 363.09 948.44 448.48 826.48 555.31 931.48 565.41
00001020 00000041 604.95 171.03 365.79 510.73 807.62 347.87 947.04 358.27 949.27 442.65 828.25 547.08 934.12 556.07
00001021 00000042 603.85 167.66 363.80 513.74 805.43 341.93 945.10 357.17 946.85 436.36 825.98 543.40 932.12 556.47
00001022 00000043 603.59 169.04 360.34 513.00 804.94 336.07 945.01 362.15 943.96 433.72 822.08 542.67 925.03 564.60
00001023 00000044 601.81 169.37 360.86 514.79 804.93 335.88 943.81 362.06 942.94 435.47 823.01 545.09 923.01 566.91
00001024 00000045 603.74 166.18 358.63 516.59 807.38 337.89 944.52 365.01 945.63 435.66 824.02 544.37 923.53 567.09
00001025 00000046 604.86 173.57 360.34 507.51 809.35 341.19 947.25 365.99 947.72 437.49 826.47 543.97 927.17 564.48
00001026 00000047 605.82 173.65 359.47 507.72 813.15 344.29 949.78 368.88 951.66 439.53 830.57 545.43 928.86 565.90
00001027 00000048 609.19 185.27 357.70 497.29 814.77 353.21 948.80 371.90 950.24 446.29 831.48 547.59 930.53 563.37
00001028 00000049 610.17 192.73 356.62 491.18 817.67 359.97 951.29 379.20 948.65 450.80 830.35 549.47 930.50 565.82
00001029 00000050 610.77 195.95 357.85 490.63 819.52 361.38 951.76 378.51 949.79 452.74 833.12 553.38 932.02 567.92
00001030 00000051 611.48 195.41 357.74 492.15 818.36 363.92 951.52 377.41 949.47 454.37 833.41 556.10 933.28 567.67
00001031 00000052 612.78 192.01 357.90 499.29 818.88 361.82 954.87 376.70 953.28 453.57 835.12 557.62 937.15 570.27
00001032 00000053 613.71 186.07 357.22 512.11 819.74 361.39 952.08 378.59 952.90 454.32 835.53 561.30 932.16 576.16
00001033 00000054 615.61 184.52 357.59 522.24 821.76 361.53 950.82 377.28 955.68 459.77 837.19 567.49 930.73 581.55
00001034 00000055 616.63 192.80 360.41 518.41 823.74 361.42 953.39 378.96 958.44 462.32 837.66 569.26 931.20 584.63
00001035 00000056 601.19 193.10 371.36 515.12 815.06 370.43 942.05 386.85 946.52 468.98 838.59 563.66 931.49 575.67
00001036 00000057 604.64 190.76 369.92 514.96 816.18 371.67 944.48 386.93 947.02 469.47 839.34 564.82 931.71 576.11
00001037 00000058 606.54 196.05 369.88 510.11 816.56 374.84 947.47 389.84 947.69 470.77 839.76 564.83 935.71 575.99
00001038 00000059 605.96 196.57 370.90 508.64 816.68 374.92 949.42 391.24 948.28 470.71 839.64 564.47 937.23 576.64
00001039 00000060 607.67 196.04 369.82 507.12 814.64 373.91 948.80 389.51 947.37 470.30 838.09 564.02 936.28 575.69
00001040 00000061 607.05 195.69 370.38 506.89 810.31 371.95 946.90 388.44 944.11 469.34 832.50 563.27 933.94 575.98
00001041 00000062 603.08 193.25 372.89 507.72 805.22 370.11 944.57 387.64 937.93 467.47 825.83 561.46 930.47 575.42
00001042 00000063 599.25 195.78 376.02 505.32 799.12 367.31 945.89 385.07 932.07 469.32 818.34 563.22 929.26 577.24
00001043 00000064 609.87 197.29 370.72 503.04 801.72 363.87 955.77 383.90 937.36 465.35 812.69 566.19 928.54 583.82
00001044 00000065 608.51 196.34 371.19 503.28 799.94 364.74 954.51 383.18 935.05 467.36 811.25 567.40 926.88 583.91
00001045 00000066 607.80 197.91 369.99 500.83 799.35 364.53 952.88 383.95 933.65 465.79 811.00 566.53 925.21 583.87
00001046 00000067 595.99 194.06 376.95 507.38 796.39 365.66 941.02 383.37 923.17 469.14 815.23 564.12 921.84 577.84
00001047 00000068 592.52 197.52 383.35 501.83 797.66 378.63 943.85 396.04 925.19 468.46 814.93 560.18 927.13 574.04
00001048 00000069 591.91 201.13 385.66 497.22 798.39 380.99 948.93 399.37 930.22 466.40 816.14 556.18 934.49 570.83
00001049 00000070 593.62 199.04 384.60 496.80 802.39 378.85 948.69 398.26 932.88 465.08 819.77 554.61 934.34 569.91
00001050 00000071 599.60 196.35 379.73 498.55 804.83 376.04 948.61 397.02 936.01 463.27 823.61 554.25 935.33 571.02
00001051 DELETE   604.77 194.42 376.38 499.34 808.59 371.81 949.86 391.26 941.15 459.60 832.35 553.78 940.06 568.78
00001052 00000073 609.37 186.84 374.87 503.40 814.01 366.07 953.79 387.38 946.18 455.29 839.75 550.48 944.55 566.64
00001053 00000074 614.47 182.97 376.18 502.48 817.35 360.62 961.17 384.47 952.02 448.63 843.96 545.73 951.73 563.57
00001054 00000075 620.68 179.42 376.29 498.24 823.49 353.31 962.71 374.23 960.88 442.50 850.23 536.60 958.16 552.28
00001055 DELETE   628.92 181.91 375.00 494.03 835.42 348.88 972.31 367.52 976.52 443.01 861.66 534.83 968.28 549.69
00001056 DELETE   641.72 177.87 363.87 495.12 845.82 342.86 976.03 363.12 981.14 437.37 871.34 537.21 966.72 553.38
00001057 00000078 657.58 168.70 356.25 503.15 856.09 342.05 985.33 361.97 992.80 434.16 879.68 539.01 973.98 556.49
00001058 00000079 662.11 169.97 357.72 502.48 869.20 342.59 994.84 367.20 1002.87 435.08 885.71 537.55 978.25 559.42
00001059 DELETE   663.86 168.48 355.53 501.41 876.19 343.28 1000.11 369.24 1011.28 435.52 892.83 537.13 982.90 559.97
00001060 00000081 663.47 176.77 356.67 493.67 878.83 345.94 1000.18 370.12 1012.32 439.45 895.29 539.08 983.23 560.19
00001061 00000082 662.40 183.23 356.48 492.64 875.29 350.77 996.16 373.31 1007.93 445.76 893.36 545.15 979.43 564.71
00001062 00000083 662.61 190.64 355.11 489.20 869.57 353.42 994.73 375.99 1001.55 448.83 888.17 547.04 978.11 566.19
00001063 00000084 656.08 189.01 357.79 493.79 860.95 355.77 990.70 376.82 993.28 449.06 881.97 549.87 976.34 567.21
00001064 00000085 646.38 194.64 365.48 490.89 849.82 359.68 988.58 386.52 983.87 449.76 869.10 548.67 972.99 569.78
00001065 00000086 638.05 199.00 368.93 488.93 842.15 362.35 984.58 389.54 976.67 453.45 861.98 550.84 968.16 571.53
00001066 00000087 628.29 198.76 372.41 492.78 835.08 364.48 976.61 395.55 966.52 455.87 851.88 550.15 958.97 573.27
00001067 00000088 621.88 199.33 375.56 491.70 830.55 365.79 969.30 396.91 962.71 456.14 846.38 548.19 952.41 571.57
00001068 00000089 621.54 201.00 374.11 490.20 829.09 366.02 967.62 396.75 960.25 456.94 845.70 548.62 950.82 571.55
00001069 00000090 621.41 198.35 371.58 493.15 830.26 367.21 966.51 398.00 963.36 456.55 846.82 547.94 951.31 571.28
00001070 00000091 620.54 200.92 370.69 492.85 829.47 369.04 965.47 396.31 962.88 459.28 848.32 550.58 952.01 570.91
00001071 00000092 620.33 200.14 370.16 492.60 828.93 371.81 966.67 398.42 962.49 459.87 848.58 550.74 954.05 570.53
00001072 00000093 618.22 199.51 370.32 496.93 826.39 373.72 965.04 397.88 960.95 460.68 847.34 552.40 954.63 570.48
00001073 00000094 616.02 195.33 371.25 502.60 821.08 375.64 961.41 394.36 952.34 463.83 843.19 557.24 950.54 571.30
00001074 DELETE   609.93 198.69 371.12 501.65 812.57 381.28 953.86 400.03 945.73 468.25 833.09 559.17 942.22 574.05
00001075 DELETE   595.02 196.32 379.89 508.06 806.44 386.11 945.92 403.47 937.07 473.77 825.08 563.26 931.97 576.98
00001076 DELETE   581.68 200.13 388.79 506.19 799.11 387.30 943.83 405.18 933.28 476.74 816.39 563.79 929.45 577.93
00001077 00000098 575.92 200.79 389.42 506.61 792.35 382.57 943.20 401.34 930.32 476.98 808.99 563.88 928.72 578.83
00001078 00000099 571.20 198.52 391.26 510.34 789.55 379.56 941.10 398.32 928.47 478.22 804.29 566.07 924.94 580.90
00001079 00000100 573.96 196.76 386.74 512.73 792.33 377.80 941.33 397.34 929.90 479.68 806.77 568.22 924.63 583.58
00001080 00000101 574.77 196.65 385.09 512.74 795.57 376.89 941.77 396.51 932.08 481.85 809.41 569.38 924.23 584.78
00001081 00000102 577.52 198.81 383.62 510.78 799.86 377.85 941.69 395.81 935.66 483.18 815.13 569.44 924.70 583.54
00001082 00000103 582.97 199.54 378.90 511.52 806.67 379.31 942.28 395.79 939.48 484.52 821.38 570.23 925.14 583.05
00001083 00000104 587.23 199.92 376.28 512.89 811.21 380.23 941.54 396.72 943.04 486.33 824.03 570.68 922.54 583.58
00001084 00000105 596.36 205.36 368.87 507.74 814.92 378.15 939.60 395.04 945.35 484.50 826.28 567.86 919.88 581.40
00001085 00000106 599.84 210.25 368.95 499.57 819.28 376.65 942.56 395.71 950.02 479.60 831.67 562.19 926.60 577.59
00001086 00000107 603.82 202.82 367.77 502.15 822.58 374.78 946.07 394.54 953.48 472.34 835.85 555.33 933.44 571.57
00001087 00000108 605.16 204.59 366.98 497.39 825.42 367.72 946.51 391.42 955.75 468.73 838.38 551.23 932.57 570.38
00001088 00000109 603.40 199.61 370.32 499.29 825.98 359.82 946.64 385.84 955.29 466.50 838.32 550.21 928.35 570.36
00001089 00000110 601.57 191.91 375.46 501.01 820.95 355.53 948.63 379.71 950.24 462.02 838.08 548.74 930.27 566.85
00001090 00000111 602.02 178.98 376.68 508.41 817.69 352.82 946.79 374.62 946.96 456.15 836.67 547.17 929.65 563.63
00001091 00000112 602.50 176.95 377.21 508.55 817.96 349.49 949.49 373.99 948.18 454.83 835.41 546.26 930.51 564.91
00001092 00000113 604.28 179.12 377.38 507.52 817.83 350.98 949.80 374.13 946.97 456.19 834.75 548.11 930.02 565.57
00001093 00000114 604.11 181.68 380.74 509.89 817.95 353.08 952.41 373.66 947.89 459.42 834.69 552.35 931.46 567.88
00001094 00000115 606.78 187.91 383.20 510.31 815.79 354.46 958.47 373.57 949.53 461.87 834.32 556.08 938.40 570.24
00001095 00000116 607.63 189.82 385.82 511.08 815.59 356.84 962.78 373.03 952.81 463.76 834.04 556.26 943.12 568.45
00001096 00000117 608.31 188.85 388.57 519.62 816.28 357.69 965.05 374.52 954.15 465.21 832.21 559.88 942.97 572.71
00001097 00000118 609.94 192.42 389.24 525.63 817.33 354.14 962.94 373.62 952.20 468.37 831.75 567.05 937.04 581.97
00001098 00000119 610.83 194.55 387.98 522.85 820.41 357.01 964.42 376.98 955.68 467.84 835.05 565.33 941.42 580.72
00001099 00000120 613.43 195.23 387.44 518.00 826.90 360.78 970.54 380.90 963.26 464.10 838.16 557.26 949.26 572.92
00001100 00000121 619.42 194.37 379.54 514.82 834.99 370.88 972.47 390.64 967.98 462.88 844.03 554.37 954.02 570.44
00001101 00000122 620.89 194.01 379.25 515.10 839.07 373.96 972.67 389.98 972.40 465.82 848.73 559.43 953.70 572.73
00001102 00000123 623.44 192.52 373.09 517.35 840.10 371.07 971.64 392.17 970.81 469.59 849.02 562.42 948.68 579.82
00001103 00000124 626.04 189.67 369.06 517.63 842.31 367.71 969.49 387.82 970.44 469.88 853.17 563.63 946.72 580.20
00001104 00000125 625.26 188.63 367.30 514.62 842.23 368.92 965.76 386.72 968.13 470.86 852.96 562.14 942.88 576.75
00001105 00000126 620.39 189.53 367.80 511.47 838.86 370.63 961.93 386.29 966.54 472.38 851.50 561.67 940.77 574.34
00001106 00000127 612.26 192.97 370.43 506.53 833.10 369.72 956.93 388.72 961.21 472.25 845.41 558.26 935.71 573.45
00001107 00000128 606.05 193.28 370.00 504.09 829.38 367.95 948.47 387.29 956.71 469.46 841.89 554.31 930.59 569.89
00001108 00000129 600.15 197.72 371.68 498.24 822.38 363.46 945.59 385.09 952.99 466.74 839.00 552.08 930.23 568.76
00001109 00000130 607.03 197.71 366.90 498.74 820.32 353.64 954.93 373.72 957.24 461.92 829.20 556.23 928.99 574.46
00001110 00000131 601.01 189.06 369.56 504.55 809.39 350.70 950.81 370.60 947.15 457.57 818.74 554.43 924.85 572.47
00001111 00000132 597.23 180.12 373.10 507.63 800.94 348.90 949.49 367.27 939.08 452.11 811.41 551.83 922.68 568.34
00001112 00000133 592.58 184.35 377.46 500.84 794.46 347.84 945.09 365.19 930.91 449.76 806.59 550.37 919.24 565.77
00001113 00000134 590.87 182.73 378.84 502.85 790.79 347.60 944.39 367.02 928.38 447.40 803.11 549.32 919.29 566.17
00001114 00000135 591.51 186.12 378.54 501.17 791.26 348.86 944.52 369.06 927.95 448.62 803.41 550.76 919.22 568.10
00001115 00000136 593.11 186.50 378.26 501.60 793.13 349.27 945.85 369.23 929.02 449.78 804.64 551.95 919.47 569.18
00001116 00000137 593.65 188.07 376.92 502.30 795.75 351.65 945.57 371.23 933.70 451.53 808.43 553.53 920.97 570.72
00001117 00000138 595.43 185.29 374.30 508.23 798.24 352.76 948.02 372.26 937.96 455.07 809.85 555.49 923.70 572.95
00001118 00000139 597.50 189.36 372.71 507.53 803.23 354.47 951.95 377.92 941.96 458.28 813.60 558.19 924.72 578.99
00001119 00000140 601.60 191.85 369.97 509.99 808.70 356.53 955.31 381.23 945.80 462.25 815.72 560.23 926.68 581.93
00001120 00000141 601.42 194.63 371.64 509.61 811.55 358.98 956.31 384.32 949.88 464.25 819.30 562.22 927.74 584.16
00001121 00000142 591.19 187.96 380.82 518.64 804.06 368.04 940.25 389.19 937.89 467.04 824.18 560.48 928.01 576.85
00001122 00000143 594.98 194.70 380.56 517.39 805.19 369.52 942.93 391.75 937.31 470.73 822.02 563.62 926.95 581.03
00001123 00000144 597.49 193.73 379.52 521.22 806.47 366.92 942.67 390.00 937.39 472.25 820.78 565.81 922.76 584.18
00001124 00000145 598.91 195.81 379.60 518.45 807.69 364.08 944.69 388.96 936.98 472.22 818.93 565.43 921.79 585.24
00001125 00000146 598.92 196.05 381.25 516.69 811.02 369.50 948.09 395.72 937.18 471.63 819.17 563.49 923.95 584.51
00001126 00000147 597.35 201.02 387.72 511.89 808.56 376.83 949.95 398.77 937.62 471.16 820.13 563.93 927.70 581.62
00001127 00000148 596.49 200.93 387.92 508.77 809.19 377.17 951.61 401.80 938.73 469.00 821.38 561.33 929.82 580.79
00001128 00000149 599.53 197.86 385.31 508.40 808.75 377.64 953.55 402.31 939.99 467.41 820.97 558.17 933.19 577.95
00001129 00000150 602.88 194.58 379.84 507.25 810.34 373.25 953.34 398.07 940.39 465.22 823.04 554.11 935.60 574.11
00001130 00000151 603.61 193.12 377.80 503.25 811.65 369.20 949.37 392.20 940.60 462.17 827.44 551.48 934.77 569.77
00001131 00000152 602.35 190.99 377.45 504.54 810.02 366.60 948.09 390.75 940.65 460.37 829.94 552.58 935.00 571.28
00001132 00000153 598.95 189.77 379.88 506.95 809.72 365.43 946.04 388.79 941.02 459.90 830.10 552.18 933.73 570.20
00001133 00000154 596.40 186.13 380.66 511.21 808.57 364.27 942.56 386.98 939.33 458.60 830.55 552.00 932.02 569.35
00001134 00000155 594.88 188.91 379.04 512.74 806.69 360.82 938.53 385.07 938.23 458.83 828.83 553.29 928.02 571.71
00001135 00000156 605.34 189.04 370.15 518.86 812.45 352.55 951.39 380.09 951.39 451.12 825.69 560.16 928.21 583.57
00001136 00000157 600.10 187.97 371.03 516.47 806.61 352.03 947.05 381.35 945.77 449.43 819.62 557.84 923.85 582.60
00001137 00000158 599.11 181.87 369.44 515.21 802.86 352.33 945.23 379.09 941.03 445.99 816.91 554.98 922.28 577.86
00001138 00000159 596.78 187.41 371.96 505.97 800.09 350.36 944.78 373.11 937.52 448.92 813.96 554.08 920.37 573.62
00001139 00000160 595.79 183.68 373.05 505.27 797.46 350.75 942.26 368.18 936.75 446.56 813.56 550.53 922.75 565.83
00001140 00000161 593.60 183.83 373.99 500.90 795.35 350.21 940.67 366.68 934.59 445.29 812.02 547.54 922.80 562.16
00001141 00000162 592.49 183.14 371.44 496.69 795.22 349.60 939.01 367.25 929.89 445.17 810.07 545.48 917.91 561.27
00001142 00000163 588.58 186.02 371.97 490.99 791.66 353.86 935.36 371.50 923.91 443.95 807.65 545.02 915.25 560.57
00001143 00000164 580.18 189.65 377.03 483.91 783.35 350.60 930.64 366.33 920.20 442.98 803.96 543.17 913.71 556.87
00001144 DELETE   576.98 189.89 375.80 484.06 779.44 352.85 926.65 371.12 914.88 444.84 797.50 542.11 907.98 557.82
00001145 DELETE   576.31 188.24 372.41 489.86 776.78 351.37 920.92 366.88 911.32 447.17 796.84 547.77 902.19 560.79
00001146 00000167 573.37 188.54 370.22 493.28 772.38 355.68 918.48 372.17 908.03 452.09 794.54 551.76 901.00 565.28
00001147 00000168 569.28 185.56 371.11 498.75 769.51 359.63 912.84 374.64 904.79 455.05 793.58 555.73 897.02 567.74
00001148 00000169 565.91 186.87 368.38 500.51 764.41 361.73 906.16 373.26 902.54 458.39 792.39 558.37 892.67 567.36
00001149 00000170 562.82 186.13 369.31 504.46 760.74 365.09 903.13 376.05 899.76 461.28 790.37 562.80 890.23 571.21
