Video ID: 	W10dWLVUF8g
H: 	1080
W: 	1920
FPS: 	29.97002997002997

FRAME INDEX X0 Y0 W H [Landmarks (5 Points)]

00000275 00000000 722.96 215.21 393.18 607.57 883.97 462.70 1052.69 474.78 1005.45 595.95 890.94 683.99 1023.77 693.80
00000276 DELETE   721.05 218.05 393.90 606.53 885.51 465.22 1053.23 475.49 1008.50 596.62 894.58 687.77 1024.35 695.99
00000277 00000002 719.70 222.17 393.19 607.66 889.39 468.43 1055.28 478.41 1013.80 598.03 900.41 692.41 1025.87 700.37
00000278 00000003 721.58 225.70 390.27 604.85 891.62 471.50 1059.30 481.55 1018.84 598.72 902.55 695.71 1027.93 704.04
00000279 DELETE   722.80 227.55 389.16 604.85 895.95 474.26 1064.07 483.16 1024.63 599.70 904.95 697.50 1030.74 705.39
00000280 00000005 723.64 229.24 390.09 604.10 898.43 476.26 1064.34 488.13 1023.46 599.42 905.23 697.52 1029.71 707.86
00000281 DELETE   720.09 224.23 391.62 612.59 892.18 469.49 1057.69 485.35 1015.30 595.80 900.60 697.81 1023.35 710.71
00000282 00000007 713.50 212.59 397.07 629.23 885.96 462.08 1053.41 481.12 1008.48 592.08 891.52 696.53 1017.03 711.58
00000283 00000008 712.24 209.62 398.61 630.61 882.39 460.82 1050.59 479.06 1004.07 593.29 888.43 696.43 1014.12 710.74
00000284 00000009 713.45 210.69 398.22 632.20 884.02 461.83 1051.42 479.02 1006.56 596.61 889.01 696.74 1017.20 710.25
00000285 00000010 719.52 218.71 393.76 629.73 888.67 464.11 1054.52 481.51 1011.61 597.96 888.79 697.70 1021.44 711.82
00000286 DELETE   723.14 227.24 402.09 626.32 890.86 469.58 1065.92 478.75 1022.05 602.21 884.26 696.53 1029.55 706.20
00000287 00000012 731.83 219.81 397.36 639.28 908.60 465.27 1066.29 478.89 1032.10 607.96 889.34 691.45 1027.06 704.93
00000288 00000013 733.90 220.17 398.06 643.98 913.52 465.84 1069.00 478.28 1039.43 608.88 893.71 693.60 1030.48 706.09
00000289 00000014 735.08 218.15 400.26 651.86 912.53 464.18 1070.71 478.84 1040.34 607.31 890.43 694.43 1031.53 708.72
00000290 00000015 733.51 213.57 403.36 665.14 911.62 460.39 1069.14 479.18 1036.95 604.32 886.28 693.55 1029.61 711.05
00000291 00000016 734.06 210.86 404.99 672.02 912.08 460.25 1070.01 480.11 1037.47 604.28 887.14 694.08 1031.53 712.08
00000292 00000017 736.51 209.78 406.35 675.17 914.98 461.09 1075.09 480.91 1043.70 604.87 890.53 695.31 1037.56 713.09
00000293 00000018 740.47 212.09 407.21 671.75 922.25 462.30 1080.46 482.57 1049.16 606.74 898.53 696.43 1042.85 714.32
00000294 00000019 745.33 215.60 406.60 665.43 925.01 467.53 1085.28 484.80 1054.55 607.88 904.42 698.87 1050.58 714.22
00000295 00000020 746.57 221.24 406.94 655.80 929.31 475.22 1088.02 491.22 1056.67 611.76 908.93 699.45 1052.87 713.90
00000296 DELETE   743.79 225.93 407.74 646.90 929.77 481.78 1087.98 497.20 1054.69 613.03 907.56 696.86 1051.10 711.05
00000297 00000022 743.02 221.26 409.41 644.09 925.48 478.72 1086.54 494.24 1046.75 615.83 903.66 694.97 1048.07 709.39
00000298 DELETE   738.37 220.90 411.66 641.22 919.51 475.32 1081.09 490.68 1037.38 616.74 900.85 694.34 1042.06 708.88
00000299 00000024 736.93 219.87 408.34 633.56 912.42 472.16 1075.98 486.91 1032.12 613.36 893.75 689.93 1036.82 704.26
00000300 00000025 733.73 221.46 406.98 628.36 907.93 470.60 1073.17 485.37 1026.05 610.27 891.86 688.63 1033.03 702.94
00000301 00000026 732.02 220.39 406.70 628.69 908.64 470.93 1072.59 485.32 1026.55 609.63 892.40 688.25 1032.28 702.20
00000302 00000027 734.14 224.01 403.27 623.48 910.55 478.24 1075.04 495.56 1025.12 611.65 893.41 687.88 1032.59 704.01
00000303 00000028 733.72 225.91 406.52 626.38 913.67 484.54 1076.64 501.21 1028.02 613.73 895.87 690.89 1033.89 706.54
00000304 00000029 731.47 226.93 407.77 633.23 910.22 485.24 1073.99 498.68 1028.31 618.02 896.55 696.46 1035.05 709.72
00000305 00000030 728.99 227.04 408.57 636.64 907.83 485.69 1071.95 500.45 1026.08 621.67 897.85 701.79 1034.40 716.19
00000306 00000031 726.48 227.82 407.92 637.90 901.79 487.19 1070.06 501.48 1021.38 625.47 893.57 705.84 1032.98 720.13
00000307 00000032 722.30 228.55 407.02 637.73 899.28 485.09 1066.79 502.92 1016.84 626.26 886.71 707.90 1023.89 725.22
00000308 00000033 720.46 230.91 405.64 635.81 894.37 483.82 1064.99 502.31 1015.63 625.66 883.02 711.13 1021.72 729.19
00000309 00000034 720.78 230.36 405.79 643.23 897.39 484.25 1065.25 503.86 1017.52 626.98 886.84 715.42 1019.55 734.39
00000310 00000035 716.58 233.20 409.33 640.01 891.99 486.45 1070.15 498.09 1025.03 628.99 886.78 726.23 1022.73 737.03
00000311 00000036 721.66 229.11 408.07 651.48 903.56 485.38 1071.14 501.02 1031.71 628.68 891.64 717.53 1028.71 733.34
00000312 00000037 722.11 239.61 408.92 629.31 904.09 492.18 1078.52 496.55 1042.21 632.07 897.23 723.66 1039.70 729.61
00000313 00000038 722.13 237.07 409.55 631.95 904.00 490.06 1078.15 494.97 1042.25 630.90 895.68 722.54 1037.53 729.08
00000314 00000039 718.50 233.09 412.08 640.82 902.16 485.74 1075.82 493.10 1039.07 626.39 892.40 721.27 1034.86 729.55
00000315 00000040 713.46 230.07 413.39 637.05 897.12 477.65 1070.52 490.37 1029.11 620.49 893.17 714.48 1029.23 725.90
00000316 00000041 707.91 226.81 414.71 637.13 890.34 473.60 1066.14 489.28 1022.00 614.51 887.99 706.24 1027.58 720.03
00000317 00000042 709.32 217.85 410.58 642.72 893.92 466.00 1058.85 485.29 1019.75 607.19 882.99 695.28 1020.79 713.53
00000318 00000043 707.76 213.95 404.26 638.43 891.28 464.73 1056.11 480.10 1020.42 600.92 899.39 704.59 1022.63 716.75
00000319 00000044 707.88 214.02 402.90 639.05 891.72 465.31 1056.63 479.87 1022.97 600.64 902.90 705.82 1025.77 717.17
00000320 00000045 708.38 217.72 400.94 637.52 892.00 466.78 1057.13 480.65 1025.19 601.21 908.45 711.96 1026.83 722.86
00000321 00000046 708.97 219.35 405.82 639.40 898.80 465.12 1059.66 483.09 1026.15 607.03 900.32 707.49 1019.92 724.40
00000322 00000047 706.52 224.76 407.87 633.17 893.82 469.40 1060.12 485.98 1022.60 609.55 896.37 710.03 1019.93 725.97
00000323 00000048 702.33 226.31 411.75 633.39 888.08 473.61 1055.61 492.63 1010.88 615.93 886.54 709.34 1010.66 727.19
00000324 00000049 698.83 225.93 410.84 640.39 884.90 473.46 1050.45 496.29 1002.82 617.24 880.30 708.31 1000.75 729.36
00000325 00000050 692.94 225.97 415.59 655.40 875.68 465.59 1046.13 491.34 997.50 616.41 872.85 719.38 987.81 739.82
00000326 00000051 692.53 226.21 413.51 660.06 873.94 464.31 1046.81 490.75 998.76 615.88 869.28 723.04 987.16 743.94
00000327 00000052 693.64 224.28 412.17 658.21 877.30 463.95 1048.71 489.18 1005.67 613.78 870.53 720.61 990.63 741.24
00000328 00000053 695.52 224.64 411.70 647.41 880.51 464.66 1051.18 486.69 1011.22 611.91 873.21 715.33 996.92 733.69
00000329 00000054 697.64 226.53 409.62 633.02 882.06 463.10 1052.30 485.85 1011.01 611.15 874.13 707.49 999.56 726.96
00000330 00000055 696.75 224.93 407.46 627.50 883.60 465.15 1049.66 486.26 1007.57 613.05 871.57 695.51 1004.63 715.59
00000331 00000056 691.48 221.04 405.13 635.12 878.46 466.18 1041.34 484.01 1001.74 613.90 875.20 705.80 997.90 720.64
00000332 00000057 688.53 218.75 406.93 638.69 875.62 468.02 1037.20 485.85 996.49 612.37 871.77 705.98 992.88 720.87
00000333 00000058 687.12 223.78 415.25 633.69 871.64 462.72 1041.48 489.50 992.33 610.58 864.04 703.22 983.91 725.17
00000334 00000059 686.82 226.68 413.71 636.60 871.73 461.54 1041.12 489.73 992.51 609.91 859.81 704.50 982.94 727.60
00000335 00000060 687.52 223.34 412.71 639.17 872.24 460.57 1042.48 488.58 994.54 608.99 856.50 703.45 983.22 726.91
00000336 00000061 686.94 224.58 411.65 636.28 871.89 459.19 1041.64 487.04 994.22 607.80 855.74 701.66 982.35 725.22
00000337 00000062 686.11 223.21 413.76 636.24 872.38 458.02 1042.41 486.48 994.80 606.14 855.12 699.10 983.40 723.08
00000338 00000063 683.56 214.93 408.96 644.94 870.67 459.34 1033.89 480.01 996.43 605.68 858.27 696.42 989.97 713.72
00000339 00000064 683.15 212.89 408.45 638.62 868.86 457.12 1033.09 477.42 995.15 603.38 858.33 693.04 988.46 710.09
00000340 00000065 682.37 211.59 405.95 630.76 866.07 456.23 1032.17 475.45 991.81 599.58 858.11 688.78 989.11 704.87
00000341 00000066 681.74 211.93 405.96 628.37 864.82 456.75 1030.56 474.84 989.81 598.88 856.08 686.77 988.30 701.92
00000342 00000067 680.12 210.81 405.54 627.75 864.19 455.82 1028.82 475.20 988.92 596.63 853.82 684.92 985.22 701.33
00000343 00000068 679.14 208.03 406.34 626.93 864.38 456.74 1028.96 473.48 988.61 594.22 854.04 683.43 984.34 697.69
00000344 00000069 679.26 208.56 404.26 621.94 865.34 458.60 1028.57 475.87 988.75 591.50 860.51 682.41 986.45 696.85
00000345 00000070 682.29 210.06 404.29 618.12 867.99 463.35 1029.59 479.34 991.73 588.11 865.02 681.67 989.56 695.31
00000346 00000071 684.03 209.23 405.08 621.08 870.11 465.17 1029.79 483.14 992.92 588.50 866.22 681.42 990.08 696.49
00000347 00000072 682.97 206.99 407.65 633.46 872.90 464.40 1031.31 483.79 996.65 590.44 864.88 683.80 989.72 699.81
00000348 00000073 681.68 208.17 406.52 629.76 872.94 457.96 1032.62 477.01 997.19 590.31 863.48 682.51 988.70 698.34
00000349 00000074 681.35 202.48 400.74 627.11 870.41 449.96 1030.98 470.28 994.49 587.10 860.73 676.48 986.55 693.32
00000350 00000075 677.37 200.92 403.53 625.11 865.40 445.22 1029.22 467.46 990.03 584.90 855.18 671.85 985.30 690.04
00000351 00000076 675.11 199.76 406.57 625.61 862.17 441.63 1029.65 464.46 987.10 583.11 852.06 671.71 983.45 690.31
00000352 00000077 677.43 200.01 405.04 631.25 863.66 438.28 1029.66 462.46 989.13 583.48 853.60 674.85 982.25 694.40
00000353 00000078 680.33 196.03 403.46 640.26 864.80 440.35 1030.97 462.97 990.10 585.28 860.94 682.02 985.10 700.22
00000354 00000079 683.79 199.14 402.03 632.62 868.44 442.80 1034.95 463.16 996.70 585.55 871.06 683.37 992.30 699.51
00000355 00000080 689.40 201.26 400.57 627.90 875.96 443.94 1039.77 463.59 1004.38 584.82 881.60 683.33 998.29 698.77
00000356 00000081 691.16 200.88 402.24 629.92 879.73 444.50 1046.39 463.55 1012.42 585.37 887.33 685.88 1005.78 700.74
00000357 00000082 695.19 206.01 400.50 626.01 884.75 449.00 1050.04 468.48 1016.18 587.21 890.00 687.39 1009.35 702.90
00000358 00000083 695.11 210.64 401.77 626.36 888.76 453.28 1051.72 470.36 1022.66 594.20 893.38 695.79 1009.18 709.69
00000359 00000084 696.92 212.46 401.99 627.20 891.94 453.45 1053.33 471.46 1024.14 597.73 895.62 700.68 1007.71 715.73
00000360 00000085 699.24 212.56 401.74 628.75 894.16 456.09 1055.20 472.15 1025.95 599.53 899.64 702.69 1011.16 715.87
00000361 00000086 701.56 211.76 403.32 628.43 894.34 455.11 1057.73 473.69 1025.39 598.88 899.92 701.44 1013.49 716.68
00000362 00000087 704.99 211.05 404.24 626.72 894.86 455.91 1060.63 474.36 1025.25 598.45 902.46 700.21 1017.85 715.09
00000363 00000088 706.73 209.48 405.05 627.75 895.11 456.59 1062.65 474.68 1024.38 599.98 903.44 700.48 1021.18 714.96
00000364 00000089 710.81 209.42 406.60 625.53 895.95 456.69 1067.70 473.65 1026.48 602.20 906.86 700.55 1028.34 714.06
00000365 00000090 716.19 214.01 406.11 619.95 901.93 459.42 1074.51 476.10 1033.03 604.52 912.16 700.89 1035.17 714.45
00000366 00000091 723.49 213.23 406.95 620.17 905.81 458.74 1082.55 475.33 1036.80 608.67 912.39 700.80 1039.92 714.61
00000367 00000092 726.01 217.62 407.51 619.21 911.94 460.49 1088.81 477.26 1043.84 612.54 912.33 703.19 1041.79 717.75
00000368 DELETE   729.29 221.91 410.60 633.78 921.66 466.58 1087.78 482.22 1046.82 618.48 909.45 706.80 1036.38 721.52
00000369 DELETE   733.85 226.49 414.89 637.27 930.08 477.28 1092.07 491.76 1055.05 626.36 916.23 712.12 1039.87 726.53
00000370 DELETE   746.37 229.48 407.37 637.26 938.22 484.18 1099.99 499.62 1062.20 630.54 922.08 714.42 1048.21 729.62
00000371 00000096 750.57 231.88 409.34 639.40 948.66 489.31 1108.71 504.20 1075.73 634.39 929.86 717.57 1055.89 732.40
00000372 DELETE   763.15 242.28 400.70 628.99 959.28 486.85 1121.91 503.91 1089.39 637.47 930.62 714.77 1063.05 733.01
00000373 00000098 769.51 236.63 404.83 637.34 968.04 483.41 1128.25 500.89 1099.67 635.67 933.82 714.90 1066.64 733.96
00000374 00000099 775.69 233.96 405.42 640.91 971.55 481.55 1134.32 500.31 1106.16 632.14 938.71 714.78 1072.82 734.92
00000375 00000100 780.18 234.73 405.41 637.96 978.95 478.98 1137.71 501.55 1108.97 630.32 948.07 711.05 1077.79 733.93
00000376 00000101 783.10 236.74 410.44 626.37 975.37 481.41 1145.26 494.06 1111.16 630.30 954.26 718.61 1089.97 731.82
00000377 00000102 788.45 236.77 411.76 625.22 978.51 478.99 1153.61 492.49 1114.95 631.38 957.19 717.05 1098.09 731.20
00000378 00000103 792.56 231.95 410.86 643.02 987.33 476.87 1149.39 495.56 1116.91 630.44 962.19 711.06 1094.81 730.01
00000379 00000104 792.07 236.00 416.28 642.25 988.31 478.59 1150.97 497.58 1116.54 630.65 965.39 711.90 1098.51 730.86
00000380 00000105 798.25 236.65 414.28 645.56 988.53 481.50 1154.55 502.35 1114.69 632.38 969.02 715.03 1103.32 735.14
00000381 00000106 798.96 239.48 418.17 645.75 991.21 483.10 1159.44 505.25 1116.08 634.92 971.82 717.77 1105.90 738.87
00000382 00000107 802.55 241.42 418.68 650.28 996.71 484.01 1163.35 507.07 1120.75 638.41 975.23 720.53 1108.27 742.48
00000383 00000108 806.45 246.20 417.22 652.16 998.49 484.94 1166.86 509.60 1123.81 640.49 977.65 724.29 1112.62 747.47
00000384 00000109 807.69 257.53 416.24 643.08 998.74 489.04 1169.45 511.68 1120.31 643.75 972.68 732.22 1107.44 750.97
00000385 00000110 810.24 256.88 418.44 647.69 998.55 489.78 1171.51 512.21 1121.49 643.90 974.24 734.34 1110.63 752.71
00000386 00000111 813.57 258.06 417.96 650.32 999.70 490.17 1172.91 512.65 1123.55 644.89 975.71 737.72 1111.27 756.10
00000387 00000112 815.41 258.47 418.69 653.35 1000.58 489.83 1173.85 513.14 1123.28 646.12 977.32 738.82 1112.06 757.76
00000388 00000113 819.22 255.92 417.39 657.72 1001.03 489.15 1176.15 513.78 1124.10 645.55 977.80 739.81 1113.59 759.65
00000389 00000114 822.88 256.00 416.78 659.22 1001.24 488.71 1177.49 513.55 1124.03 645.79 979.31 740.98 1115.34 760.78
00000390 00000115 823.34 256.34 416.93 659.90 1001.33 488.13 1177.62 512.77 1123.74 644.86 980.54 740.80 1115.96 760.37
00000391 00000116 826.36 254.34 416.41 661.34 1002.96 487.45 1179.87 512.75 1125.18 644.42 982.23 741.43 1116.32 761.47
00000392 00000117 825.93 254.70 415.88 662.63 1000.81 487.29 1178.87 513.51 1123.33 644.87 980.41 742.31 1114.80 763.11
00000393 00000118 824.21 256.28 415.71 661.00 998.01 487.24 1176.03 514.45 1119.23 643.93 976.63 742.44 1109.98 764.31
00000394 00000119 820.58 256.66 416.84 660.85 994.11 488.45 1173.45 517.79 1114.12 645.95 970.50 742.01 1106.95 765.68
00000395 00000120 817.33 259.13 416.98 659.16 990.13 491.19 1167.82 518.09 1107.88 649.29 963.74 742.09 1101.30 764.11
00000396 00000121 815.04 257.63 416.46 662.73 986.93 493.19 1163.20 521.00 1101.13 651.50 958.85 741.93 1098.74 764.87
00000397 00000122 813.24 258.05 415.25 661.31 980.84 495.22 1157.08 521.65 1094.42 650.22 954.42 741.20 1096.37 763.07
00000398 00000123 810.06 259.45 413.72 656.54 973.77 495.65 1149.30 518.88 1085.70 651.34 950.28 740.21 1093.18 759.69
00000399 00000124 801.16 260.00 418.30 654.02 965.40 495.97 1141.04 519.84 1075.05 650.31 946.06 738.99 1086.64 759.22
00000400 00000125 793.82 261.99 423.42 650.18 958.86 496.28 1134.65 520.63 1066.01 650.62 941.12 738.02 1079.27 758.92
00000401 00000126 789.72 263.77 415.73 643.45 953.71 493.47 1133.67 516.99 1064.40 650.59 938.58 739.00 1083.55 757.78
00000402 00000127 788.98 265.99 414.86 642.47 951.06 494.94 1131.79 517.25 1062.10 650.26 936.30 739.61 1082.91 757.41
00000403 00000128 786.90 265.52 415.92 641.49 948.52 496.78 1129.60 518.73 1060.38 650.70 934.58 738.41 1082.03 755.90
00000404 00000129 786.10 266.60 415.33 639.50 947.56 496.38 1129.80 518.96 1060.08 650.97 933.40 737.31 1082.36 755.39
00000405 00000130 784.79 268.13 416.38 638.36 948.98 498.08 1128.88 520.24 1060.96 653.08 934.27 736.89 1082.02 754.69
00000406 00000131 786.11 269.04 415.77 635.04 949.33 499.85 1129.54 521.27 1062.48 654.84 935.56 736.51 1084.42 753.79
00000407 00000132 785.43 268.35 415.23 634.92 949.92 500.63 1129.50 522.18 1062.95 655.79 936.60 736.59 1083.13 754.05
00000408 00000133 784.60 268.30 415.53 632.26 949.38 501.92 1129.95 523.51 1064.49 657.31 937.46 737.08 1083.26 754.60
00000409 00000134 783.63 268.56 415.54 628.49 946.77 502.39 1128.53 522.52 1062.53 659.31 938.69 738.01 1081.53 754.24
00000410 00000135 779.30 267.27 417.97 626.88 940.59 502.44 1125.41 521.23 1058.98 657.58 938.64 738.14 1078.77 752.99
00000411 00000136 779.56 269.06 415.10 619.13 937.44 502.87 1124.53 520.70 1057.55 658.86 938.55 737.45 1079.83 751.51
00000412 00000137 779.15 270.05 415.49 616.40 936.07 504.37 1124.66 522.39 1057.26 659.50 938.18 737.54 1080.93 751.64
00000413 00000138 778.79 269.22 410.96 616.10 935.62 504.59 1122.32 523.44 1056.64 658.72 938.14 736.20 1080.08 750.88
00000414 00000139 777.02 270.72 411.23 612.35 934.07 504.96 1120.58 522.34 1055.28 657.62 937.76 735.10 1078.80 748.65
00000415 00000140 776.84 269.50 411.75 613.96 934.82 505.66 1119.95 522.35 1055.52 658.04 937.76 734.20 1078.75 747.22
00000416 00000141 776.15 268.92 411.46 612.69 934.48 505.86 1120.52 522.62 1056.45 657.38 936.54 732.87 1080.76 746.02
00000417 00000142 776.71 268.43 411.07 612.04 934.74 505.39 1121.06 521.84 1056.88 657.26 937.69 732.13 1081.79 745.04
00000418 00000143 775.14 269.53 411.66 610.80 935.28 505.65 1120.07 521.63 1057.03 658.33 937.47 731.12 1081.52 743.73
00000419 00000144 772.66 269.30 413.29 610.73 934.10 504.32 1119.37 520.91 1056.34 656.99 934.83 727.90 1080.87 741.08
00000420 00000145 771.81 266.13 414.47 612.31 932.94 503.95 1119.49 519.81 1056.32 656.57 934.14 726.36 1081.82 738.91
00000421 00000146 771.83 266.61 413.36 611.50 933.37 503.68 1119.07 519.20 1056.47 656.65 933.40 725.95 1080.94 738.35
00000422 00000147 769.84 267.03 414.58 610.80 931.32 504.12 1117.67 518.96 1055.14 654.85 929.90 723.66 1081.82 735.49
00000423 00000148 768.30 266.84 414.37 610.54 930.12 502.71 1117.17 517.61 1053.88 654.67 927.11 722.81 1078.99 734.82
00000424 00000149 766.93 266.57 415.08 611.09 929.14 502.42 1116.48 517.96 1052.91 654.40 925.25 722.11 1078.36 734.69
00000425 00000150 765.76 265.40 413.58 610.75 927.86 500.79 1114.20 515.94 1051.12 652.72 921.94 720.58 1074.82 733.00
00000426 00000151 761.60 259.61 415.50 613.60 927.81 503.81 1108.32 518.94 1045.23 651.78 920.74 716.41 1071.64 729.90
00000427 00000152 762.37 268.57 413.70 604.29 925.65 499.60 1110.85 514.85 1047.20 649.44 917.59 718.79 1069.28 731.52
00000428 00000153 758.94 261.90 413.32 607.42 924.95 499.85 1104.64 514.57 1041.82 647.40 917.08 713.62 1067.74 727.19
00000429 00000154 756.40 257.57 413.32 609.33 922.07 497.68 1101.27 513.53 1037.37 645.14 912.20 710.24 1063.98 724.94
00000430 00000155 754.58 257.28 412.89 608.49 919.68 496.75 1098.13 511.50 1035.09 643.78 909.06 707.10 1063.01 720.99
00000431 00000156 752.67 254.10 414.27 612.49 917.82 496.37 1095.23 510.21 1032.41 643.92 906.38 706.20 1060.64 719.48
00000432 00000157 750.69 252.95 413.86 613.07 913.74 496.14 1092.15 510.07 1028.95 642.96 902.40 705.32 1058.57 718.73
00000433 00000158 749.60 249.36 413.35 616.92 909.64 495.06 1089.02 509.48 1024.71 641.93 897.88 703.75 1056.91 717.58
00000434 00000159 747.96 248.84 413.69 618.16 908.04 495.59 1087.26 509.02 1023.36 642.27 897.06 703.87 1056.38 716.95
00000435 00000160 747.22 246.68 413.41 620.43 906.30 494.56 1086.58 507.90 1022.56 641.33 895.13 703.63 1055.98 716.65
00000436 00000161 746.62 245.41 412.86 619.86 905.61 492.39 1085.34 505.81 1021.62 640.27 894.00 702.73 1053.93 715.93
00000437 00000162 745.90 246.31 412.81 620.03 904.17 492.59 1083.69 505.10 1020.19 639.84 893.82 703.01 1053.90 715.45
00000438 00000163 745.34 245.49 412.79 621.28 903.04 491.82 1083.08 504.89 1018.78 639.09 892.66 703.51 1052.09 716.38
00000439 00000164 744.48 245.66 413.37 621.55 902.84 490.94 1081.55 505.00 1018.14 637.96 893.94 703.39 1051.60 716.95
00000440 00000165 743.54 244.71 413.43 624.27 902.47 488.99 1080.57 505.40 1016.94 634.57 893.71 705.19 1047.59 720.60
00000441 00000166 743.09 244.60 414.77 628.82 903.37 487.31 1079.80 506.54 1017.30 633.11 892.56 705.21 1045.27 722.92
