Video ID: 	ySIPrr-KnJU
H: 	1080
W: 	1920
FPS: 	25.0

FRAME INDEX X0 Y0 W H [Landmarks (5 Points)]

00045855 00000000 1025.78 181.62 447.70 629.45 1137.18 380.87 1324.71 407.63 1191.91 484.56 1112.90 606.14 1275.62 629.14
00045856 00000001 1026.56 179.42 448.46 624.41 1132.05 380.02 1322.44 403.02 1187.31 483.83 1110.41 606.25 1272.05 626.41
00045857 00000002 1024.20 179.90 444.62 621.60 1122.71 380.09 1313.24 402.61 1176.12 483.44 1097.66 603.84 1258.57 623.71
00045858 00000003 1021.08 173.86 448.72 630.65 1117.19 382.99 1310.14 406.72 1173.23 490.23 1095.28 605.16 1260.20 626.08
00045859 00000004 1019.02 175.18 451.93 627.61 1116.56 385.73 1308.43 409.93 1170.50 493.29 1094.13 605.78 1256.03 627.14
00045860 00000005 1018.24 174.23 453.02 633.15 1115.90 389.54 1305.84 409.95 1170.29 495.07 1097.31 608.76 1257.97 627.14
00045861 00000006 1017.84 174.74 452.46 631.58 1112.76 392.17 1307.10 412.20 1173.99 500.78 1096.29 613.73 1256.96 632.00
00045862 00000007 1017.40 177.87 455.45 629.68 1110.69 394.44 1304.76 416.62 1168.24 505.64 1093.11 616.92 1252.50 637.15
00045863 00000008 1017.03 178.65 453.81 626.51 1110.16 394.89 1305.06 418.71 1170.54 510.25 1092.96 618.49 1250.12 640.12
00045864 00000009 1013.51 177.93 458.99 631.13 1106.84 395.15 1303.14 420.18 1166.82 515.99 1089.58 620.65 1247.56 643.42
00045865 DELETE   1010.99 175.36 457.46 637.63 1098.46 393.38 1290.35 421.99 1147.44 522.66 1078.76 622.18 1229.60 647.85
00045866 DELETE   1000.32 177.52 452.85 645.33 1096.48 393.57 1279.90 435.19 1134.01 527.53 1069.64 625.67 1207.21 661.26
00045867 00000012 1000.48 175.59 437.54 646.73 1085.62 390.71 1269.02 435.06 1131.34 540.81 1059.86 629.24 1197.52 668.23
00045868 DELETE   1004.46 181.45 440.58 650.23 1092.25 395.26 1270.95 441.98 1129.09 542.15 1065.36 634.95 1200.11 675.28
00045869 DELETE   1011.67 192.34 453.40 650.49 1098.02 411.92 1284.67 451.64 1128.95 537.39 1071.95 642.60 1216.27 676.21
00045870 DELETE   1015.30 191.18 457.21 650.14 1105.02 413.22 1289.91 454.87 1141.29 541.70 1083.29 640.73 1228.74 675.80
00045871 00000016 1020.46 195.99 453.75 632.77 1110.45 409.14 1293.17 454.40 1145.04 541.89 1085.95 633.09 1226.20 671.50
00045872 DELETE   1024.60 194.12 453.23 635.24 1119.98 402.20 1303.40 448.41 1155.85 539.72 1093.77 632.40 1230.82 672.32
00045873 00000018 1029.48 193.20 450.37 633.77 1122.65 397.86 1306.46 440.07 1159.60 537.42 1099.53 632.68 1234.93 669.56
00045874 00000019 1030.70 192.11 447.81 629.78 1124.55 393.94 1307.67 434.41 1161.65 526.92 1100.98 627.63 1240.15 662.72
00045875 00000020 1031.82 188.56 444.85 633.66 1121.17 392.70 1308.07 429.41 1161.46 525.01 1099.88 627.78 1247.88 659.86
00045876 00000021 1029.74 191.48 446.94 630.01 1121.80 393.02 1310.50 427.93 1166.49 524.81 1102.90 628.10 1251.06 658.63
00045877 00000022 1030.87 182.77 447.89 637.26 1120.10 390.76 1308.96 426.30 1164.33 523.07 1100.75 625.94 1251.55 657.10
00045878 00000023 1028.72 171.85 448.35 642.58 1111.10 392.20 1298.98 422.58 1153.24 517.31 1090.78 621.29 1247.09 648.26
00045879 00000024 1024.37 175.74 450.95 633.01 1104.89 387.71 1286.79 414.90 1146.27 512.71 1087.82 616.36 1237.52 640.46
00045880 00000025 1026.52 178.90 445.45 625.01 1102.26 383.85 1281.77 411.02 1139.19 510.80 1085.74 614.45 1231.58 638.51
00045881 00000026 1027.33 184.38 448.80 612.44 1103.48 383.22 1285.05 409.22 1143.66 510.15 1086.84 610.81 1236.52 633.45
00045882 00000027 1027.73 184.31 449.17 616.91 1107.26 384.09 1289.28 409.60 1148.21 507.43 1090.86 611.33 1240.44 633.69
00045883 00000028 1030.40 187.73 445.08 625.07 1110.79 384.41 1291.55 411.64 1150.05 506.19 1092.42 613.91 1242.23 637.86
00045884 00000029 1033.19 180.22 440.88 635.01 1114.25 384.04 1294.05 414.05 1152.18 506.51 1093.17 614.49 1241.00 641.00
00045885 00000030 1035.91 182.68 439.69 631.53 1115.81 385.41 1295.97 414.47 1153.16 506.31 1094.91 614.60 1242.41 640.45
00045886 00000031 1035.99 184.99 439.71 632.99 1117.31 386.13 1297.88 416.41 1153.79 506.11 1095.34 614.91 1245.89 641.68
00045887 00000032 1035.12 182.95 440.59 634.73 1116.89 389.35 1297.39 418.02 1154.91 506.32 1094.92 615.87 1246.84 641.50
00045888 00000033 1034.90 188.29 441.69 621.02 1113.63 390.20 1294.18 419.23 1151.02 506.82 1093.78 615.89 1238.81 641.61
00045889 00000034 1024.35 188.72 448.67 614.85 1110.57 388.72 1299.31 422.42 1154.88 508.73 1084.19 611.71 1242.65 641.03
00045890 00000035 1022.27 188.64 448.93 615.83 1113.05 388.41 1298.00 422.30 1155.73 507.03 1086.40 608.67 1243.65 637.92
00045891 00000036 1020.49 184.46 455.83 628.17 1113.24 384.07 1300.88 415.82 1159.79 502.64 1089.36 607.38 1254.52 634.84
00045892 00000037 1024.24 186.44 452.25 620.41 1115.98 379.70 1303.30 413.29 1160.53 498.51 1088.68 602.91 1252.03 632.22
00045893 00000038 1030.04 177.47 448.04 628.48 1115.54 374.63 1303.33 407.59 1159.47 495.06 1087.69 599.00 1256.72 627.86
00045894 00000039 1036.37 173.46 439.25 630.91 1114.63 375.26 1302.28 402.11 1161.73 493.56 1093.17 602.87 1259.23 626.70
00045895 00000040 1039.29 177.73 436.29 626.64 1118.03 374.75 1303.99 400.67 1163.83 490.70 1095.99 604.07 1254.84 627.27
00045896 00000041 1039.80 178.79 435.25 624.45 1120.65 374.67 1304.42 400.78 1162.44 487.54 1096.78 605.01 1245.25 628.74
00045897 00000042 1041.75 177.55 433.46 624.83 1122.61 372.67 1304.89 400.11 1162.10 486.76 1098.21 604.01 1243.83 628.74
00045898 00000043 1043.74 185.54 431.47 615.18 1125.15 369.42 1307.25 396.13 1165.16 483.62 1101.29 604.96 1245.20 628.86
00045899 00000044 1045.74 186.14 433.21 614.86 1127.27 370.34 1311.38 393.02 1167.33 479.13 1105.74 607.74 1248.17 628.20
00045900 00000045 1043.78 176.88 433.58 636.58 1128.72 369.70 1306.56 388.99 1168.57 473.38 1105.90 601.36 1248.74 619.48
00045901 00000046 1045.32 179.28 434.83 637.46 1132.52 368.51 1311.23 388.47 1172.26 472.79 1109.99 601.41 1256.21 620.03
00045902 00000047 1040.98 178.30 441.87 619.16 1133.33 368.77 1317.43 390.46 1178.71 480.50 1110.02 602.78 1258.34 621.96
00045903 00000048 1040.57 177.15 443.88 622.10 1136.20 366.09 1323.63 391.62 1183.21 479.52 1109.49 601.28 1260.68 623.79
00045904 00000049 1040.93 175.35 443.16 621.60 1134.80 363.78 1321.29 387.36 1181.59 476.34 1108.82 600.87 1259.38 621.89
00045905 00000050 1041.88 171.81 438.64 617.81 1134.18 355.59 1316.39 382.31 1178.00 472.73 1104.85 593.12 1254.74 616.48
00045906 00000051 1038.08 167.87 437.69 620.10 1130.01 356.06 1315.43 382.72 1178.92 473.11 1101.19 592.25 1252.93 616.02
00045907 00000052 1032.90 166.47 440.12 620.08 1126.99 354.09 1312.30 380.41 1174.95 470.18 1097.05 592.42 1249.03 616.06
00045908 00000053 1029.38 167.84 440.29 623.40 1122.99 351.10 1308.88 378.07 1170.62 467.89 1095.10 592.90 1250.18 616.71
00045909 00000054 1029.38 168.48 436.85 623.26 1117.96 352.63 1304.36 376.91 1167.60 471.95 1094.96 596.27 1247.69 617.60
00045910 00000055 1020.62 173.84 438.23 620.06 1110.90 358.58 1294.49 376.73 1164.32 471.59 1094.44 601.27 1243.25 617.44
00045911 00000056 1021.30 173.39 434.00 618.26 1103.74 358.68 1288.83 374.27 1157.96 472.51 1089.86 603.79 1242.24 617.69
00045912 00000057 1023.48 179.24 436.51 607.19 1102.77 362.72 1293.70 380.25 1154.99 473.24 1091.84 601.96 1246.44 616.84
00045913 00000058 1023.49 183.05 436.05 602.65 1103.31 363.18 1293.09 380.62 1156.66 475.20 1093.40 603.40 1244.53 618.34
00045914 00000059 1021.53 175.35 434.80 612.47 1104.60 362.60 1289.31 375.51 1160.71 472.52 1093.68 603.51 1244.32 615.20
00045915 00000060 1025.09 183.48 436.45 603.38 1107.07 363.37 1298.40 379.67 1164.04 475.78 1099.29 606.48 1248.60 620.52
00045916 00000061 1022.00 179.18 438.07 607.46 1108.04 360.60 1297.25 376.02 1166.38 472.12 1095.98 602.75 1251.05 616.01
00045917 00000062 1025.12 180.18 438.58 608.55 1111.41 362.69 1303.79 380.02 1170.17 476.44 1100.25 606.01 1256.07 620.85
00045918 00000063 1022.14 175.81 443.68 617.14 1112.95 358.18 1304.53 377.11 1171.39 472.10 1096.41 599.80 1257.27 616.24
00045919 00000064 1022.94 173.82 442.84 621.57 1111.63 357.98 1301.76 375.95 1169.12 472.91 1096.04 601.56 1254.67 617.17
00045920 00000065 1024.01 176.92 440.41 612.90 1109.54 360.49 1298.15 376.43 1164.92 474.15 1096.15 602.69 1250.56 616.65
00045921 00000066 1025.87 178.37 438.68 604.47 1107.49 365.54 1296.86 383.87 1161.84 481.31 1096.75 606.92 1247.73 622.75
00045922 00000067 1022.90 173.59 443.28 612.96 1108.19 364.72 1296.81 382.96 1161.77 480.14 1093.00 600.69 1249.25 616.45
00045923 00000068 1022.89 172.43 443.49 612.20 1107.84 364.29 1299.80 382.61 1163.22 476.82 1088.21 598.35 1252.79 614.07
00045924 DELETE   1027.18 175.02 432.80 587.68 1103.91 355.49 1293.18 381.78 1154.54 474.03 1086.84 589.87 1244.08 611.63
00045925 00000070 1017.48 165.01 442.36 590.70 1103.27 357.06 1282.92 385.31 1139.96 467.10 1084.13 575.63 1223.84 599.63
00045926 00000071 1015.07 158.89 434.37 587.61 1093.54 351.86 1282.58 376.73 1132.07 462.53 1069.89 571.88 1221.70 593.98
00045927 00000072 1017.68 167.68 434.96 590.70 1103.42 353.92 1278.80 386.78 1129.62 465.45 1074.90 571.81 1211.65 600.09
00045928 00000073 1024.93 161.43 428.96 598.46 1097.96 356.73 1277.08 379.14 1138.89 471.42 1077.89 580.97 1216.57 601.02
00045929 00000074 1023.52 168.59 434.03 591.93 1108.66 356.76 1286.92 389.61 1140.94 471.18 1083.95 577.27 1221.89 605.27
00045930 00000075 1026.26 169.18 433.44 593.36 1105.83 359.75 1287.21 388.00 1146.19 475.02 1084.55 584.63 1230.05 608.57
00045931 00000076 1028.77 167.04 434.36 592.54 1107.49 362.36 1291.16 382.39 1155.05 473.27 1087.85 584.30 1239.08 601.85
00045932 00000077 1032.92 163.57 434.38 593.30 1115.10 359.14 1301.91 383.67 1164.74 476.53 1091.75 581.74 1248.52 602.68
00045933 00000078 1035.62 167.26 434.30 586.55 1118.70 355.51 1306.81 382.75 1167.19 473.42 1092.75 578.98 1251.80 602.08
00045934 00000079 1038.24 169.80 433.03 582.31 1123.00 354.16 1308.35 382.48 1170.72 473.44 1096.36 577.29 1251.05 601.58
00045935 00000080 1039.09 167.81 429.61 585.65 1123.38 353.11 1307.28 380.36 1172.36 471.77 1098.13 578.87 1247.07 602.57
00045936 00000081 1038.86 169.72 433.10 586.41 1124.12 349.10 1311.53 379.09 1173.69 468.85 1096.53 577.79 1252.91 603.38
00045937 00000082 1037.79 168.09 436.40 601.62 1121.88 348.02 1309.40 377.92 1168.47 465.74 1093.35 581.91 1257.50 607.39
00045938 00000083 1036.18 167.62 438.10 602.70 1120.07 348.62 1310.88 379.40 1169.19 466.76 1090.14 582.88 1255.25 609.18
00045939 00000084 1035.30 166.26 440.74 603.68 1119.96 350.16 1309.06 379.99 1166.89 466.66 1090.06 581.08 1253.69 606.79
00045940 00000085 1035.11 168.13 441.03 603.18 1118.07 350.53 1306.67 379.36 1164.91 466.93 1089.49 581.61 1253.59 606.43
00045941 00000086 1034.03 168.24 441.63 604.61 1118.04 350.48 1305.13 379.30 1163.68 465.92 1089.02 581.08 1250.84 606.06
00045942 00000087 1033.33 166.48 441.94 607.11 1117.71 351.06 1306.00 379.81 1165.45 466.91 1088.19 580.47 1251.23 605.63
00045943 00000088 1034.14 168.14 439.93 599.15 1116.68 351.24 1303.69 378.30 1163.59 465.46 1089.88 577.24 1252.23 600.76
00045944 00000089 1034.24 166.38 439.36 596.36 1117.22 350.71 1303.19 378.60 1163.48 464.78 1090.40 574.78 1251.15 598.86
00045945 00000090 1035.51 164.39 437.33 594.74 1118.58 350.13 1304.06 378.84 1164.48 463.86 1091.92 572.49 1251.93 597.09
00045946 00000091 1037.27 162.64 434.27 592.10 1119.39 349.03 1306.49 378.52 1168.00 463.40 1093.02 571.14 1256.75 596.32
00045947 00000092 1037.59 167.99 432.48 581.89 1117.70 349.00 1309.57 379.09 1171.27 461.50 1091.32 568.64 1264.94 593.92
00045948 00000093 1041.18 167.43 428.59 581.84 1122.52 347.89 1308.42 379.53 1171.21 461.64 1092.54 566.55 1262.20 593.19
00045949 00000094 1041.12 167.88 429.16 577.94 1121.68 346.91 1310.71 378.15 1171.54 460.34 1091.39 565.61 1263.57 592.15
00045950 00000095 1041.62 163.68 426.87 581.22 1121.33 344.03 1306.65 377.71 1165.31 458.36 1089.60 563.54 1254.85 592.13
00045951 00000096 1039.76 162.43 429.03 582.88 1119.54 344.63 1303.89 378.90 1161.96 458.60 1088.32 562.47 1254.75 591.35
00045952 00000097 1040.25 167.07 427.90 579.59 1121.73 345.16 1309.61 377.80 1170.67 458.37 1091.13 565.42 1262.96 592.91
00045953 00000098 1042.83 166.45 425.42 578.65 1123.73 345.45 1313.97 377.94 1176.48 462.39 1093.05 566.69 1266.43 594.08
00045954 00000099 1043.85 163.11 426.76 580.37 1125.56 345.90 1315.42 379.20 1177.74 462.51 1092.78 566.14 1264.76 594.44
00045955 00000100 1042.92 164.23 430.52 579.25 1125.64 346.74 1316.79 377.45 1178.26 459.84 1095.35 566.30 1266.88 592.60
00045956 00000101 1045.30 164.27 425.92 581.25 1127.60 345.89 1317.99 377.38 1182.47 461.27 1097.84 566.05 1271.06 592.95
00045957 00000102 1046.94 168.57 426.77 575.89 1128.56 347.84 1317.17 378.35 1179.36 461.05 1099.56 567.63 1268.61 593.60
00045958 00000103 1045.94 161.99 429.74 583.08 1131.34 349.31 1318.73 380.20 1179.55 464.16 1098.58 571.49 1255.42 598.31
00045959 00000104 1048.54 163.80 435.06 582.49 1135.66 349.12 1325.12 383.28 1180.97 463.14 1098.14 571.28 1258.05 600.85
00045960 00000105 1050.91 167.74 435.17 578.98 1140.94 346.24 1328.78 378.77 1186.09 459.26 1105.36 567.74 1262.55 596.35
00045961 00000106 1053.42 166.54 432.26 578.15 1141.00 346.97 1330.70 379.21 1188.11 457.70 1107.17 566.12 1268.22 594.67
00045962 00000107 1052.39 167.27 434.77 581.63 1141.36 343.49 1331.55 375.74 1188.77 456.52 1108.68 564.39 1269.40 592.86
00045963 00000108 1050.73 173.62 439.86 577.56 1143.41 346.21 1335.85 377.81 1190.33 455.60 1108.99 570.11 1270.86 597.83
00045964 00000109 1052.41 173.19 440.51 572.42 1145.82 351.51 1338.30 380.94 1197.49 459.13 1117.64 572.01 1276.19 598.02
00045965 00000110 1056.36 164.81 437.13 572.22 1144.10 351.74 1341.29 378.59 1198.74 450.26 1115.36 569.86 1281.53 594.02
00045966 00000111 1052.27 168.06 434.05 568.18 1139.41 349.76 1340.66 377.29 1201.31 443.13 1109.04 567.06 1288.44 591.26
00045967 00000112 1049.55 166.97 432.36 561.70 1139.63 343.52 1332.74 369.26 1200.46 435.77 1107.21 556.19 1277.20 579.43
00045968 00000113 1047.59 167.12 432.98 563.56 1134.21 342.97 1327.58 363.50 1194.16 434.87 1106.55 554.60 1282.60 573.50
00045969 00000114 1048.29 170.24 432.35 559.24 1133.21 347.24 1327.90 364.89 1194.35 433.29 1107.77 558.72 1286.52 574.86
00045970 00000115 1050.32 171.05 430.17 553.61 1137.87 344.94 1332.87 363.00 1200.17 430.41 1114.82 555.18 1289.71 571.60
00045971 DELETE   1041.43 150.94 437.71 564.99 1136.02 339.61 1330.74 354.64 1199.04 409.48 1112.85 550.20 1280.02 564.49
00045972 00000117 1037.14 143.97 432.70 548.09 1132.89 332.74 1322.89 344.34 1199.71 393.48 1115.28 535.97 1284.60 546.58
00045973 00000118 1034.88 150.48 427.63 533.97 1130.85 329.14 1320.01 338.33 1201.83 388.39 1116.61 524.85 1289.79 532.77
00045974 00000119 1035.37 155.43 425.52 533.23 1128.05 333.10 1315.64 338.20 1198.15 390.52 1115.84 525.94 1286.62 530.65
00045975 00000120 1034.50 161.65 426.26 538.15 1125.04 342.53 1313.32 343.75 1194.47 394.32 1112.19 537.96 1281.16 540.00
00045976 00000121 1028.24 166.30 431.47 540.23 1122.56 344.37 1305.76 344.42 1187.68 396.57 1112.00 545.26 1270.31 546.08
00045977 00000122 1019.00 165.02 446.66 551.96 1116.47 351.73 1306.24 350.88 1175.44 404.99 1102.61 556.22 1274.39 556.21
00045978 00000123 1015.68 165.16 432.42 564.98 1100.61 352.32 1302.71 352.21 1166.87 408.33 1101.15 561.40 1273.22 562.86
00045979 00000124 1013.03 151.88 427.48 562.81 1092.91 352.37 1294.83 348.39 1157.94 402.58 1093.86 555.82 1267.91 554.73
00045980 00000125 1014.01 150.65 426.02 559.61 1092.86 343.74 1292.20 339.63 1155.46 400.47 1095.45 549.97 1268.88 548.38
00045981 00000126 1008.84 150.18 429.73 567.54 1088.79 348.71 1291.45 341.47 1155.21 398.84 1094.16 556.22 1269.23 552.49
00045982 00000127 1009.50 159.40 425.49 556.11 1090.41 348.72 1288.25 344.91 1155.55 399.81 1094.05 554.43 1263.78 553.45
00045983 00000128 1013.66 159.73 426.90 558.56 1091.51 351.33 1290.51 347.95 1154.26 404.08 1091.69 553.74 1266.23 552.92
00045984 00000129 1009.18 165.64 431.87 554.89 1089.74 355.09 1290.10 354.18 1154.82 409.90 1088.48 552.95 1268.11 553.76
00045985 00000130 1010.24 166.97 431.15 558.40 1085.33 358.39 1286.40 357.96 1145.15 419.51 1081.47 559.59 1262.38 560.16
00045986 DELETE   1007.24 169.65 430.39 558.11 1081.23 359.76 1282.08 364.70 1138.60 432.83 1075.49 564.43 1255.65 568.70
00045987 00000132 1001.78 164.58 434.70 567.47 1075.00 361.57 1276.94 362.90 1137.13 436.73 1075.32 567.58 1253.42 568.84
00045988 00000133 1000.42 164.72 432.21 564.84 1073.39 354.57 1271.62 354.55 1134.73 427.39 1072.49 564.65 1245.95 565.10
00045989 00000134 998.78 168.64 429.79 560.83 1077.93 344.50 1268.47 345.06 1137.64 415.09 1077.21 557.22 1232.62 559.25
00045990 00000135 998.28 164.55 428.59 567.63 1079.21 345.61 1271.41 344.70 1141.78 413.61 1078.08 558.44 1241.47 559.02
00045991 00000136 998.29 162.47 430.58 572.87 1080.79 347.62 1272.56 345.82 1144.47 414.67 1082.66 559.03 1249.60 558.20
00045992 00000137 999.01 165.73 432.12 569.49 1079.86 349.77 1271.98 347.77 1143.34 416.89 1081.80 559.65 1249.87 558.68
00045993 00000138 1000.76 167.59 430.78 567.53 1078.48 348.41 1270.40 350.28 1138.64 425.28 1075.95 558.45 1241.69 560.96
00045994 00000139 999.27 169.08 433.49 567.26 1077.48 354.14 1273.05 355.92 1137.61 434.85 1074.82 561.35 1242.79 563.64
00045995 00000140 996.61 167.03 436.64 572.55 1070.39 360.18 1268.20 359.22 1127.01 442.39 1070.73 568.10 1244.27 567.50
00045996 00000141 993.72 169.34 435.62 562.87 1069.10 359.98 1265.67 357.85 1127.01 438.75 1070.84 566.63 1240.90 565.15
00045997 00000142 992.35 170.03 434.25 574.90 1067.28 355.76 1262.77 351.15 1126.42 435.11 1070.48 568.85 1242.53 565.18
00045998 00000143 990.38 172.63 433.76 571.48 1066.31 354.16 1260.57 348.36 1125.67 429.75 1069.41 569.05 1238.44 564.80
00045999 00000144 992.40 171.24 430.25 568.33 1066.72 353.75 1261.45 349.32 1127.36 431.60 1068.25 567.29 1236.39 564.33
00046000 00000145 992.33 175.51 433.75 557.97 1067.68 354.57 1264.30 352.77 1129.90 433.82 1071.65 565.15 1233.55 564.29
00046001 00000146 990.56 166.53 437.94 571.23 1067.60 362.01 1266.66 357.13 1130.73 437.83 1072.52 569.21 1242.45 565.22
00046002 00000147 992.31 167.70 437.29 569.26 1069.30 363.37 1265.87 358.99 1131.68 438.73 1073.42 567.87 1245.64 564.02
00046003 00000148 992.00 169.81 438.71 568.60 1069.44 363.88 1266.76 358.76 1132.31 440.43 1075.06 570.16 1246.56 565.69
00046004 00000149 993.68 171.37 439.24 570.10 1071.47 366.34 1267.50 361.72 1133.80 443.52 1076.27 572.38 1248.20 568.26
00046005 00000150 995.06 170.58 439.78 572.08 1073.23 366.46 1268.46 365.26 1133.43 445.17 1076.31 573.01 1246.62 571.83
00046006 00000151 997.72 175.24 441.16 570.30 1077.14 363.02 1271.56 363.80 1134.67 443.63 1078.17 578.17 1239.45 579.58
00046007 00000152 995.55 168.45 444.80 588.15 1074.38 366.24 1270.39 365.08 1131.93 446.80 1076.79 585.22 1238.99 584.72
00046008 00000153 997.17 171.94 439.51 575.23 1073.35 365.50 1268.28 362.75 1131.26 443.58 1077.87 582.24 1234.21 580.98
00046009 00000154 998.25 175.29 437.27 569.87 1073.36 364.85 1268.19 361.22 1134.47 442.69 1079.48 576.03 1246.62 573.09
00046010 00000155 998.65 170.14 439.31 580.89 1072.90 366.55 1269.77 360.34 1134.81 444.12 1080.81 578.84 1252.57 573.40
00046011 00000156 999.46 169.80 437.69 576.13 1076.41 362.70 1267.25 362.66 1136.16 444.44 1082.91 575.12 1239.40 575.72
00046012 00000157 999.82 173.25 436.48 574.01 1075.59 360.07 1268.27 359.14 1134.38 442.04 1081.42 575.48 1240.33 575.49
00046013 00000158 999.61 171.88 435.25 573.79 1075.11 361.58 1269.32 358.97 1135.33 440.86 1081.25 576.10 1243.41 574.71
00046014 00000159 997.85 169.02 436.14 572.11 1074.35 365.66 1268.16 360.75 1133.00 439.77 1080.27 575.88 1243.79 572.53
00046015 00000160 997.74 168.60 435.05 569.74 1074.60 366.32 1266.54 362.23 1132.18 440.02 1080.22 576.01 1240.69 573.63
00046016 00000161 996.54 169.96 437.64 575.94 1073.65 365.90 1267.69 361.63 1132.89 440.28 1079.72 579.76 1241.82 576.90
00046017 00000162 993.67 164.94 437.71 593.36 1070.90 362.91 1263.51 356.40 1130.47 439.99 1078.43 582.47 1241.26 577.84
