Video ID: 	U7rb1j_dRKQ
H: 	1080
W: 	1920
FPS: 	29.97002997002997

FRAME INDEX X0 Y0 W H [Landmarks (5 Points)]

00034905 00000000 440.59 125.80 527.81 745.11 621.50 402.04 857.68 376.69 796.73 538.52 686.17 694.31 874.72 672.56
00034906 00000001 442.42 127.80 528.15 750.22 623.00 400.71 857.54 376.91 797.35 534.93 687.39 695.92 875.71 675.29
00034907 00000002 437.88 124.23 531.94 763.69 614.85 405.32 847.92 379.86 787.20 536.39 678.66 700.44 873.16 678.29
00034908 00000003 428.33 123.23 535.54 754.77 597.08 405.08 839.86 380.19 767.65 548.41 662.68 700.79 855.85 679.61
00034909 DELETE   423.47 124.55 535.91 751.25 585.71 404.81 829.52 384.24 747.27 552.88 647.41 700.25 835.43 682.93
00034910 00000005 419.00 130.01 535.06 738.59 578.20 401.98 824.29 374.89 742.27 543.65 650.14 703.83 827.73 679.73
00034911 00000006 424.06 128.08 529.40 734.65 575.94 412.24 824.04 381.61 741.00 546.68 645.78 708.76 829.26 682.30
00034912 00000007 421.87 125.53 530.88 738.86 573.11 416.19 821.63 380.25 740.57 548.15 644.84 708.91 833.54 677.78
00034913 00000008 417.60 124.00 531.74 738.92 567.10 419.24 815.66 381.53 732.86 551.73 639.96 709.97 827.85 677.48
00034914 00000009 409.85 132.99 533.53 734.26 560.42 410.50 804.63 382.42 720.39 556.56 633.46 706.57 811.49 681.47
00034915 00000010 409.37 137.36 530.26 730.29 553.46 422.40 792.72 393.45 708.43 563.84 622.68 706.46 804.46 683.14
00034916 00000011 402.80 138.90 533.33 730.64 546.32 427.33 784.44 394.94 700.60 564.32 619.66 711.48 800.70 685.31
00034917 00000012 398.36 138.52 537.28 740.73 542.82 429.28 780.48 395.47 697.08 566.63 619.91 716.02 799.20 688.59
00034918 00000013 395.98 141.54 535.99 740.77 539.66 429.42 776.87 393.94 695.66 565.55 620.76 719.50 796.13 690.63
00034919 00000014 390.70 141.07 537.42 745.71 534.62 428.44 774.00 393.26 691.47 566.42 616.75 721.64 791.30 693.03
00034920 00000015 383.15 141.97 538.87 749.90 533.92 426.26 772.06 394.26 686.17 569.32 613.59 724.01 783.41 695.40
00034921 00000016 377.98 138.28 541.38 756.42 530.23 425.53 767.23 390.79 683.40 569.95 612.04 726.94 780.87 696.18
00034922 00000017 377.99 137.71 540.66 755.11 530.19 425.52 766.86 390.15 684.50 570.24 613.73 726.55 780.45 695.30
00034923 00000018 377.97 138.08 539.99 751.68 530.60 425.12 767.35 390.45 685.01 569.06 614.07 724.76 779.39 694.13
00034924 00000019 381.43 135.32 539.02 756.59 528.23 428.04 765.77 390.51 685.38 567.85 614.39 723.26 782.95 692.55
00034925 00000020 381.15 135.39 537.81 752.69 528.16 430.64 765.97 392.75 684.02 571.18 611.98 722.60 780.85 691.83
00034926 00000021 382.29 138.44 536.34 750.52 528.66 438.19 766.40 402.64 681.98 572.39 608.19 724.65 779.61 695.43
00034927 00000022 380.96 141.13 538.36 747.77 525.28 443.21 763.94 405.75 677.74 575.20 608.46 727.41 778.68 696.51
00034928 00000023 376.89 141.01 539.75 743.80 519.49 442.40 761.79 404.97 673.39 580.61 602.99 727.42 777.56 696.34
00034929 00000024 373.33 137.64 541.32 746.98 513.12 441.20 758.18 403.08 666.81 581.37 592.15 725.79 773.88 694.25
00034930 00000025 370.02 137.69 543.05 749.96 507.38 441.46 754.17 402.78 660.64 583.53 585.10 727.09 769.52 694.80
00034931 00000026 365.12 139.18 547.36 744.76 500.53 442.26 750.48 402.96 653.56 585.16 580.74 728.64 763.33 695.72
00034932 00000027 362.11 138.90 549.26 745.77 496.46 441.20 746.31 402.35 647.87 587.87 579.58 729.79 757.42 697.18
00034933 00000028 360.11 140.30 548.68 741.74 491.68 441.33 741.43 401.28 642.45 587.81 577.82 731.02 752.67 697.43
00034934 00000029 359.09 141.01 547.75 738.01 489.21 442.28 737.79 402.03 638.60 589.34 575.97 731.68 748.94 697.94
00034935 00000030 357.15 140.89 551.11 739.91 486.82 442.90 736.72 403.18 635.69 591.96 572.64 733.75 748.04 700.37
00034936 00000031 354.93 141.56 554.57 748.22 486.59 444.68 736.59 404.87 635.23 593.95 570.98 738.37 748.26 704.77
00034937 00000032 353.47 142.75 556.96 753.99 485.73 446.03 736.09 406.98 633.36 595.60 567.43 740.04 747.92 707.00
00034938 00000033 353.86 143.68 556.21 755.79 486.72 444.32 736.24 407.38 632.84 594.68 567.06 738.80 744.82 707.73
00034939 00000034 358.08 142.80 551.06 744.79 488.16 442.28 738.64 406.57 634.10 595.41 566.00 731.54 745.50 701.53
00034940 00000035 361.16 141.67 550.98 744.16 493.83 439.87 746.61 403.60 643.45 593.33 573.07 727.36 753.58 696.98
00034941 00000036 369.40 139.83 548.60 753.63 507.93 437.30 756.38 400.95 660.28 584.64 586.54 728.12 768.29 697.76
00034942 00000037 383.09 140.60 541.04 753.46 524.54 432.93 768.63 396.08 681.05 578.25 601.76 726.24 782.97 696.19
00034943 00000038 395.94 137.88 542.27 755.60 553.02 435.33 790.57 400.17 709.42 572.71 623.23 720.56 807.23 689.87
00034944 DELETE   410.16 142.65 543.60 752.24 574.41 436.46 811.25 396.16 738.97 576.84 647.01 723.73 830.48 688.68
00034945 DELETE   421.27 136.87 543.22 766.43 592.72 437.25 835.33 401.51 763.56 581.38 665.08 723.82 853.23 693.62
00034946 DELETE   432.49 140.86 540.83 768.80 610.94 443.51 851.75 406.14 785.67 584.71 680.70 729.88 866.67 698.90
00034947 00000042 440.56 144.24 540.62 765.15 626.37 440.36 860.38 410.52 796.27 587.07 689.19 730.18 873.20 703.52
00034948 00000043 443.77 142.56 540.94 766.30 631.25 436.00 868.38 407.34 804.06 582.46 694.63 731.11 880.06 705.28
00034949 00000044 441.92 141.98 541.98 765.05 629.93 432.80 867.01 404.32 803.80 580.23 696.27 731.26 881.27 705.14
00034950 00000045 433.32 141.62 542.17 761.00 623.10 430.31 856.75 402.12 795.23 576.81 689.05 728.04 870.14 702.05
00034951 00000046 424.56 130.29 539.96 772.63 602.07 428.11 842.20 397.85 776.21 568.17 670.91 722.82 860.27 697.03
00034952 DELETE   412.07 138.50 541.94 752.19 583.61 424.77 822.45 394.70 750.03 571.87 654.29 723.68 833.54 696.60
00034953 00000048 399.79 138.39 539.02 749.89 563.10 428.35 802.37 396.59 725.04 578.72 636.20 727.71 815.76 699.24
00034954 00000049 392.53 144.10 536.72 748.58 538.16 439.66 777.63 403.68 697.06 582.25 615.83 731.61 795.31 702.27
00034955 00000050 373.41 142.22 542.14 754.45 515.91 439.50 764.53 399.26 678.71 591.38 599.14 735.67 783.56 702.30
00034956 00000051 360.32 144.23 546.68 750.35 503.24 443.10 755.84 401.39 668.23 596.79 587.31 737.83 774.67 702.64
00034957 00000052 354.67 145.48 549.03 749.61 495.66 443.75 750.06 399.25 662.21 598.34 584.47 739.47 770.37 701.94
00034958 00000053 354.18 146.22 547.47 743.09 493.86 443.81 748.91 397.79 661.56 598.02 584.86 739.45 770.07 700.78
00034959 00000054 357.10 146.86 544.81 737.45 495.93 444.76 749.59 397.28 664.48 596.60 588.52 740.48 774.52 700.66
00034960 00000055 362.04 145.82 544.51 742.80 504.22 442.55 754.84 397.61 670.60 592.53 594.80 738.52 779.85 700.83
00034961 00000056 368.73 141.39 543.76 750.34 511.57 438.37 759.28 394.97 675.88 587.16 600.41 735.53 782.94 699.54
00034962 00000057 375.49 143.47 542.10 748.83 517.79 436.94 764.01 393.82 681.98 585.90 608.12 734.06 787.50 698.44
00034963 00000058 381.27 143.20 541.20 744.68 521.82 437.36 767.05 394.28 684.65 583.18 611.23 732.00 790.88 696.62
00034964 00000059 385.77 146.38 541.60 743.01 525.81 436.72 770.08 394.32 688.10 582.25 614.71 732.04 793.73 697.38
00034965 00000060 390.13 144.80 541.45 751.00 531.64 437.25 772.62 396.56 692.08 581.71 620.03 733.73 795.51 700.50
00034966 00000061 385.59 142.90 543.59 754.50 539.26 433.93 778.74 400.04 694.37 581.52 619.28 732.16 795.85 702.02
00034967 00000062 386.29 143.86 544.34 755.13 542.41 434.51 780.61 401.27 696.87 582.00 620.08 731.89 797.66 702.22
00034968 00000063 386.69 145.91 545.59 753.28 543.68 435.38 782.05 401.67 698.73 581.86 620.94 731.63 799.89 701.52
00034969 00000064 387.69 145.51 544.27 749.42 544.11 434.84 782.33 401.49 698.83 581.19 621.74 729.17 799.86 699.18
00034970 00000065 388.34 142.99 543.49 749.47 545.00 434.47 782.60 400.71 699.51 579.16 622.22 728.18 800.53 697.79
00034971 00000066 387.67 142.49 544.97 752.22 545.06 433.90 783.46 400.38 700.23 578.84 622.80 729.02 800.99 698.91
00034972 00000067 387.51 140.07 544.45 756.77 545.53 434.14 782.49 400.51 700.34 577.79 623.05 729.89 799.85 699.74
00034973 00000068 386.92 142.77 544.26 753.92 544.95 433.88 782.07 400.01 700.59 577.75 622.48 730.07 800.22 699.70
00034974 00000069 386.70 141.77 544.28 756.11 545.01 433.34 782.32 399.75 700.70 576.95 621.20 729.38 800.55 699.21
00034975 00000070 387.34 141.29 544.14 751.00 545.29 432.02 783.05 399.60 700.01 576.35 620.76 725.44 799.48 696.12
00034976 00000071 394.48 142.21 542.19 754.62 543.09 434.96 780.99 398.39 701.38 575.51 624.02 726.18 798.83 696.54
00034977 00000072 395.48 143.90 540.07 749.80 541.69 433.80 782.27 397.79 700.42 577.65 620.05 726.33 797.24 697.37
00034978 00000073 395.30 141.56 540.78 752.50 543.00 432.03 783.26 397.18 700.74 576.64 619.40 724.34 796.84 696.41
00034979 00000074 396.30 141.30 539.83 751.84 544.51 431.37 784.07 397.13 702.08 575.10 620.48 722.97 797.13 695.46
00034980 00000075 398.37 142.87 541.02 753.23 547.70 432.85 786.68 397.66 707.14 574.98 624.13 722.55 804.84 693.92
00034981 00000076 401.52 147.60 536.26 738.16 549.15 438.01 787.22 396.58 713.62 577.64 628.44 721.77 816.22 688.00
00034982 00000077 396.04 148.45 543.49 754.76 559.60 436.84 794.80 396.44 720.17 577.34 631.73 723.33 824.34 687.22
00034983 00000078 398.84 148.83 544.40 769.26 563.48 436.79 799.32 397.31 725.07 578.41 634.95 730.41 828.31 695.42
00034984 00000079 399.63 149.17 544.75 771.19 565.64 438.43 802.06 400.62 727.87 578.84 638.50 734.99 828.30 701.68
00034985 00000080 400.62 149.93 542.93 769.68 566.14 437.15 803.18 402.12 727.59 579.35 640.62 738.13 822.93 707.32
00034986 00000081 400.69 149.55 541.23 759.64 563.31 436.78 802.43 401.95 724.79 578.60 639.53 736.91 818.30 706.40
00034987 00000082 397.89 147.06 541.95 754.24 556.73 437.17 799.23 402.78 718.70 581.95 635.19 734.26 814.35 704.14
00034988 00000083 395.85 149.01 543.34 744.02 549.35 439.05 794.96 406.10 708.57 584.38 628.10 731.04 809.84 702.15
00034989 00000084 402.82 151.49 539.94 740.79 545.41 443.79 787.70 407.74 701.25 586.18 625.22 731.62 802.51 702.50
00034990 00000085 399.16 149.59 540.98 739.72 538.24 440.64 783.21 405.82 693.53 583.94 616.97 730.58 795.65 702.32
00034991 00000086 393.05 147.79 544.91 743.80 532.14 437.89 778.30 402.85 686.94 583.51 610.98 729.09 791.31 700.43
00034992 00000087 388.84 147.94 545.29 739.67 525.76 435.97 774.38 401.10 680.90 584.73 605.06 727.24 787.25 698.67
00034993 00000088 384.29 149.00 548.07 736.50 522.00 434.73 771.01 398.44 677.99 582.62 603.03 726.10 785.41 696.29
00034994 00000089 386.12 145.02 542.90 730.78 520.18 433.45 767.28 396.86 673.59 579.44 599.03 722.51 783.07 692.66
00034995 00000090 384.21 139.84 544.16 734.47 520.38 431.66 763.45 395.91 670.57 573.97 598.31 718.82 779.24 689.59
00034996 00000091 384.83 136.25 543.80 739.14 521.02 429.27 762.01 394.49 669.87 571.23 597.76 716.08 779.50 687.70
00034997 00000092 385.30 135.25 543.68 740.00 520.81 428.72 761.26 393.84 669.11 569.82 597.01 714.27 779.76 685.80
00034998 00000093 384.86 135.59 544.24 740.56 520.41 427.73 761.61 392.98 668.86 569.38 595.97 714.09 779.52 685.81
00034999 00000094 383.96 133.77 544.66 740.47 519.88 427.26 761.10 392.42 668.08 569.09 595.55 713.50 778.72 685.17
00035000 00000095 383.26 132.84 544.15 740.17 519.53 427.43 760.50 392.10 668.02 568.69 595.70 713.62 778.38 684.92
00035001 00000096 383.26 133.39 544.01 741.18 519.70 427.72 760.49 392.30 668.47 568.69 595.88 714.15 778.76 685.34
00035002 00000097 382.70 134.53 544.07 741.02 519.26 428.44 760.39 392.86 668.42 569.83 595.45 715.76 778.41 686.78
00035003 00000098 383.07 134.43 543.06 740.34 519.14 429.90 760.49 393.56 668.61 570.56 595.88 716.70 778.72 687.09
00035004 00000099 381.29 136.27 543.88 738.22 517.88 430.76 759.99 393.94 668.38 572.57 596.54 718.55 778.28 688.43
00035005 00000100 381.53 135.66 543.50 740.13 517.95 432.12 759.45 394.73 668.26 572.48 596.91 719.99 778.21 689.36
00035006 00000101 381.17 137.96 544.70 739.67 517.13 432.94 760.59 394.92 668.96 573.93 597.97 721.86 779.03 690.69
00035007 00000102 381.48 137.33 544.92 739.85 518.22 433.23 761.24 395.00 670.46 573.60 599.62 722.41 779.50 691.06
00035008 00000103 382.59 139.42 544.45 738.75 518.91 433.10 761.80 395.13 671.21 574.78 600.68 722.66 779.70 691.56
00035009 00000104 382.76 139.92 545.19 739.48 519.51 433.02 763.20 395.18 672.82 574.90 600.92 723.14 780.97 692.17
00035010 00000105 384.68 140.19 543.62 738.09 520.23 433.59 763.71 395.80 673.09 575.39 600.98 722.72 782.14 691.88
00035011 00000106 384.84 140.04 543.64 739.92 520.91 432.84 764.69 395.65 674.28 575.29 601.20 722.68 783.16 692.30
00035012 00000107 384.98 141.50 543.64 739.98 521.52 432.36 765.42 395.66 675.15 574.92 601.16 722.93 783.14 692.96
00035013 00000108 384.84 140.58 545.36 746.39 523.13 432.04 765.45 395.82 676.22 574.36 603.40 723.92 782.83 694.36
00035014 00000109 385.48 140.10 545.19 752.28 524.59 430.84 765.44 396.09 676.83 574.28 603.84 726.58 781.50 698.36
00035015 00000110 385.82 140.18 543.25 748.21 523.89 430.55 765.14 396.40 675.98 574.23 601.41 725.59 779.97 697.92
00035016 00000111 384.96 139.21 544.16 743.60 522.75 430.74 765.64 395.65 675.67 575.32 601.37 723.32 780.71 694.82
00035017 00000112 385.88 139.67 544.04 745.18 523.76 430.77 766.86 395.79 676.82 575.52 602.33 723.85 781.59 695.46
00035018 00000113 386.30 140.11 544.84 745.52 524.60 431.42 768.53 396.18 678.26 576.79 602.68 724.67 783.06 696.05
00035019 00000114 381.27 138.95 549.55 757.95 529.53 426.12 772.97 397.17 678.61 576.18 602.08 725.40 779.94 699.48
00035020 00000115 380.29 139.40 553.54 771.21 531.87 425.51 772.52 394.99 680.12 571.90 605.10 729.19 783.93 702.11
00035021 00000116 388.02 133.47 546.80 757.77 536.14 421.23 776.84 389.36 685.40 562.50 612.39 723.87 789.21 695.71
00035022 00000117 394.03 130.90 541.52 749.93 538.88 418.91 776.55 386.80 691.76 552.88 618.81 710.46 791.94 684.39
00035023 00000118 396.96 122.98 541.46 758.03 542.45 412.81 778.36 380.97 694.71 541.57 616.20 700.36 797.54 674.81
00035024 00000119 399.75 126.15 538.52 748.64 551.57 410.74 785.12 379.92 705.20 533.68 622.63 693.79 801.74 668.98
00035025 00000120 397.88 126.55 543.32 750.40 555.38 408.61 794.58 372.12 712.13 529.22 629.69 698.05 811.66 664.86
00035026 00000121 399.59 126.10 542.59 748.24 554.93 410.11 794.78 371.62 711.67 527.63 629.89 698.61 815.65 663.56
00035027 00000122 399.64 128.05 543.00 747.46 554.69 410.63 795.53 372.41 711.37 526.65 627.90 698.29 818.31 663.13
00035028 00000123 398.27 128.95 542.81 758.18 558.05 409.61 796.85 373.40 715.76 521.66 629.59 699.49 819.23 666.02
00035029 00000124 400.21 130.30 541.15 756.37 560.26 409.33 799.70 374.56 719.62 525.60 633.49 702.89 818.83 671.00
00035030 00000125 400.42 131.62 540.13 751.70 559.76 412.60 799.58 379.40 717.41 532.83 631.44 704.63 816.36 674.00
00035031 00000126 404.36 136.51 534.41 741.23 555.81 420.38 790.48 392.63 711.27 546.02 629.92 705.53 808.75 682.49
00035032 00000127 402.80 134.10 535.43 737.26 550.51 423.31 787.72 396.60 703.17 550.88 618.31 703.23 804.27 681.31
00035033 00000128 402.32 135.73 534.25 737.25 549.24 421.28 787.03 396.44 701.18 550.14 615.38 703.11 801.43 682.68
00035034 00000129 402.17 135.11 534.36 735.83 548.82 417.90 787.98 392.56 701.74 548.36 616.44 701.62 802.38 680.93
CROP_BBOX: 108 0 1229 1080
