Video ID: 	G22upQo_FAo
H: 	1080
W: 	1920
FPS: 	25.0

FRAME INDEX X0 Y0 W H [Landmarks (5 Points)]

00000230 00000000 864.78 189.35 485.44 719.97 969.88 477.78 1199.97 472.06 1084.49 629.49 1005.91 737.27 1194.17 732.62
00000231 00000001 858.13 187.63 490.08 724.01 964.02 474.44 1194.65 470.93 1078.27 629.19 998.25 733.15 1189.01 729.89
00000232 00000002 851.00 185.47 494.65 728.13 961.81 473.37 1190.50 471.82 1064.82 628.40 987.16 729.15 1183.95 727.86
00000233 00000003 847.59 185.35 493.69 727.91 957.56 474.35 1184.30 471.69 1059.37 628.89 981.88 726.74 1180.22 724.56
00000234 00000004 844.35 187.45 493.80 726.21 955.28 473.17 1181.10 471.11 1057.30 628.27 980.08 727.05 1176.66 725.48
00000235 00000005 842.46 186.72 495.18 729.25 953.67 470.98 1179.96 468.72 1056.12 626.04 978.06 726.33 1175.90 724.58
00000236 00000006 841.30 181.51 489.30 735.66 949.29 467.83 1176.46 465.87 1061.00 622.22 977.00 727.20 1175.46 725.11
00000237 00000007 840.30 181.10 488.18 734.43 948.21 466.96 1174.96 464.02 1060.57 621.35 977.39 726.22 1174.90 723.33
00000238 00000008 845.40 182.51 484.40 727.41 950.84 469.49 1175.07 462.60 1061.77 620.20 983.62 729.19 1176.39 723.07
00000239 00000009 845.81 184.49 484.33 722.81 951.87 470.67 1175.38 461.84 1063.45 620.24 987.53 730.12 1177.81 722.44
00000240 00000010 847.47 184.86 482.27 717.41 952.72 471.07 1175.76 460.16 1066.48 618.83 992.37 731.37 1178.05 722.15
00000241 00000011 847.12 185.11 481.98 717.42 952.89 472.08 1176.25 460.00 1067.81 619.02 993.76 732.17 1179.14 721.95
00000242 00000012 840.26 181.66 487.16 722.58 949.89 470.01 1177.72 459.98 1070.01 621.41 992.64 730.44 1182.69 721.75
00000243 00000013 843.85 182.15 485.80 727.02 953.91 475.47 1182.10 463.87 1075.74 621.26 995.64 733.37 1188.99 723.37
00000244 00000014 843.70 180.86 489.71 729.71 961.13 480.55 1186.77 470.21 1082.98 619.47 996.98 730.07 1193.96 720.88
00000245 00000015 846.76 180.55 486.45 726.38 964.33 481.51 1191.92 465.62 1090.97 616.66 1004.18 729.19 1204.24 715.88
00000246 DELETE   856.13 182.11 481.65 715.12 975.14 483.40 1200.81 463.11 1101.04 613.89 1021.18 730.32 1210.64 713.23
00000247 00000017 858.63 178.75 478.70 712.45 985.82 480.81 1208.90 452.94 1120.67 609.97 1040.32 723.37 1228.90 700.41
00000248 00000018 857.58 177.33 479.97 704.03 991.27 479.84 1214.34 444.40 1133.74 606.93 1052.54 718.91 1240.69 690.13
00000249 00000019 854.25 176.02 487.83 703.68 995.09 477.34 1220.73 436.07 1144.55 600.37 1062.00 717.99 1251.82 684.42
00000250 00000020 850.86 174.06 494.75 702.89 995.16 475.93 1220.87 430.34 1147.74 598.16 1066.58 716.67 1255.41 679.49
00000251 00000021 851.47 174.24 495.00 701.95 996.70 473.04 1223.46 427.05 1151.53 596.36 1069.45 716.10 1258.57 678.66
00000252 00000022 845.66 173.51 498.15 709.83 997.13 467.77 1222.19 425.71 1156.26 591.80 1070.47 722.28 1260.07 685.66
00000253 00000023 845.94 172.36 498.60 717.46 1005.43 463.13 1225.46 426.14 1163.14 589.36 1073.62 721.71 1257.90 689.14
00000254 00000024 849.69 170.99 493.63 721.69 1012.51 461.61 1230.58 429.21 1170.61 588.05 1075.70 720.58 1260.04 691.60
00000255 00000025 852.66 168.49 492.44 723.93 1018.62 459.68 1237.29 429.83 1177.70 585.12 1079.42 717.97 1264.41 690.84
00000256 00000026 856.00 169.89 491.50 720.14 1022.62 458.03 1240.53 428.55 1181.91 582.86 1085.92 717.38 1267.89 690.45
00000257 00000027 861.67 171.34 491.67 713.92 1026.85 457.51 1247.79 427.05 1188.40 581.06 1095.75 719.90 1274.91 692.26
00000258 00000028 871.99 174.54 488.43 703.33 1032.19 459.22 1255.86 426.84 1194.10 585.00 1107.57 723.80 1281.99 694.89
00000259 00000029 877.29 179.19 490.49 714.76 1041.83 465.41 1266.01 428.54 1206.01 595.14 1118.17 735.88 1293.47 703.41
00000260 00000030 881.21 181.63 488.82 722.74 1050.76 467.64 1276.29 433.87 1216.74 598.77 1125.89 742.75 1300.70 713.03
00000261 00000031 886.11 184.02 486.57 717.24 1055.57 466.26 1281.55 432.67 1221.99 598.67 1131.87 744.12 1303.94 714.32
00000262 00000032 895.46 166.22 479.83 737.16 1061.04 462.94 1281.88 434.89 1223.00 592.83 1133.09 727.81 1309.50 703.10
00000263 00000033 900.11 163.76 475.92 731.89 1065.08 456.34 1282.68 429.24 1225.12 584.31 1134.34 719.07 1309.49 695.28
00000264 00000034 902.99 160.64 473.47 727.33 1070.40 452.08 1283.83 425.31 1228.15 576.21 1136.53 708.63 1311.35 685.27
00000265 00000035 905.35 161.83 476.60 722.31 1072.00 446.09 1285.12 419.37 1230.21 566.61 1137.70 703.15 1314.77 680.03
00000266 00000036 905.40 159.92 477.35 724.14 1071.86 441.24 1285.95 416.55 1230.18 560.17 1136.57 700.77 1314.54 679.31
00000267 00000037 903.04 156.54 477.52 721.79 1070.32 434.78 1283.97 413.20 1226.15 555.36 1132.22 694.29 1309.21 675.63
00000268 00000038 899.74 151.96 477.76 717.97 1066.27 431.16 1279.79 410.27 1220.31 553.95 1124.90 689.33 1301.93 671.38
00000269 00000039 897.40 150.79 477.01 708.14 1061.17 431.53 1279.92 409.92 1217.30 555.54 1117.96 687.75 1300.38 669.33
00000270 00000040 896.41 154.26 479.51 710.82 1060.52 439.73 1281.48 417.08 1218.47 561.91 1118.47 694.56 1302.95 675.02
00000271 00000041 894.87 160.55 479.96 717.14 1060.37 452.40 1281.71 428.44 1217.62 579.64 1119.13 706.36 1302.55 685.56
00000272 00000042 889.77 166.38 484.18 731.80 1053.31 463.13 1278.24 439.14 1211.71 600.52 1115.26 725.28 1298.66 704.18
00000273 00000043 884.57 182.75 484.76 716.56 1052.67 464.88 1278.56 434.76 1214.89 602.34 1116.21 737.22 1295.48 710.87
00000274 00000044 880.89 178.61 486.85 718.04 1051.53 458.83 1276.48 431.35 1213.37 597.02 1112.01 731.21 1292.28 706.79
00000275 00000045 880.54 170.28 487.22 718.11 1048.79 451.32 1276.48 424.73 1210.99 586.46 1108.36 722.53 1292.56 698.90
00000276 00000046 876.51 168.70 487.77 711.84 1041.54 448.53 1268.10 423.55 1200.41 576.80 1101.61 715.76 1281.27 693.30
00000277 00000047 873.30 167.89 486.91 713.68 1035.61 452.68 1261.29 428.57 1192.69 580.17 1090.76 712.78 1275.91 690.85
00000278 00000048 867.36 168.54 490.73 715.71 1026.53 451.53 1250.11 430.40 1179.51 583.11 1077.96 711.26 1263.61 691.49
00000279 00000049 869.10 168.55 486.60 717.86 1019.09 450.62 1244.71 429.71 1170.19 586.63 1069.53 713.21 1255.95 693.72
00000280 00000050 870.93 168.48 486.16 714.98 1015.97 450.90 1244.42 430.14 1166.92 589.48 1065.47 713.05 1254.05 694.01
00000281 00000051 871.95 171.98 487.10 712.22 1013.23 453.84 1243.77 433.50 1163.57 593.83 1060.70 713.77 1252.77 695.65
00000282 00000052 873.18 172.04 489.32 715.41 1014.72 455.27 1246.95 435.46 1164.42 597.30 1060.12 715.17 1253.71 697.63
00000283 00000053 873.85 172.06 488.85 716.24 1014.72 453.45 1246.72 434.91 1163.56 595.04 1059.01 713.81 1253.14 697.18
00000284 00000054 874.20 171.02 487.71 716.65 1014.56 448.81 1246.55 431.41 1161.62 589.45 1056.86 708.36 1252.55 692.47
00000285 00000055 877.27 169.91 485.54 715.47 1014.87 445.62 1246.69 430.33 1159.14 585.39 1053.16 702.86 1252.37 688.80
00000286 00000056 879.76 167.66 483.02 713.71 1014.99 443.81 1247.08 429.17 1157.74 583.04 1053.66 701.57 1252.44 687.78
00000287 00000057 880.15 166.63 485.00 715.45 1016.49 443.83 1248.92 427.87 1159.74 583.84 1057.10 702.79 1255.00 687.66
00000288 00000058 880.30 168.01 486.28 715.06 1015.86 446.14 1249.60 429.39 1159.97 586.15 1058.85 706.67 1255.68 691.15
00000289 00000059 882.54 169.63 486.24 713.53 1017.76 447.45 1250.87 431.33 1160.68 588.74 1059.63 706.33 1256.16 691.36
00000290 00000060 882.96 170.36 486.61 712.43 1018.15 448.46 1251.71 432.63 1160.80 590.62 1060.07 707.26 1256.23 692.55
00000291 00000061 884.48 170.03 487.22 712.59 1018.78 449.75 1252.08 434.95 1159.69 592.97 1059.74 707.91 1255.45 694.12
00000292 00000062 893.98 160.05 483.98 729.45 1027.39 459.53 1253.77 448.10 1154.83 597.70 1057.14 707.04 1258.04 696.67
00000293 00000063 897.28 161.70 482.94 737.42 1030.31 461.93 1258.34 455.86 1154.08 599.61 1054.75 712.32 1253.43 706.44
00000294 DELETE   901.03 161.80 481.18 734.54 1035.45 457.89 1259.87 457.58 1155.99 600.29 1056.96 713.05 1244.47 712.60
00000295 00000065 905.73 157.74 479.25 727.72 1037.26 449.39 1261.71 448.86 1159.11 592.88 1060.50 707.38 1245.60 706.96
00000296 00000066 908.80 156.32 475.48 722.08 1039.35 442.41 1261.16 440.66 1160.99 585.73 1065.94 701.05 1247.02 699.96
00000297 00000067 907.55 153.57 475.49 722.02 1038.15 438.78 1258.05 436.09 1159.02 579.19 1068.56 696.15 1248.05 694.22
00000298 00000068 904.68 153.79 476.94 719.39 1031.05 436.99 1254.37 431.58 1153.91 578.41 1062.26 694.94 1247.75 690.69
00000299 00000069 902.76 152.63 478.38 722.57 1027.76 438.09 1252.18 431.48 1151.13 579.03 1057.51 694.81 1247.84 689.29
00000300 00000070 895.39 155.85 481.94 720.67 1025.15 436.54 1252.16 431.59 1153.33 575.88 1057.48 699.35 1240.89 693.38
00000301 00000071 893.80 159.62 483.05 723.27 1020.60 437.96 1249.80 433.18 1148.91 581.79 1050.34 702.41 1238.56 696.63
00000302 00000072 891.20 164.61 480.92 724.72 1014.29 443.31 1244.81 436.37 1144.33 590.71 1046.48 707.32 1235.61 700.29
00000303 00000073 884.29 179.11 481.70 715.85 1004.47 451.31 1234.01 439.79 1132.36 600.61 1041.22 715.14 1229.52 704.64
00000304 00000074 875.29 180.42 482.53 721.06 991.51 461.42 1219.71 446.89 1117.89 605.08 1028.24 719.58 1223.45 707.08
00000305 00000075 868.10 178.74 483.26 723.27 978.65 466.21 1206.49 451.83 1101.19 612.83 1020.15 724.30 1212.10 712.11
00000306 00000076 867.05 176.17 485.77 719.95 970.27 460.53 1196.21 444.55 1090.24 614.36 1021.27 723.99 1206.86 710.64
00000307 00000077 860.58 175.77 484.45 717.10 961.03 456.69 1187.88 441.17 1082.06 611.24 1013.37 722.96 1198.11 710.17
00000308 00000078 852.75 173.40 485.72 727.51 957.85 454.12 1184.41 439.79 1078.22 605.22 1005.97 720.22 1192.59 708.45
00000309 00000079 847.25 171.32 485.27 728.23 953.63 453.31 1179.79 439.37 1073.61 601.88 997.99 716.44 1189.85 704.70
00000310 00000080 845.23 168.79 483.72 730.26 951.05 453.24 1177.23 439.30 1070.36 601.59 992.20 715.14 1186.89 703.27
00000311 00000081 844.11 168.73 481.53 731.57 949.34 454.63 1174.51 440.39 1067.80 603.74 991.61 717.67 1183.56 705.60
00000312 00000082 843.08 172.51 482.23 731.38 948.61 457.22 1173.44 442.12 1066.59 607.41 991.48 722.01 1181.75 709.34
00000313 00000083 843.22 178.96 482.68 729.36 949.46 460.57 1173.32 445.33 1066.47 609.57 993.16 726.74 1178.53 714.02
00000314 00000084 836.16 180.15 487.83 725.92 946.31 462.06 1168.86 450.87 1062.56 612.22 990.22 725.55 1173.54 716.00
00000315 00000085 838.17 181.13 486.19 726.96 948.13 463.39 1169.58 453.10 1063.66 613.17 990.85 726.30 1173.43 717.61
00000316 00000086 838.18 180.03 487.89 728.23 948.82 462.62 1170.08 452.53 1063.97 612.48 991.99 726.14 1172.91 717.64
00000317 00000087 839.98 179.70 486.30 724.16 949.62 461.81 1171.29 451.00 1065.34 610.39 993.80 725.53 1173.43 716.40
00000318 00000088 848.28 181.23 481.69 723.37 954.32 459.92 1177.16 447.77 1070.33 608.76 998.82 726.56 1178.16 716.54
00000319 00000089 850.62 178.89 480.81 725.81 955.11 458.19 1178.14 446.59 1070.93 608.95 999.62 724.36 1181.65 714.71
00000320 00000090 844.94 175.36 485.45 727.13 952.63 460.62 1175.97 448.36 1068.94 609.08 997.43 723.05 1182.80 712.34
00000321 00000091 848.48 175.75 485.03 729.42 955.39 462.25 1178.87 449.96 1071.65 610.29 998.97 722.83 1186.51 712.15
00000322 00000092 849.77 177.22 486.07 729.19 957.34 463.86 1180.76 450.68 1074.40 611.57 999.95 722.35 1190.66 710.88
00000323 00000093 851.78 180.67 486.63 727.89 958.32 465.88 1183.36 451.89 1076.79 613.96 1000.51 723.88 1193.84 711.83
00000324 00000094 852.18 181.90 486.57 727.69 959.70 467.07 1184.50 452.82 1078.83 614.94 1002.33 725.25 1195.84 712.98
00000325 00000095 852.91 181.81 486.37 729.14 960.94 468.32 1186.02 453.71 1080.66 615.91 1003.12 727.07 1196.92 714.59
00000326 00000096 853.00 181.95 486.02 729.40 960.36 468.34 1185.98 453.12 1080.31 615.97 1003.40 727.83 1197.35 714.87
00000327 00000097 853.15 182.04 485.64 730.26 960.74 468.90 1186.06 453.25 1081.02 616.22 1003.82 728.35 1197.89 715.06
00000328 00000098 853.27 181.66 486.00 731.28 960.68 469.36 1186.42 453.51 1081.03 617.03 1003.79 729.02 1198.61 715.54
00000329 00000099 854.32 182.54 485.63 729.00 961.60 470.79 1188.64 456.26 1083.05 617.93 1003.59 729.07 1198.88 716.64
00000330 00000100 856.75 182.75 486.00 728.57 969.24 477.19 1194.72 468.91 1086.76 620.38 1003.18 728.19 1199.08 721.04
00000331 00000101 860.12 182.82 482.89 718.15 973.01 480.89 1197.09 472.06 1091.09 620.87 1011.50 727.51 1200.13 720.36
00000332 00000102 863.31 185.08 480.83 708.36 976.64 478.03 1201.87 471.87 1094.40 620.90 1014.18 725.23 1201.16 720.25
00000333 00000103 867.57 185.10 479.71 712.41 980.50 475.34 1204.77 467.53 1098.35 618.29 1016.01 725.20 1204.73 718.72
00000334 00000104 868.50 185.03 480.25 712.02 982.50 470.98 1207.59 462.41 1102.24 612.58 1016.40 722.10 1205.69 715.28
00000335 00000105 868.99 181.22 481.34 712.31 984.35 464.15 1208.73 455.59 1104.59 606.75 1017.71 716.40 1206.84 709.33
00000336 00000106 870.33 176.85 479.71 716.41 987.65 458.27 1211.77 450.08 1108.60 599.97 1020.21 712.77 1207.47 705.96
00000337 00000107 870.17 176.01 479.91 720.18 989.23 457.23 1212.32 447.70 1111.47 597.47 1023.57 713.72 1210.53 705.71
00000338 00000108 871.47 176.77 479.41 721.46 988.70 458.92 1213.49 448.36 1112.52 600.61 1024.04 718.15 1211.92 709.17
00000339 00000109 871.90 183.06 479.50 720.59 988.48 463.32 1213.41 451.51 1113.20 607.04 1026.29 724.13 1213.37 714.22
00000340 00000110 873.02 186.72 478.43 718.91 989.31 469.82 1213.16 458.08 1113.04 615.33 1029.31 730.69 1212.34 720.89
00000341 00000111 874.17 193.22 477.75 715.00 989.47 475.12 1213.48 464.51 1112.92 621.14 1029.05 737.02 1209.10 728.50
00000342 00000112 873.70 195.12 478.29 716.75 987.46 477.34 1212.09 468.54 1109.14 625.32 1025.82 739.58 1207.55 732.62
00000343 00000113 871.26 194.09 480.24 715.90 984.28 477.07 1210.18 467.28 1105.95 624.92 1021.33 736.62 1207.75 728.79
00000344 00000114 869.90 191.12 480.41 715.17 982.03 472.04 1208.51 460.40 1104.81 621.01 1021.17 730.51 1210.02 720.77
00000345 00000115 867.61 186.35 482.85 712.96 978.93 466.89 1208.28 454.95 1102.53 613.79 1017.57 725.36 1209.84 715.33
00000346 00000116 867.44 177.78 484.85 722.55 981.06 458.17 1207.55 448.14 1102.04 605.92 1019.40 720.64 1207.04 712.51
00000347 00000117 867.52 174.45 481.50 718.42 980.25 455.82 1205.13 444.39 1101.90 603.33 1020.72 716.49 1205.93 707.15
00000348 00000118 865.70 175.15 481.70 715.73 979.25 455.61 1204.72 443.38 1101.91 602.68 1019.71 715.01 1205.71 705.08
00000349 00000119 864.74 175.45 481.88 718.46 977.82 456.33 1203.34 444.11 1100.43 604.88 1020.19 718.47 1205.13 708.52
00000350 00000120 862.66 177.39 484.55 726.54 976.55 458.39 1202.81 446.76 1099.67 606.26 1018.66 722.20 1205.27 712.63
00000351 00000121 854.62 176.52 484.58 724.50 971.11 461.91 1200.17 449.44 1097.44 610.10 1012.43 722.21 1203.39 711.44
00000352 00000122 860.79 179.35 482.47 721.02 973.09 460.46 1201.55 448.47 1097.11 609.63 1015.82 725.30 1202.55 715.62
00000353 00000123 861.06 180.30 480.83 714.35 972.82 460.74 1201.34 448.60 1096.58 610.04 1015.49 723.75 1200.08 713.99
00000354 00000124 860.27 182.18 481.05 713.88 971.67 460.52 1200.64 447.43 1096.34 608.59 1016.17 725.25 1200.01 714.78
00000355 00000125 859.48 181.65 481.34 720.22 972.19 460.08 1199.46 447.42 1096.51 607.73 1015.85 725.94 1199.19 715.76
00000356 00000126 852.60 180.52 480.93 716.22 969.44 461.48 1196.03 450.93 1094.47 609.25 1009.90 721.36 1196.40 712.32
00000357 00000127 859.51 181.78 481.52 720.79 972.49 461.17 1198.65 449.59 1094.91 609.77 1012.81 723.71 1199.97 714.34
00000358 00000128 860.25 181.47 481.95 718.89 973.75 462.40 1199.78 450.96 1095.37 609.98 1012.70 721.57 1201.85 712.15
00000359 00000129 860.72 181.70 481.49 717.05 974.67 462.72 1200.74 451.54 1096.13 609.32 1012.50 719.94 1202.68 710.67
00000360 00000130 861.27 181.94 480.87 717.58 975.58 462.64 1201.40 451.68 1096.93 609.29 1012.88 719.79 1202.85 710.70
00000361 00000131 861.42 182.18 481.16 717.99 976.44 461.95 1202.64 451.38 1097.82 609.20 1012.88 719.27 1203.18 710.51
00000362 00000132 861.23 182.19 481.01 717.26 976.45 462.33 1202.45 451.73 1098.09 609.28 1012.87 719.25 1203.08 710.46
00000363 00000133 860.32 183.91 481.62 716.31 976.74 463.19 1202.71 452.59 1098.61 609.15 1013.43 719.74 1203.24 710.94
00000364 00000134 861.23 184.12 480.83 716.18 977.56 463.55 1203.34 453.08 1099.68 609.29 1014.25 720.25 1203.49 711.61
00000365 00000135 862.08 184.06 480.49 714.94 978.10 464.13 1203.91 453.11 1100.26 608.22 1015.15 720.26 1204.58 711.18
00000366 00000136 862.74 185.55 480.37 714.70 980.33 463.82 1204.99 453.30 1102.46 606.90 1017.09 719.68 1205.43 710.96
00000367 00000137 863.56 184.17 480.44 719.21 984.86 462.86 1207.31 452.46 1107.47 604.79 1021.30 718.76 1208.06 710.16
00000368 00000138 862.71 184.75 479.17 712.57 985.17 464.34 1208.58 452.83 1111.77 604.66 1021.98 716.23 1212.43 706.56
00000369 00000139 865.71 184.40 477.12 712.84 993.06 468.24 1214.30 460.33 1119.25 604.11 1023.52 715.53 1216.19 708.65
00000370 00000140 866.99 185.38 476.81 710.66 997.33 473.33 1218.94 466.79 1125.00 605.26 1025.31 715.42 1220.29 709.55
00000371 00000141 869.72 184.27 474.70 712.73 1002.79 472.51 1222.73 466.92 1131.18 604.61 1029.54 715.83 1223.22 710.59
00000372 00000142 871.10 185.49 475.87 712.29 1006.97 468.00 1227.51 462.18 1138.31 602.50 1035.38 715.63 1227.50 710.08
00000373 00000143 873.94 184.42 476.50 712.50 1013.04 462.92 1235.69 456.97 1146.61 601.12 1041.42 716.70 1231.47 711.02
00000374 00000144 876.78 179.65 476.89 714.92 1019.61 457.40 1242.52 452.79 1155.32 599.54 1048.20 716.10 1234.37 711.32
00000375 00000145 877.72 178.95 478.35 711.08 1025.85 449.85 1250.46 447.65 1162.83 594.12 1052.26 709.38 1239.89 706.31
00000376 00000146 884.29 174.48 474.92 705.52 1033.78 440.53 1259.74 439.76 1172.76 584.11 1060.41 701.77 1246.32 699.35
00000377 00000147 891.64 173.04 471.63 697.02 1045.73 431.72 1268.86 434.16 1183.80 572.46 1065.02 687.88 1252.09 688.45
00000378 00000148 895.27 165.78 471.43 689.59 1055.31 420.67 1277.13 424.54 1195.72 559.57 1073.93 677.01 1259.66 678.92
00000379 00000149 900.04 162.80 471.86 688.77 1061.77 414.13 1283.85 415.06 1203.30 549.79 1081.39 669.96 1266.46 669.19
00000380 00000150 900.72 158.65 471.94 689.61 1064.53 411.24 1284.33 410.40 1206.55 545.84 1088.34 667.05 1268.71 664.65
00000381 00000151 901.55 150.52 472.85 694.94 1067.67 414.64 1281.64 420.09 1202.48 546.65 1086.33 659.43 1273.37 663.68
00000382 00000152 902.75 154.54 469.81 691.41 1068.52 421.20 1282.15 424.16 1204.82 551.63 1089.29 663.98 1274.02 666.29
00000383 00000153 900.67 149.90 472.64 708.17 1068.54 431.86 1284.05 429.91 1209.50 562.01 1093.36 674.85 1282.36 672.85
00000384 00000154 899.76 158.80 472.52 715.01 1066.67 444.52 1284.58 437.54 1210.67 574.72 1097.44 690.27 1285.29 684.01
00000385 00000155 885.68 178.67 476.78 711.11 1056.79 459.76 1278.07 440.82 1212.75 596.98 1094.51 718.42 1279.86 701.65
00000386 00000156 881.72 189.82 478.09 709.15 1052.77 473.97 1273.44 450.29 1208.21 609.05 1099.46 732.94 1284.41 711.76
00000387 00000157 870.59 195.16 488.33 716.62 1047.18 483.23 1269.49 460.00 1203.56 617.54 1089.11 738.07 1284.64 717.45
00000388 00000158 865.90 197.67 488.62 716.68 1041.77 484.63 1264.62 461.89 1198.29 623.30 1085.77 741.87 1278.56 721.72
00000389 00000159 859.82 197.51 488.95 716.05 1038.06 485.34 1256.14 462.26 1193.39 622.18 1083.06 741.06 1272.24 720.42
00000390 00000160 855.85 196.33 484.40 719.87 1032.87 486.32 1246.37 462.58 1186.86 620.53 1078.34 738.68 1267.35 717.59
00000391 00000161 852.92 197.22 480.22 720.81 1028.97 486.30 1239.39 463.59 1182.90 620.27 1072.47 735.76 1263.07 715.62
00000392 00000162 848.10 196.77 478.96 719.94 1023.89 485.82 1233.64 464.04 1176.90 618.19 1067.87 735.36 1256.56 716.21
00000393 00000163 844.77 196.31 477.53 718.72 1018.60 483.72 1229.49 461.59 1171.87 618.58 1063.89 734.41 1252.12 715.17
00000394 00000164 838.85 193.83 479.68 720.63 1011.29 482.52 1224.38 461.15 1163.98 615.88 1057.95 732.95 1247.52 714.21
