Video ID: 	OQtXXYUQEBU
H: 	1080
W: 	1920
FPS: 	25.0

FRAME INDEX X0 Y0 W H [Landmarks (5 Points)]

00005087 00000000 689.88 156.57 362.04 567.32 811.04 416.84 981.97 425.56 917.16 526.44 824.28 604.91 961.82 612.59
00005088 00000001 689.94 154.04 360.18 562.29 809.51 414.53 981.31 422.60 916.67 523.99 824.31 600.30 962.40 607.34
00005089 00000002 692.32 155.45 356.36 555.22 811.42 410.87 981.00 417.76 917.86 517.40 826.22 595.39 962.47 601.91
00005090 00000003 698.35 158.51 352.99 551.19 812.05 410.99 982.43 416.59 915.39 519.17 823.64 589.96 967.47 595.63
00005091 00000004 707.54 158.17 349.20 552.01 814.32 411.28 984.71 417.41 914.30 521.52 824.56 588.01 970.82 594.13
00005092 00000005 706.05 157.80 355.68 560.16 821.60 411.54 984.64 420.73 918.12 519.28 828.12 587.22 971.56 595.09
00005093 00000006 717.01 160.41 354.50 559.01 827.71 411.20 988.55 417.89 921.76 520.39 835.34 587.47 977.77 593.30
00005094 00000007 726.77 161.50 356.42 555.23 834.21 409.93 995.52 419.21 924.67 515.99 842.13 584.27 984.94 591.93
00005095 00000008 733.25 156.09 359.99 563.39 839.24 408.37 1002.41 420.15 929.49 512.11 846.65 583.80 991.05 593.24
00005096 00000009 737.93 159.50 360.70 554.26 842.75 408.85 1011.42 417.00 932.39 514.39 850.08 581.96 997.40 589.63
00005097 00000010 746.97 160.05 357.55 554.86 850.27 412.51 1019.05 418.11 940.01 516.63 860.63 587.98 1005.99 593.00
00005098 00000011 757.38 152.94 356.54 567.18 859.78 413.00 1025.13 420.65 954.75 516.96 874.52 592.46 1016.51 600.18
00005099 00000012 763.81 157.88 355.83 558.96 877.43 408.15 1044.14 414.41 980.05 511.40 890.66 590.53 1030.26 597.48
00005100 DELETE   770.52 153.78 354.09 555.53 899.79 398.83 1065.41 399.83 1009.41 504.19 912.25 586.43 1051.27 589.02
00005101 DELETE   767.89 146.24 359.80 561.69 911.87 389.78 1073.97 389.46 1029.79 488.22 933.35 576.20 1060.12 576.12
00005102 00000015 781.67 143.48 360.42 561.62 946.96 381.75 1104.10 391.21 1068.03 485.73 946.55 563.01 1080.42 573.87
00005103 00000016 790.37 139.17 368.01 574.65 951.96 375.30 1108.10 379.60 1075.66 480.89 949.83 566.31 1084.42 572.51
00005104 00000017 793.78 138.63 369.49 579.04 956.38 373.39 1112.58 379.50 1082.73 480.72 947.93 565.67 1085.54 573.96
00005105 00000018 790.44 140.29 370.40 580.12 951.01 377.00 1108.83 386.84 1071.65 487.12 941.59 566.39 1081.72 577.25
00005106 00000019 789.33 140.79 362.59 578.83 952.05 380.28 1112.45 398.53 1071.93 493.83 939.51 564.65 1079.73 582.94
00005107 00000020 788.83 147.57 366.87 571.82 945.57 384.31 1104.45 398.77 1060.58 493.14 945.87 572.45 1079.21 585.44
00005108 00000021 797.87 146.32 365.07 566.11 955.82 386.11 1116.18 396.90 1078.26 492.54 961.05 578.40 1089.92 588.80
00005109 00000022 803.05 140.83 365.58 569.65 971.46 388.13 1127.92 395.32 1100.51 494.81 980.86 586.86 1099.43 594.51
00005110 00000023 799.01 143.49 369.49 574.14 983.46 391.24 1130.41 394.15 1114.54 494.90 981.59 583.57 1100.47 588.58
00005111 00000024 801.14 148.23 360.96 565.36 981.04 390.37 1127.51 396.91 1108.97 494.64 981.93 572.87 1103.68 581.75
00005112 00000025 789.38 145.42 366.42 556.95 973.56 389.77 1120.14 394.18 1102.00 491.70 979.88 569.50 1099.91 576.41
00005113 00000026 774.41 146.57 367.79 553.19 962.08 391.82 1109.24 394.85 1089.60 496.63 968.47 571.99 1085.68 577.41
00005114 00000027 761.48 148.36 365.77 548.79 953.64 389.23 1097.07 394.91 1079.33 496.73 958.85 570.33 1072.91 577.72
00005115 00000028 751.54 144.40 366.17 555.15 948.76 385.05 1088.87 393.20 1073.27 496.34 952.80 568.83 1063.83 578.35
00005116 00000029 756.98 143.68 361.73 560.56 944.83 382.24 1097.31 389.85 1071.25 494.25 939.89 578.00 1065.14 586.66
00005117 00000030 746.92 144.05 362.96 562.03 938.12 377.20 1087.40 390.14 1063.21 490.99 929.50 575.29 1051.22 588.41
00005118 00000031 725.93 138.58 371.71 570.39 921.19 381.73 1064.23 384.38 1050.32 489.51 914.90 573.31 1034.10 578.29
00005119 00000032 710.16 140.03 372.37 568.45 905.43 376.82 1051.43 388.77 1038.17 483.73 904.80 564.34 1025.39 577.19
00005120 00000033 697.60 136.61 372.70 570.89 893.73 372.80 1039.81 384.03 1025.34 484.08 893.40 562.93 1013.32 575.08
00005121 00000034 685.75 130.26 375.23 577.40 885.92 370.42 1033.31 380.24 1017.30 483.47 887.12 561.53 1009.30 571.89
00005122 00000035 681.71 125.65 372.69 578.53 884.47 368.16 1030.64 376.17 1019.22 480.26 890.20 561.26 1009.52 569.96
00005123 00000036 680.85 122.59 370.02 578.55 885.00 367.91 1027.97 371.41 1022.44 476.22 895.75 560.88 1010.96 565.76
00005124 00000037 679.02 117.19 368.44 580.59 879.26 367.22 1022.95 366.59 1019.82 471.24 895.89 559.13 1012.56 560.26
00005125 00000038 674.16 115.23 363.96 581.55 871.23 366.73 1015.22 365.23 1008.59 472.28 886.01 558.09 1004.55 558.96
00005126 00000039 681.68 118.41 364.52 576.33 865.30 366.57 1021.59 368.43 998.28 476.03 865.62 564.72 1000.50 568.56
00005127 00000040 679.27 119.98 364.69 576.96 862.07 369.01 1016.33 370.95 992.31 478.42 860.39 562.83 997.32 567.02
00005128 00000041 681.02 125.46 365.15 573.71 867.28 371.19 1020.50 373.17 999.67 479.25 862.79 564.15 999.43 568.68
00005129 00000042 685.44 131.78 370.00 584.91 879.75 370.15 1029.28 372.59 1016.29 481.23 872.36 569.03 1008.49 573.53
00005130 00000043 682.57 120.20 365.31 584.35 881.29 365.68 1021.15 367.59 1022.50 470.29 899.32 561.57 1009.72 564.92
00005131 00000044 682.20 110.82 365.89 582.82 878.88 358.13 1022.28 358.59 1022.77 460.02 904.44 557.06 1018.65 558.66
00005132 00000045 675.44 115.27 371.94 576.53 868.23 358.76 1017.88 357.23 1007.71 452.60 891.63 551.61 1010.35 550.14
00005133 00000046 681.13 115.94 370.36 580.96 877.32 356.80 1027.02 358.15 1014.18 456.62 887.81 560.80 1008.24 562.27
00005134 00000047 672.02 116.38 372.45 576.37 862.74 361.22 1016.75 359.07 1001.54 457.25 885.08 554.32 1006.80 552.61
00005135 00000048 671.79 116.34 368.14 574.05 867.86 362.00 1014.43 359.69 1011.31 462.99 896.62 558.50 1014.01 557.86
00005136 00000049 673.49 118.65 365.73 571.45 867.31 367.96 1012.75 364.57 1008.78 467.51 897.88 560.17 1013.37 558.43
00005137 00000050 683.99 120.03 361.36 576.96 869.55 370.50 1023.79 369.12 1006.04 470.87 879.11 569.56 1009.60 570.08
00005138 00000051 680.94 124.74 359.08 576.97 862.00 376.10 1012.93 374.48 991.82 472.65 870.50 571.66 996.50 572.06
00005139 00000052 675.79 117.14 360.78 586.98 847.03 374.16 1000.55 372.66 978.24 475.04 855.10 568.99 987.43 569.66
00005140 00000053 668.11 114.36 363.64 587.82 828.92 370.56 988.08 368.24 963.35 471.23 841.19 563.93 977.74 563.75
00005141 00000054 658.23 114.51 370.44 585.74 810.35 362.02 978.16 361.83 942.86 469.68 823.56 557.62 968.15 558.78
00005142 00000055 653.90 113.22 372.48 586.43 798.49 358.91 966.77 360.60 924.56 464.34 816.16 553.76 960.05 555.65
00005143 00000056 649.35 109.78 367.68 583.34 792.15 363.32 958.48 359.97 914.35 456.38 818.23 554.13 956.67 550.41
00005144 00000057 649.74 109.00 366.54 582.03 791.02 361.58 957.10 357.63 913.35 452.70 819.45 553.43 957.37 549.27
00005145 00000058 650.24 107.09 367.73 582.54 794.04 359.37 958.05 355.02 915.48 451.56 823.58 553.56 957.29 549.21
00005146 00000059 652.92 106.62 366.89 583.87 796.64 358.52 962.12 353.17 919.73 450.75 826.45 554.80 961.14 549.64
00005147 00000060 656.99 103.91 365.54 584.60 802.12 355.84 968.51 351.48 926.39 449.22 831.28 554.88 964.81 550.67
00005148 00000061 661.22 101.52 365.62 584.29 807.47 353.36 974.10 349.71 932.32 447.72 833.79 551.81 969.45 548.33
00005149 00000062 663.95 102.30 366.49 580.74 812.03 351.50 980.08 349.13 939.05 444.74 834.45 547.85 972.75 545.87
00005150 00000063 664.99 103.39 366.37 580.81 815.03 350.16 982.51 349.16 942.99 444.12 836.03 547.12 974.35 546.22
00005151 00000064 664.70 104.02 366.90 579.10 817.16 347.88 982.90 348.94 944.32 442.34 837.70 545.68 973.13 546.54
00005152 00000065 665.31 101.32 365.63 578.44 816.14 345.01 982.11 348.24 942.44 440.06 834.69 540.84 971.75 543.74
00005153 00000066 663.93 96.94 365.12 580.14 816.13 340.29 978.98 346.97 941.57 434.09 832.00 533.90 968.14 539.95
00005154 00000067 662.20 95.65 362.78 579.93 814.94 336.54 973.68 343.35 939.10 428.85 828.35 527.22 965.09 533.39
00005155 00000068 657.91 93.89 363.09 583.53 814.65 331.47 970.31 340.26 939.02 422.38 826.13 521.94 962.22 529.59
00005156 00000069 654.05 92.51 363.20 588.31 813.71 327.53 966.13 337.43 936.82 417.44 821.88 518.09 958.44 526.64
00005157 00000070 651.54 88.24 363.91 594.16 811.62 323.34 962.20 332.54 935.36 412.02 819.04 514.34 956.54 522.29
00005158 00000071 647.52 85.87 365.42 593.80 806.05 319.02 957.36 328.56 928.33 407.57 815.00 509.90 952.43 517.89
00005159 00000072 642.31 82.29 368.12 590.18 799.77 313.43 952.32 320.72 923.01 399.24 813.36 505.36 947.73 511.24
00005160 00000073 636.72 83.50 367.23 578.28 795.79 308.42 950.10 315.72 921.19 390.48 814.24 499.76 946.02 505.59
00005161 00000074 634.23 82.51 364.00 567.09 787.79 306.60 945.63 312.03 915.43 384.28 811.07 495.38 943.73 499.93
00005162 00000075 632.19 81.08 364.23 560.12 785.77 302.37 945.32 309.35 914.07 378.92 810.69 491.09 941.64 497.20
00005163 00000076 628.75 80.72 365.84 553.06 783.04 297.81 941.92 305.55 910.23 373.78 809.59 483.56 939.67 490.51
00005164 00000077 624.77 78.49 367.62 551.10 781.07 295.27 940.31 303.18 907.51 373.48 805.99 479.97 937.11 487.30
00005165 00000078 620.99 77.75 364.97 552.10 777.01 291.35 935.63 301.11 902.89 374.45 800.01 481.12 929.90 490.23
00005166 00000079 624.92 81.83 356.10 554.37 777.93 294.18 933.93 301.20 904.33 370.75 793.83 487.55 929.69 495.07
00005167 00000080 620.92 81.11 358.78 559.02 772.50 294.88 929.35 300.83 899.43 370.57 789.67 489.80 926.27 496.61
00005168 00000081 619.98 81.59 357.41 560.76 770.38 294.85 927.67 302.07 896.45 371.87 785.19 490.47 923.12 498.38
00005169 00000082 618.74 82.98 358.06 559.89 770.07 297.63 928.20 304.19 896.68 375.49 783.60 491.87 923.33 499.22
00005170 00000083 618.47 86.25 358.68 557.82 771.58 298.94 930.68 305.83 897.59 378.29 783.33 492.88 924.54 500.49
00005171 00000084 618.88 87.90 359.08 556.85 773.67 300.32 932.10 307.01 899.11 380.01 784.04 492.97 925.82 500.47
00005172 00000085 619.35 87.56 361.28 557.31 777.50 300.55 934.23 307.84 903.61 379.80 786.68 491.95 928.17 499.97
00005173 00000086 619.90 84.04 364.33 558.84 780.49 299.85 935.34 306.69 907.35 376.33 791.83 489.71 931.76 497.24
00005174 00000087 615.00 78.50 374.03 560.29 776.67 295.96 933.17 304.83 903.12 374.98 802.84 483.09 932.78 490.78
00005175 00000088 619.65 75.60 374.66 557.64 778.90 295.80 938.05 303.83 908.11 370.19 809.06 480.35 940.63 487.35
00005176 00000089 626.49 72.22 370.31 560.99 786.58 295.12 940.79 300.63 916.76 366.61 817.32 479.13 946.37 483.87
00005177 00000090 635.35 68.67 372.11 563.92 792.85 293.87 949.46 297.58 925.32 363.73 825.65 480.70 956.42 483.55
00005178 00000091 645.99 67.50 369.49 566.62 802.98 293.54 960.23 296.12 937.16 364.59 832.41 481.26 965.75 483.32
00005179 00000092 654.29 68.98 367.73 562.87 811.94 294.14 971.87 299.50 947.77 369.30 840.33 486.16 971.74 490.88
00005180 00000093 658.61 66.80 369.36 567.07 817.65 296.64 981.46 301.49 956.70 373.82 845.32 490.91 978.37 495.34
00005181 00000094 662.93 66.74 367.19 572.99 824.46 299.84 986.89 303.38 965.38 377.74 850.20 494.42 984.84 498.15
00005182 00000095 667.57 67.13 367.61 576.40 830.04 301.66 992.88 302.69 971.65 379.78 854.91 497.33 992.72 499.11
00005183 00000096 671.87 66.40 368.13 576.98 834.70 303.10 996.83 303.68 973.94 382.60 857.66 499.04 995.81 500.59
00005184 00000097 673.45 67.36 370.24 577.55 837.71 302.51 998.80 303.87 974.60 383.88 859.57 500.06 996.87 502.20
00005185 00000098 674.39 65.63 371.01 582.36 840.51 302.51 1000.44 304.45 976.32 385.80 859.27 500.64 997.37 503.41
00005186 00000099 675.33 65.10 370.79 584.80 841.66 304.41 1001.32 305.61 977.12 389.01 859.24 502.64 998.34 504.90
00005187 00000100 675.13 69.39 371.83 591.40 843.54 307.00 1003.22 310.96 976.77 397.62 853.27 505.93 996.86 510.50
00005188 00000101 671.90 70.75 376.01 600.10 843.95 310.81 1005.69 318.83 974.82 410.86 844.82 510.17 993.35 518.29
00005189 00000102 674.08 79.97 374.89 601.59 847.33 315.91 1005.93 327.47 973.69 419.77 833.20 509.93 988.02 522.47
00005190 00000103 676.05 83.02 374.49 602.35 855.08 313.80 1006.23 325.22 979.33 416.92 833.05 502.17 992.27 514.88
00005191 00000104 673.45 76.49 377.76 599.68 866.12 306.64 1009.64 314.79 994.79 402.99 846.61 492.02 999.38 501.48
00005192 00000105 670.87 69.95 380.88 587.39 869.04 299.30 1015.78 307.30 1006.64 386.85 862.45 484.36 1008.44 492.86
00005193 00000106 672.84 66.38 377.32 576.11 871.11 293.69 1019.22 302.51 1013.38 376.28 873.10 478.01 1017.22 486.94
00005194 00000107 679.60 67.46 362.60 569.34 870.72 304.39 1012.60 292.07 1019.14 387.81 890.20 484.28 1022.42 477.28
00005195 00000108 680.70 80.28 370.73 567.64 879.08 314.02 1022.28 309.54 1019.66 397.47 879.04 489.32 1022.75 487.67
00005196 DELETE   677.13 89.45 371.62 576.68 875.85 334.62 1019.35 323.35 1017.19 420.76 876.86 510.45 1017.06 503.79
00005197 DELETE   676.37 109.99 367.74 562.66 861.74 364.17 1008.25 342.57 1010.06 443.35 883.40 531.06 1018.50 513.85
00005198 DELETE   679.10 124.20 354.49 552.34 867.02 381.63 1005.29 344.68 1013.67 456.25 882.74 543.08 1014.92 516.33
00005199 00000112 678.37 128.81 349.98 550.11 864.38 384.96 1000.68 350.60 1011.03 461.15 881.82 547.80 1010.94 523.33
00005200 DELETE   673.14 126.03 346.67 544.07 861.47 370.42 997.99 342.69 1006.82 448.58 872.71 534.21 1001.50 515.36
00005201 DELETE   663.49 114.95 361.25 555.62 871.44 353.31 997.81 348.17 1003.38 435.38 861.98 517.70 986.46 516.27
00005202 00000115 648.14 106.69 365.78 566.85 855.29 341.85 980.85 333.29 993.98 420.59 846.17 510.41 975.39 506.71
00005203 00000116 635.72 98.76 367.67 574.38 836.13 340.51 965.31 322.96 984.44 414.32 836.93 510.31 968.13 498.57
00005204 00000117 629.31 101.04 372.15 569.31 827.71 350.57 952.27 315.09 979.75 412.13 842.98 513.24 970.98 486.87
00005205 DELETE   646.57 115.73 363.77 544.45 816.51 365.25 961.38 316.64 975.91 421.31 853.85 529.35 996.23 490.88
00005206 DELETE   634.82 126.89 376.46 541.92 824.33 379.07 952.56 328.19 976.37 423.98 854.74 530.85 979.22 491.17
00005207 DELETE   633.94 127.11 377.54 540.32 824.79 379.73 951.79 327.22 977.60 423.35 856.94 531.52 979.40 490.60
00005208 00000121 628.51 118.72 378.94 546.45 822.02 371.97 948.12 326.63 972.22 416.13 857.84 525.15 978.98 488.92
00005209 00000122 624.12 112.54 380.44 558.71 814.09 365.98 942.49 320.01 964.69 411.65 856.15 527.58 979.76 489.52
00005210 00000123 625.69 107.83 378.75 566.87 812.63 365.37 946.12 319.89 964.34 413.73 863.82 536.38 985.60 498.41
00005211 00000124 635.75 110.75 371.29 571.05 820.85 361.49 954.66 320.81 972.66 424.96 879.59 555.46 987.21 522.15
00005212 00000125 641.60 111.93 364.54 570.34 826.14 368.48 955.49 327.93 975.15 431.54 891.78 566.05 989.39 533.11
00005213 00000126 629.74 114.14 374.34 558.98 818.08 372.50 947.93 333.78 966.10 430.33 891.32 557.20 992.50 525.17
00005214 00000127 626.58 107.80 380.36 558.89 815.10 368.55 947.58 327.76 965.00 423.85 893.95 552.42 996.45 518.31
00005215 00000128 628.04 106.92 381.32 560.41 812.41 371.33 944.81 324.45 961.54 423.23 893.67 553.94 997.15 514.57
00005216 00000129 630.05 111.98 379.43 566.64 814.06 375.54 946.28 328.49 962.28 431.28 895.22 564.08 997.73 524.62
00005217 00000130 636.03 119.63 373.70 562.34 820.41 377.61 951.40 331.37 967.84 436.40 898.44 568.50 999.04 530.05
00005218 00000131 635.78 116.44 372.36 562.16 822.37 373.31 952.78 334.14 970.04 434.68 900.87 565.79 999.08 533.67
00005219 00000132 638.81 109.43 367.85 566.05 822.84 369.64 956.05 332.87 969.29 431.75 898.40 562.95 997.72 532.57
00005220 00000133 639.59 108.28 367.08 562.98 821.78 368.72 958.65 332.28 968.58 430.08 896.87 561.11 997.79 530.65
00005221 00000134 637.42 105.59 368.55 565.47 817.38 369.59 959.84 330.17 966.75 430.11 890.10 560.66 995.87 527.35
00005222 00000135 634.69 103.49 370.52 562.55 815.46 369.26 961.58 330.69 965.93 427.51 886.07 556.58 993.48 523.76
00005223 00000136 634.78 102.54 371.56 560.65 813.68 366.13 963.74 329.55 965.16 424.10 881.81 551.94 993.12 520.72
00005224 00000137 632.43 98.52 373.49 563.81 812.15 362.19 962.88 326.96 964.04 421.59 881.46 549.92 993.01 519.57
00005225 00000138 628.12 94.65 376.10 568.79 810.46 357.53 956.51 323.61 963.36 417.59 883.32 547.27 992.69 517.94
00005226 00000139 627.08 88.97 376.99 574.96 809.27 354.55 954.89 321.45 962.40 414.21 883.68 546.49 993.68 517.62
00005227 00000140 625.82 86.57 379.29 572.51 804.65 349.11 951.32 317.18 956.79 409.81 879.45 541.35 990.43 513.27
00005228 00000141 622.17 85.47 380.04 569.43 798.47 347.31 947.64 316.40 949.10 408.21 869.81 536.89 981.08 509.81
00005229 00000142 619.74 82.69 378.84 573.85 790.07 344.81 941.93 318.69 937.98 410.31 856.28 535.65 969.23 513.10
00005230 00000143 616.16 81.73 385.06 579.12 780.86 344.57 941.27 320.84 928.26 413.97 840.79 533.78 964.63 513.19
00005231 00000144 615.16 82.55 387.13 587.42 773.71 343.08 941.10 324.02 918.33 422.84 827.99 538.53 959.31 521.86
00005232 00000145 613.94 81.69 387.34 594.19 769.47 340.94 940.33 326.80 910.86 428.49 817.73 541.32 953.18 528.46
00005233 00000146 616.85 82.93 386.34 597.04 769.98 339.59 943.20 328.60 909.58 428.67 813.04 541.21 952.63 530.75
00005234 00000147 624.25 87.68 384.05 592.43 775.18 339.33 953.11 333.52 913.52 427.84 813.07 539.54 958.77 533.62
00005235 00000148 643.37 90.99 374.43 587.12 788.72 341.21 961.84 339.60 922.74 428.52 818.81 535.48 966.79 533.81
00005236 00000149 652.16 89.39 375.29 587.08 808.49 339.51 979.43 340.04 945.43 430.00 832.47 535.06 977.33 535.24
00005237 00000150 662.81 87.87 375.33 594.06 827.09 334.44 997.58 335.76 967.63 427.33 846.79 538.44 989.18 540.26
00005238 00000151 670.48 83.61 377.22 599.80 837.33 331.70 1008.39 334.40 977.14 424.48 856.35 536.46 999.86 539.30
00005239 00000152 675.84 81.88 376.87 602.72 845.49 327.61 1014.37 331.82 982.36 423.43 863.80 536.13 1005.74 540.06
CROP_BBOX: 371 0 1333 889
