Video ID: 	A9sph_LAb_I
H: 	1080
W: 	1920
FPS: 	25.0

FRAME INDEX X0 Y0 W H [Landmarks (5 Points)]

00053696 00000000 350.69 73.07 454.74 662.41 485.06 315.23 693.38 317.73 599.10 441.67 489.64 540.95 674.55 541.03
00053697 DELETE   359.39 72.88 443.38 668.14 493.64 304.39 693.37 309.08 603.15 432.46 499.11 535.66 676.34 538.79
00053698 00000002 361.19 69.96 445.79 658.81 500.74 300.77 702.26 305.55 613.56 429.35 505.94 533.66 683.06 536.66
00053699 DELETE   366.10 65.62 444.76 646.24 505.20 298.71 714.56 307.08 624.88 424.26 515.63 531.69 690.75 537.39
00053700 DELETE   370.80 63.35 443.07 653.05 515.08 299.13 718.56 309.61 635.56 421.79 517.41 525.19 698.06 532.75
00053701 00000005 374.39 57.84 440.58 654.63 516.45 297.86 723.66 314.74 637.92 422.06 514.67 531.62 702.49 545.15
00053702 00000006 378.64 58.04 441.85 660.89 521.13 295.83 726.62 312.96 641.34 423.73 519.62 533.38 703.54 547.18
00053703 00000007 379.26 58.09 444.26 662.90 525.44 292.68 730.70 312.13 643.37 424.39 524.25 534.39 704.14 550.09
00053704 00000008 381.52 57.72 446.65 663.82 529.33 292.39 733.67 310.97 647.28 424.98 531.02 535.93 706.79 550.71
00053705 00000009 383.94 57.01 448.08 666.55 533.55 291.95 736.49 308.93 651.34 425.62 535.90 536.96 708.58 550.09
00053706 00000010 384.21 57.79 448.52 666.80 535.85 290.68 739.27 306.96 654.90 423.39 539.26 537.49 709.62 549.87
00053707 00000011 385.07 56.81 449.57 660.19 534.66 290.62 743.12 307.93 657.15 420.45 536.03 534.48 714.74 547.94
00053708 00000012 386.40 53.49 448.94 662.55 535.67 290.27 745.26 307.74 659.30 418.16 535.66 530.64 719.14 544.12
00053709 00000013 385.30 52.04 450.85 664.07 537.57 288.51 745.26 307.83 658.73 418.73 533.83 528.78 717.69 543.95
00053710 00000014 384.99 51.31 451.38 669.23 537.70 287.63 744.54 307.54 657.44 420.82 533.87 531.62 715.28 547.15
00053711 00000015 385.14 51.83 450.23 666.84 538.37 291.10 741.41 312.17 655.15 421.86 531.41 530.23 712.84 546.94
00053712 00000016 381.90 56.09 452.50 664.58 537.28 294.08 738.92 317.35 651.97 421.73 526.85 529.90 708.56 548.55
00053713 00000017 380.07 56.65 452.51 663.74 537.37 294.24 737.28 320.45 649.22 424.22 523.00 529.81 702.71 551.20
00053714 00000018 379.98 58.66 449.19 657.69 531.78 294.24 737.11 320.37 647.28 427.60 518.18 530.43 704.39 551.93
00053715 00000019 374.61 59.64 450.40 654.59 529.23 294.88 732.56 321.03 641.69 430.70 515.23 527.14 701.54 548.71
00053716 00000020 374.23 60.92 448.21 650.56 525.18 295.54 730.44 320.90 637.08 431.74 512.56 529.19 698.49 549.99
00053717 00000021 370.55 62.17 450.76 654.78 520.75 293.22 726.68 317.81 632.15 432.31 508.52 530.96 693.25 551.02
00053718 00000022 376.06 74.00 444.48 652.90 520.42 290.81 726.27 313.31 630.97 435.64 512.60 528.11 688.04 546.59
00053719 00000023 370.92 62.01 448.83 654.44 517.55 292.51 724.72 316.75 628.76 431.68 506.51 533.01 688.61 553.04
00053720 00000024 374.69 70.73 444.25 644.16 516.64 289.83 725.69 310.02 631.00 433.39 515.38 527.82 687.86 544.06
00053721 00000025 375.01 73.15 443.41 641.17 516.38 290.18 724.35 310.05 628.87 432.56 513.76 526.65 687.46 542.72
00053722 00000026 374.93 72.56 443.80 644.72 515.90 289.82 723.29 309.41 626.80 431.81 511.15 526.89 686.65 542.77
00053723 00000027 369.34 67.31 448.61 646.05 511.68 293.54 720.96 317.29 622.42 429.48 498.77 528.18 687.52 547.82
00053724 00000028 368.47 67.87 449.69 646.93 511.88 293.23 720.91 317.89 621.77 428.92 496.26 527.87 687.05 548.31
00053725 00000029 373.62 79.05 444.68 646.37 515.28 291.45 720.81 313.36 622.31 433.80 502.18 523.02 686.49 541.09
00053726 00000030 369.25 70.58 450.19 645.71 514.74 296.28 721.40 320.64 624.47 430.93 497.11 527.10 691.07 547.18
00053727 00000031 369.62 68.21 450.24 644.22 516.41 296.91 722.27 321.15 627.04 430.96 500.07 523.67 693.96 543.71
00053728 00000032 373.41 74.38 449.05 644.56 519.47 292.09 723.13 312.81 629.59 435.10 509.08 517.44 691.71 534.52
00053729 00000033 371.39 67.58 447.41 643.47 515.19 295.32 722.83 319.01 626.08 430.13 501.43 525.15 691.93 544.69
00053730 00000034 369.91 67.11 448.20 646.45 514.34 294.43 721.56 317.78 625.19 429.90 500.26 526.25 690.67 545.55
00053731 00000035 375.01 79.87 442.72 642.72 515.62 290.59 721.11 310.70 623.39 434.17 506.12 523.71 685.09 540.23
00053732 00000036 374.10 82.97 443.26 641.13 514.47 291.73 718.31 311.44 620.76 434.12 504.78 521.47 685.20 537.63
00053733 00000037 374.60 84.32 442.26 640.42 514.35 292.08 717.58 312.47 619.34 433.82 502.64 520.17 685.68 536.97
00053734 00000038 374.19 82.75 441.88 640.82 514.23 293.63 718.00 313.95 620.94 434.87 502.43 520.73 685.94 537.43
00053735 00000039 368.42 72.96 448.57 645.02 514.54 298.64 718.84 321.64 623.56 430.23 494.67 523.32 692.13 542.30
00053736 00000040 368.88 74.80 448.82 645.41 516.07 300.82 718.81 323.83 625.40 431.85 496.88 524.23 693.68 543.19
00053737 00000041 369.11 75.12 449.92 645.44 516.87 302.18 720.54 325.27 626.51 434.83 497.13 525.03 695.01 544.16
00053738 00000042 368.99 75.30 451.23 645.66 516.73 302.30 722.09 325.05 627.24 435.66 497.58 525.90 696.60 544.75
00053739 00000043 369.98 73.90 449.97 646.27 516.11 300.83 722.00 324.27 626.50 434.46 498.48 527.32 695.57 546.67
00053740 00000044 370.74 73.07 449.42 648.08 515.94 299.19 720.84 322.60 625.56 431.95 497.93 526.92 694.90 546.23
00053741 00000045 375.66 80.87 441.45 647.89 516.74 294.49 720.20 315.53 623.77 435.84 502.65 522.10 688.06 539.46
00053742 00000046 372.61 82.93 442.97 645.25 513.86 293.54 717.96 313.67 621.00 435.74 499.99 521.60 684.90 538.32
00053743 00000047 371.75 79.09 443.60 647.86 511.24 292.24 715.02 311.55 617.04 434.63 498.78 520.27 682.45 536.24
00053744 00000048 367.98 77.81 446.38 648.80 508.89 292.62 712.00 310.12 615.24 433.60 497.57 518.92 680.78 533.36
00053745 00000049 368.37 76.56 445.65 648.54 508.47 291.91 711.74 308.98 614.82 433.10 497.27 518.30 680.07 532.48
00053746 00000050 367.86 75.01 445.92 648.91 508.22 291.34 711.85 307.69 615.36 431.97 497.61 518.10 680.64 531.61
00053747 00000051 369.38 73.47 445.64 650.08 509.05 292.02 712.55 308.18 615.84 432.24 498.37 518.15 681.36 531.48
00053748 00000052 370.29 74.88 445.50 648.09 509.98 290.80 714.37 307.80 617.01 432.61 499.49 517.69 682.21 531.64
00053749 00000053 370.23 74.70 446.79 647.94 510.98 290.66 716.08 307.72 619.09 433.13 501.05 517.81 683.57 531.81
00053750 00000054 371.37 76.16 447.75 647.05 512.90 290.20 718.40 307.41 621.88 432.89 501.63 517.62 685.59 531.90
00053751 00000055 373.22 77.58 446.68 645.68 514.01 290.77 719.21 308.88 622.14 433.68 502.48 517.23 687.26 532.22
00053752 00000056 369.70 69.47 450.95 647.11 515.02 295.09 720.40 316.87 625.39 428.76 498.88 523.23 692.93 541.01
00053753 00000057 371.22 69.73 450.24 646.58 514.78 295.60 720.83 316.94 625.99 429.00 499.33 523.21 694.71 540.55
00053754 00000058 371.22 70.41 451.22 646.15 515.89 296.39 721.17 317.67 626.85 429.52 500.18 523.30 695.49 540.60
00053755 00000059 372.24 69.86 451.11 647.00 516.42 297.18 721.62 318.29 627.23 429.63 500.36 523.18 697.09 540.34
00053756 00000060 373.10 69.56 450.24 647.01 517.16 296.78 721.78 318.35 627.77 429.29 500.82 522.73 697.09 540.24
00053757 00000061 372.30 69.68 450.96 647.13 517.14 296.45 722.28 318.34 628.02 429.57 500.13 522.12 697.64 539.90
00053758 00000062 371.78 68.07 451.65 648.63 518.00 295.99 722.12 318.15 628.84 429.39 501.33 521.96 697.49 539.94
00053759 00000063 371.04 68.45 452.26 647.89 517.16 295.27 721.88 317.35 627.91 429.38 500.36 521.55 697.30 539.53
00053760 00000064 369.01 68.75 453.45 646.70 516.57 294.56 721.47 317.03 627.25 428.84 499.16 520.23 695.73 538.56
00053761 00000065 367.95 67.82 453.16 647.52 515.40 294.88 720.56 316.97 625.99 427.71 498.27 520.05 695.26 538.01
00053762 00000066 371.67 74.89 447.85 646.97 514.43 288.92 719.84 308.53 622.62 433.67 500.39 512.18 688.55 528.57
00053763 00000067 370.41 76.87 448.29 645.46 512.96 289.47 718.05 307.94 620.95 432.74 499.44 512.52 687.44 527.82
00053764 00000068 368.73 75.78 448.98 647.75 512.40 289.56 716.53 307.86 620.24 432.03 498.29 512.74 686.57 527.95
00053765 00000069 368.65 76.48 448.27 646.79 511.99 289.71 716.36 308.09 619.73 431.74 497.29 513.20 686.02 528.49
00053766 00000070 369.27 74.70 447.85 648.44 512.06 289.90 716.15 308.14 619.35 431.97 498.39 513.15 685.72 528.28
00053767 00000071 367.87 74.37 449.49 647.46 511.46 289.41 716.27 307.61 619.39 431.19 497.31 512.36 686.05 527.47
00053768 00000072 367.69 74.30 450.17 648.77 512.33 288.87 716.93 308.00 619.57 431.63 497.99 511.61 685.88 527.68
00053769 00000073 368.91 74.67 450.63 647.59 513.36 288.65 718.26 309.35 619.99 432.73 498.67 510.09 687.21 527.40
00053770 00000074 370.50 73.69 450.54 649.33 514.92 288.22 719.86 309.08 622.12 432.96 500.52 510.71 688.56 528.22
00053771 00000075 370.97 72.45 450.89 650.99 516.16 286.88 721.02 308.56 623.46 432.83 502.77 511.33 688.61 529.59
00053772 00000076 371.18 71.43 451.68 651.39 518.03 287.63 722.45 308.58 626.82 432.49 504.64 512.14 689.84 529.82
00053773 00000077 373.52 69.94 450.18 653.82 519.26 287.19 724.20 308.66 628.61 433.13 506.34 513.84 691.72 531.82
00053774 00000078 370.94 61.12 451.04 657.93 520.63 288.78 721.68 313.31 628.46 429.94 504.00 523.27 691.55 543.28
00053775 00000079 374.19 60.04 448.11 656.30 521.71 288.77 723.88 312.77 629.76 430.80 509.35 527.25 691.79 546.86
00053776 00000080 375.45 59.05 446.41 654.21 520.71 288.39 724.44 311.90 630.38 430.30 510.43 527.89 691.60 547.12
00053777 00000081 377.12 54.69 443.93 658.38 519.93 286.87 726.39 310.90 631.26 427.50 511.80 529.18 692.54 548.80
00053778 00000082 375.76 54.34 444.44 663.97 523.03 285.63 725.97 309.49 632.33 425.45 511.00 527.64 691.95 547.00
00053779 00000083 377.68 55.35 442.62 664.33 526.12 284.76 725.77 308.87 632.74 424.92 510.29 525.32 691.54 544.81
00053780 00000084 377.29 55.30 443.58 666.30 528.42 283.86 726.47 309.17 634.19 424.62 509.72 523.15 692.83 543.65
00053781 00000085 377.78 54.15 444.56 666.28 530.10 283.32 728.02 309.88 636.04 423.53 509.34 519.97 694.76 541.47
00053782 00000086 376.26 54.34 446.41 665.39 531.45 282.80 728.01 311.08 636.86 423.78 509.78 517.76 694.88 540.80
00053783 00000087 376.80 55.68 447.26 656.31 529.58 282.54 729.82 312.17 636.64 422.48 508.15 514.63 696.04 538.90
00053784 00000088 378.76 56.03 445.99 648.60 527.81 282.79 730.10 311.55 637.01 419.87 509.63 510.98 699.31 534.63
00053785 00000089 379.68 51.70 444.23 651.43 529.57 281.82 732.20 310.38 638.97 417.72 512.95 509.92 698.08 533.21
00053786 00000090 383.63 53.54 442.05 648.24 531.18 280.13 733.00 309.91 639.55 416.53 511.89 509.22 698.65 533.79
00053787 00000091 383.71 51.28 444.30 658.19 533.36 279.69 734.10 309.92 641.36 416.18 512.53 509.93 702.92 534.63
00053788 00000092 383.79 50.03 446.33 662.97 534.85 280.40 734.46 309.19 643.34 415.69 513.31 507.93 708.05 531.34
00053789 00000093 384.03 47.73 447.96 667.18 534.96 280.45 736.18 308.77 644.49 415.21 512.28 507.65 710.23 530.62
00053790 00000094 384.08 47.78 449.63 670.21 536.07 280.98 737.38 309.73 645.60 416.78 511.44 508.95 710.76 532.30
00053791 00000095 384.74 47.82 450.09 669.62 536.40 281.56 738.26 310.65 645.94 417.36 511.70 509.22 710.54 532.77
00053792 00000096 385.16 47.76 449.67 668.32 536.48 280.99 738.67 310.52 645.99 417.50 512.90 509.31 710.35 533.20
00053793 00000097 385.11 49.46 450.03 665.65 537.45 281.44 738.43 311.24 646.10 417.98 513.62 509.07 709.90 533.19
00053794 00000098 386.08 50.24 448.61 663.48 538.56 280.58 739.05 311.83 646.12 418.99 514.51 510.02 708.33 535.34
00053795 00000099 385.84 49.30 449.65 661.00 537.85 279.86 739.02 310.91 645.66 418.64 515.98 509.84 707.41 534.91
00053796 00000100 385.54 49.50 446.75 654.59 535.97 279.23 739.99 310.67 645.00 416.46 517.70 509.97 706.36 535.51
00053797 00000101 384.93 47.37 447.44 658.90 536.46 278.05 737.94 309.20 643.87 418.00 520.81 511.05 700.12 536.31
00053798 00000102 387.43 47.26 444.01 658.63 535.23 279.40 739.28 310.26 643.58 417.65 519.65 513.05 703.65 538.06
00053799 00000103 387.82 49.25 444.05 662.97 534.82 280.22 739.36 310.71 642.58 421.00 515.52 518.14 702.12 542.93
00053800 00000104 387.54 49.73 445.91 668.27 536.13 281.96 737.18 311.69 640.98 422.94 514.56 517.99 703.56 541.86
00053801 00000105 384.73 51.57 448.03 667.11 534.31 283.92 736.32 313.76 641.23 423.04 511.32 515.81 705.12 540.00
00053802 00000106 384.02 52.25 447.97 665.20 533.53 284.44 736.08 314.70 641.56 421.97 509.23 512.79 706.26 537.54
00053803 00000107 384.36 52.57 447.40 665.16 533.88 284.21 735.73 314.82 641.55 421.67 508.20 510.81 707.11 535.92
00053804 00000108 383.61 52.39 447.54 666.07 533.73 284.42 735.51 315.10 641.72 421.11 507.93 511.01 706.49 536.22
00053805 00000109 383.03 52.31 448.90 668.13 533.98 284.96 734.80 315.22 641.46 422.15 507.12 511.46 706.47 536.37
00053806 00000110 384.11 52.27 447.99 668.82 534.01 285.27 734.48 315.36 641.13 422.36 506.86 510.74 707.46 535.47
00053807 00000111 383.24 52.43 449.51 668.13 534.01 284.97 734.55 315.39 641.03 422.12 506.56 510.20 707.24 535.23
00053808 00000112 383.47 52.73 449.51 665.94 534.45 284.80 734.78 315.45 641.20 421.57 507.23 508.82 707.06 534.08
00053809 00000113 383.46 52.29 450.13 664.97 535.22 284.32 734.85 315.67 641.36 421.01 506.98 506.54 706.77 532.41
00053810 00000114 382.17 52.97 450.76 662.72 534.83 283.83 735.41 315.50 642.66 420.28 508.06 505.91 707.56 532.02
00053811 00000115 382.85 51.03 451.51 663.88 535.69 282.57 737.03 314.91 642.60 419.90 510.03 506.55 708.74 532.91
00053812 00000116 385.64 52.18 448.45 654.92 536.92 282.74 738.63 316.67 642.62 420.31 512.88 506.70 706.50 534.40
00053813 00000117 384.83 51.48 448.95 656.80 537.90 281.75 737.25 316.00 642.51 420.95 515.04 507.45 701.56 535.55
00053814 00000118 386.66 51.29 446.84 655.56 536.27 282.32 739.91 316.23 642.91 420.90 515.16 511.29 704.80 539.01
00053815 00000119 386.44 51.41 449.69 662.14 538.47 282.58 739.00 317.57 641.98 424.52 513.08 513.03 703.35 541.69
00053816 00000120 386.84 52.81 449.76 663.47 538.14 282.54 737.83 315.90 640.32 425.38 514.09 515.59 700.56 542.76
00053817 00000121 385.69 54.33 450.98 661.54 537.38 283.09 737.31 316.46 639.66 425.17 513.43 515.18 701.04 542.39
00053818 00000122 386.17 55.48 449.78 661.53 536.66 284.33 737.58 316.74 640.27 424.65 511.97 515.00 703.54 541.41
00053819 00000123 384.79 56.00 451.07 661.68 536.44 284.49 737.25 316.39 640.91 423.54 511.45 514.28 704.48 540.38
00053820 00000124 383.42 56.20 451.87 661.16 535.61 285.10 736.14 316.71 641.26 422.50 510.55 513.43 704.57 539.46
00053821 00000125 382.10 57.52 452.18 659.21 534.20 285.39 735.03 315.83 641.33 422.26 509.30 511.92 705.70 537.09
00053822 00000126 381.59 58.26 452.72 658.79 533.53 285.54 734.29 315.68 640.71 421.76 507.87 510.61 706.45 535.58
00053823 00000127 382.02 58.70 451.44 657.84 532.43 286.19 733.84 315.57 640.22 421.93 507.07 510.42 706.83 534.81
00053824 00000128 381.98 59.38 450.73 657.38 531.10 286.83 733.22 315.78 639.28 422.05 505.67 510.01 707.13 534.07
00053825 00000129 382.05 59.58 451.15 657.11 530.84 287.02 733.29 316.31 639.11 421.82 505.93 510.45 707.28 534.77
00053826 00000130 381.01 59.66 452.14 658.11 531.40 287.67 733.44 317.06 639.97 422.93 506.63 510.83 707.51 535.20
00053827 00000131 379.78 60.43 453.12 657.12 529.72 288.35 732.17 316.76 638.82 423.17 506.16 510.17 708.56 533.70
00053828 00000132 379.60 61.86 453.02 655.35 528.60 288.84 730.82 316.97 637.23 423.92 504.90 509.58 708.52 532.85
00053829 00000133 379.41 60.95 450.70 656.11 527.97 289.31 729.37 316.74 636.99 425.43 504.41 509.56 708.03 532.31
00053830 00000134 377.89 62.26 450.31 654.91 526.77 289.76 728.60 316.33 637.11 425.80 503.77 509.62 707.91 531.65
00053831 00000135 377.74 62.47 450.08 654.95 526.41 289.60 727.99 315.94 636.09 426.13 503.87 510.14 707.31 531.91
00053832 00000136 377.54 62.21 450.26 655.80 526.00 290.07 727.88 316.03 635.93 426.30 503.71 510.65 707.72 532.09
00053833 00000137 377.07 61.96 451.34 657.70 527.01 290.85 728.00 316.92 636.52 427.84 503.83 511.01 707.91 532.58
00053834 00000138 377.94 62.35 451.00 657.94 527.62 291.99 728.36 317.06 637.70 429.09 504.22 511.99 708.78 532.77
00053835 00000139 378.78 62.06 452.16 658.92 528.27 291.76 729.08 317.12 637.63 429.05 504.56 512.45 708.61 533.50
00053836 00000140 380.25 62.23 452.73 659.43 529.39 292.21 730.23 317.16 638.24 430.01 505.55 513.60 709.30 534.32
00053837 00000141 379.36 62.64 454.12 659.57 529.69 292.18 730.55 317.41 639.18 429.99 505.88 513.18 710.38 534.14
00053838 00000142 379.48 63.15 455.15 660.07 530.58 292.07 731.37 317.51 639.82 430.84 506.91 513.44 710.91 534.51
00053839 00000143 379.77 64.28 455.13 659.37 531.15 292.78 731.59 317.74 640.63 430.76 507.37 514.18 711.10 534.95
00053840 00000144 379.71 64.72 455.31 659.16 531.13 292.65 731.61 317.60 640.08 431.14 507.50 514.44 711.11 535.17
00053841 00000145 380.03 63.89 454.48 660.11 531.03 292.90 731.24 318.28 640.14 430.73 507.39 514.40 711.11 535.49
00053842 00000146 378.99 64.24 455.22 659.12 531.41 292.35 730.82 318.02 639.71 431.09 507.51 514.94 709.41 536.25
00053843 00000147 381.27 64.13 452.10 656.72 531.19 291.60 731.93 317.34 638.82 431.26 509.22 515.85 709.60 537.06
00053844 00000148 383.07 63.36 451.56 656.12 533.07 291.00 732.72 318.47 638.25 432.12 509.81 518.43 704.64 541.02
CROP_BBOX: 88 0 1119 930
