Video ID: 	iOExAgDQNrY
H: 	1080
W: 	1920
FPS: 	25.0

FRAME INDEX X0 Y0 W H [Landmarks (5 Points)]

00034678 00000000 990.88 144.69 377.83 570.94 1084.42 375.73 1257.91 366.76 1185.50 459.11 1120.13 580.42 1258.29 573.22
00034679 DELETE   997.14 148.47 377.28 577.92 1087.30 385.85 1261.72 379.06 1182.46 480.76 1119.78 592.11 1258.38 586.65
00034680 DELETE   1002.04 154.15 378.28 587.95 1092.62 392.78 1264.25 388.46 1180.84 490.90 1123.51 606.72 1253.28 603.76
00034681 DELETE   1003.20 160.32 380.37 588.93 1092.64 400.40 1265.22 397.91 1176.62 500.52 1119.67 611.46 1254.76 609.89
00034682 00000004 1004.72 166.86 382.74 587.00 1092.75 406.97 1266.59 406.13 1173.63 509.10 1115.12 613.11 1256.33 612.73
00034683 00000005 1007.09 170.72 380.39 584.93 1091.48 409.75 1266.41 410.77 1170.10 515.75 1111.73 616.07 1254.41 617.34
00034684 00000006 1007.16 170.78 379.87 584.28 1090.73 411.11 1266.94 413.13 1168.53 519.64 1108.32 616.73 1253.24 618.88
00034685 00000007 1006.09 171.14 381.19 582.32 1089.35 413.10 1266.88 414.43 1167.54 521.89 1107.86 616.84 1254.99 618.36
00034686 00000008 1005.72 173.45 381.40 580.87 1088.30 413.86 1265.82 414.91 1166.85 524.85 1107.28 617.68 1255.55 618.86
00034687 00000009 1006.35 174.26 380.46 580.57 1087.29 414.97 1264.64 415.42 1164.97 526.47 1107.30 618.40 1255.84 619.02
00034688 00000010 1004.11 174.10 381.78 582.84 1085.19 414.81 1262.89 415.93 1162.76 527.81 1105.02 619.35 1254.45 620.25
00034689 00000011 1003.02 173.61 382.62 583.62 1084.50 414.19 1261.64 414.93 1162.15 527.72 1104.81 619.41 1253.70 619.94
00034690 00000012 1002.06 172.86 382.44 585.25 1083.33 413.78 1259.53 415.13 1160.15 527.92 1103.20 618.70 1252.59 619.55
00034691 00000013 1000.53 172.51 383.35 585.50 1082.03 413.53 1257.46 414.91 1158.05 527.64 1101.91 618.09 1251.09 618.83
00034692 00000014 997.89 171.73 384.82 586.15 1079.82 412.78 1256.84 415.03 1156.28 527.86 1098.80 617.19 1250.51 618.41
00034693 00000015 994.90 170.92 385.74 588.33 1077.42 412.90 1255.08 416.25 1154.11 529.02 1095.82 617.32 1249.83 619.04
00034694 00000016 991.17 169.88 386.97 589.76 1074.92 412.84 1253.50 417.25 1152.81 529.29 1093.04 617.50 1248.14 619.83
00034695 00000017 988.27 168.85 387.42 590.42 1072.30 412.20 1250.39 417.11 1149.95 528.41 1091.14 618.00 1244.94 620.63
00034696 00000018 986.95 168.68 385.76 591.59 1069.57 412.87 1247.67 417.84 1146.53 528.31 1088.04 619.13 1241.30 621.85
00034697 00000019 983.90 167.47 386.45 592.78 1067.24 413.58 1244.64 417.71 1146.03 529.46 1088.26 622.32 1238.68 624.45
00034698 00000020 984.12 168.34 384.21 594.60 1066.99 413.51 1241.95 417.94 1145.63 529.81 1089.00 624.55 1235.54 627.12
00034699 00000021 982.88 168.93 384.95 593.28 1067.80 413.38 1240.55 417.19 1146.98 528.49 1091.78 625.06 1232.17 627.45
00034700 00000022 982.74 168.13 384.97 594.59 1067.48 413.56 1239.64 417.27 1146.59 527.62 1091.90 625.45 1230.75 627.85
00034701 00000023 982.68 168.46 384.66 593.36 1067.72 412.90 1238.60 416.14 1146.23 526.88 1093.81 625.47 1229.12 627.61
00034702 00000024 982.96 168.81 384.38 596.12 1068.32 412.26 1237.01 415.93 1145.86 526.69 1094.83 626.82 1226.49 629.56
00034703 00000025 983.49 169.59 383.70 599.04 1068.32 412.41 1236.27 416.19 1145.40 527.28 1094.51 628.35 1225.54 631.32
00034704 00000026 981.58 169.19 384.37 600.31 1066.22 413.23 1234.97 416.80 1143.75 526.83 1093.30 628.85 1223.81 631.79
00034705 00000027 980.29 169.11 383.48 597.79 1063.91 413.73 1233.61 416.79 1143.22 527.83 1092.57 629.32 1222.63 631.90
00034706 00000028 979.31 167.93 384.07 593.86 1061.96 413.74 1234.67 416.33 1142.54 529.15 1091.57 628.61 1224.37 630.52
00034707 00000029 977.73 167.58 384.92 591.23 1062.14 413.35 1236.78 416.74 1144.71 528.68 1090.35 626.67 1226.10 629.19
00034708 00000030 978.05 167.49 385.38 592.94 1064.45 413.78 1238.52 417.56 1147.02 528.47 1091.55 626.28 1228.51 628.99
00034709 00000031 978.29 167.59 386.01 593.76 1066.10 415.26 1239.21 419.47 1148.27 528.62 1092.43 626.65 1228.67 629.78
00034710 00000032 977.81 168.00 384.50 592.10 1064.78 415.97 1238.39 420.37 1148.41 529.54 1091.06 627.26 1226.52 630.70
00034711 00000033 977.79 169.12 383.11 588.91 1064.45 416.07 1238.19 421.10 1148.64 529.65 1089.69 626.41 1223.86 630.59
00034712 00000034 978.35 169.63 381.88 587.62 1065.20 415.46 1237.64 421.51 1148.14 529.61 1089.94 626.87 1221.05 632.00
00034713 00000035 977.79 168.66 381.38 589.64 1065.11 415.42 1237.47 421.09 1148.15 529.25 1090.37 627.79 1221.10 632.61
00034714 00000036 977.16 168.28 382.03 595.46 1064.96 413.88 1236.16 419.27 1148.66 527.69 1090.85 628.95 1219.50 633.81
00034715 00000037 976.41 167.46 380.33 595.00 1064.74 412.12 1235.04 416.92 1149.48 526.17 1091.94 628.34 1218.59 632.81
00034716 00000038 971.46 163.71 381.66 592.78 1061.49 411.16 1235.16 414.74 1150.36 524.28 1091.29 626.57 1218.00 630.11
00034717 00000039 969.74 165.97 380.04 585.05 1055.74 415.99 1232.69 406.94 1144.23 530.36 1092.64 629.33 1225.80 622.82
00034718 00000040 970.37 162.88 377.86 585.62 1053.48 414.26 1232.02 405.07 1141.43 529.86 1089.55 627.35 1225.67 620.82
00034719 00000041 966.71 160.17 379.26 588.04 1052.20 415.02 1230.10 404.76 1141.54 530.12 1088.45 626.81 1225.09 619.54
00034720 00000042 964.22 164.07 379.57 585.77 1052.16 418.44 1228.28 407.84 1142.59 530.24 1088.17 626.49 1225.35 619.07
00034721 00000043 961.31 167.68 379.98 584.77 1054.09 427.04 1229.31 416.51 1145.16 529.98 1089.07 630.23 1225.55 623.02
00034722 00000044 960.96 165.73 379.06 588.62 1054.73 423.63 1229.73 412.77 1146.54 530.51 1088.25 628.65 1225.57 621.39
00034723 00000045 961.40 166.35 377.00 585.26 1053.53 420.07 1230.28 409.95 1146.25 528.75 1085.28 625.39 1225.51 618.89
00034724 00000046 958.11 162.39 378.93 590.31 1052.26 418.28 1229.19 405.55 1147.16 526.17 1085.46 624.83 1226.27 616.24
00034725 00000047 959.98 161.53 375.85 597.69 1050.84 417.48 1227.45 403.26 1145.80 525.56 1084.64 626.98 1227.72 617.14
00034726 00000048 957.91 160.75 375.71 595.75 1048.20 418.49 1225.36 402.19 1144.68 525.76 1084.08 625.95 1228.37 614.54
00034727 00000049 956.05 161.84 375.94 591.56 1047.45 419.47 1224.56 402.46 1145.55 524.76 1084.43 623.81 1229.53 611.73
00034728 00000050 956.41 161.48 374.58 591.50 1047.35 419.47 1224.91 401.95 1146.05 525.94 1084.91 624.37 1230.31 611.79
00034729 00000051 954.67 161.81 376.30 592.37 1046.60 421.02 1224.66 403.04 1146.01 527.57 1084.34 625.46 1230.36 612.43
00034730 00000052 954.70 162.95 375.73 593.92 1046.16 421.48 1224.34 402.80 1145.75 528.21 1084.48 627.19 1230.51 613.48
00034731 00000053 955.20 162.74 374.45 592.78 1046.74 419.26 1224.61 401.10 1146.60 525.59 1084.86 625.30 1231.12 612.02
00034732 00000054 955.15 156.96 375.91 595.15 1052.59 412.93 1229.69 399.14 1153.33 518.59 1089.10 619.74 1233.17 609.97
00034733 00000055 956.67 151.92 378.89 595.08 1059.92 409.98 1237.75 401.02 1161.10 514.99 1091.47 613.91 1237.57 608.61
00034734 00000056 963.25 153.03 381.48 592.93 1070.23 409.56 1246.24 404.32 1171.61 520.46 1099.66 614.49 1243.18 611.78
00034735 00000057 971.70 160.11 381.34 590.24 1081.08 412.38 1257.34 405.28 1185.85 527.31 1113.24 622.84 1251.11 617.96
00034736 00000058 975.66 158.35 385.90 599.31 1095.38 410.47 1270.24 415.71 1199.08 525.71 1123.21 623.32 1257.86 627.89
00034737 00000059 983.33 161.53 383.39 609.08 1105.07 419.29 1277.04 423.42 1212.05 535.69 1134.37 633.83 1264.80 638.30
00034738 00000060 995.56 164.33 373.02 613.65 1113.87 423.65 1282.13 425.96 1221.40 540.96 1143.12 641.68 1268.18 644.69
00034739 00000061 1001.21 169.44 371.09 611.81 1119.59 427.50 1292.20 429.27 1230.12 544.11 1148.74 646.34 1276.24 649.01
00034740 DELETE   1000.94 167.65 374.26 614.77 1121.85 427.74 1295.67 430.47 1232.62 545.50 1147.98 645.60 1278.83 649.15
00034741 00000063 998.12 166.79 379.76 611.01 1118.84 425.13 1297.80 429.26 1230.52 545.14 1142.54 640.53 1280.79 645.13
00034742 DELETE   994.94 162.33 382.58 609.97 1114.26 420.42 1295.15 425.16 1225.00 541.18 1138.92 636.79 1279.23 641.56
00034743 00000065 991.69 162.53 381.04 608.54 1108.91 417.77 1288.36 422.95 1218.51 535.81 1135.20 634.61 1273.08 639.53
00034744 00000066 986.18 161.04 382.32 606.16 1104.80 414.54 1282.98 421.96 1211.89 529.36 1129.11 631.55 1264.97 638.30
00034745 00000067 984.16 156.89 380.55 605.03 1100.86 411.17 1277.89 418.16 1205.12 523.46 1123.55 627.14 1259.78 633.46
00034746 00000068 981.70 157.78 380.95 607.32 1098.06 408.33 1273.66 415.74 1202.11 522.10 1119.94 626.66 1256.23 633.37
00034747 00000069 981.72 158.40 379.30 613.34 1096.00 406.58 1269.55 414.53 1199.15 520.35 1114.69 626.89 1251.35 634.35
00034748 00000070 980.38 158.25 379.83 613.95 1095.13 405.46 1269.45 414.08 1199.23 520.42 1113.20 626.09 1251.44 634.03
00034749 00000071 980.82 155.44 379.69 613.20 1097.29 404.52 1274.34 414.53 1202.29 520.51 1114.61 625.79 1253.79 634.80
00034750 00000072 980.19 154.42 382.73 608.88 1101.69 405.31 1278.67 411.74 1208.68 521.12 1123.98 627.06 1257.73 633.14
00034751 00000073 982.23 153.69 381.84 606.83 1105.59 405.59 1281.02 411.15 1212.99 521.73 1128.99 625.46 1260.26 630.68
00034752 00000074 980.58 153.32 384.17 604.88 1104.71 404.78 1280.71 407.95 1213.99 522.47 1130.19 623.40 1263.83 626.29
00034753 00000075 980.21 152.87 381.47 601.42 1101.39 402.64 1275.58 405.90 1208.19 519.48 1126.45 619.07 1260.95 621.93
00034754 00000076 974.11 153.81 381.88 597.22 1096.10 400.12 1271.12 404.70 1201.56 519.02 1122.14 616.53 1257.66 620.14
00034755 00000077 975.57 159.34 374.67 590.64 1082.97 408.05 1260.07 402.93 1191.01 525.71 1113.42 621.33 1251.58 618.54
00034756 00000078 971.44 156.20 375.10 593.75 1078.15 408.53 1255.29 402.70 1186.15 527.39 1109.55 621.33 1248.92 618.04
00034757 00000079 968.28 157.40 378.36 593.85 1078.07 410.11 1254.63 404.55 1186.29 527.97 1109.45 622.13 1247.96 619.09
00034758 00000080 970.07 158.79 377.08 592.29 1078.00 410.56 1254.74 405.00 1185.54 528.39 1109.47 622.59 1247.96 619.43
00034759 00000081 963.26 158.27 380.17 592.95 1071.99 413.18 1249.46 406.71 1179.17 527.52 1104.12 624.40 1242.21 620.69
00034760 DELETE   951.85 155.02 384.26 593.08 1058.31 417.22 1235.12 412.27 1157.48 521.95 1089.89 621.31 1227.73 618.58
00034761 DELETE   937.47 158.70 389.85 591.06 1041.13 416.23 1219.70 410.78 1137.38 519.01 1073.06 620.46 1210.72 615.93
00034762 DELETE   938.30 163.87 383.50 591.56 1024.88 414.49 1200.72 409.60 1107.96 517.91 1051.86 619.04 1194.75 615.35
00034763 00000085 937.06 169.12 380.25 592.70 1015.99 413.45 1192.20 411.28 1090.69 518.89 1035.61 618.90 1183.84 617.50
00034764 00000086 937.96 172.41 378.56 591.70 1012.67 411.27 1183.48 410.86 1081.24 521.79 1031.32 618.83 1175.93 618.58
00034765 00000087 936.78 174.89 380.18 592.78 1008.11 414.53 1176.69 414.26 1072.98 525.80 1027.78 620.79 1173.20 620.21
00034766 00000088 934.04 175.92 382.21 592.72 1001.99 418.40 1170.11 418.08 1064.87 528.13 1023.32 621.89 1170.71 620.70
00034767 00000089 930.74 176.82 384.34 592.74 997.62 420.09 1164.07 419.08 1059.20 531.33 1022.76 622.58 1169.81 620.44
00034768 00000090 927.09 175.61 387.48 592.09 994.17 420.43 1160.58 417.41 1056.91 532.13 1022.39 622.61 1169.73 618.49
00034769 00000091 925.77 174.40 388.34 591.33 993.36 420.65 1160.42 416.70 1057.00 532.21 1022.40 621.26 1170.92 616.19
00034770 00000092 927.34 175.38 387.85 591.40 994.41 421.01 1160.70 416.75 1057.71 532.40 1023.68 621.55 1171.70 616.29
00034771 00000093 928.67 177.35 387.41 594.37 995.43 421.04 1160.06 417.18 1057.38 533.01 1024.18 622.94 1171.57 618.16
00034772 00000094 930.74 179.22 385.56 595.53 995.92 421.74 1159.46 418.94 1055.72 534.82 1023.13 623.98 1170.17 620.25
00034773 00000095 931.03 181.66 385.64 593.06 996.06 422.97 1159.99 421.01 1055.81 536.38 1022.26 625.02 1168.97 622.18
00034774 00000096 933.52 183.47 384.26 590.16 998.03 425.33 1163.95 424.22 1058.35 537.88 1023.52 625.90 1171.13 623.93
00034775 00000097 935.55 181.48 383.92 590.03 1000.57 424.94 1165.97 425.37 1060.76 540.02 1025.54 626.67 1169.70 626.18
00034776 00000098 935.76 180.62 384.05 589.14 1001.77 424.57 1165.95 424.96 1062.17 539.84 1027.60 627.62 1167.25 627.35
00034777 00000099 934.64 179.86 384.75 588.52 1001.79 422.44 1165.58 424.27 1061.74 538.99 1026.38 626.71 1164.90 627.60
00034778 00000100 933.84 180.29 385.47 586.79 1001.69 421.59 1164.82 423.69 1061.06 538.05 1026.98 626.31 1163.83 627.41
00034779 00000101 933.90 179.60 385.45 587.03 1002.00 420.69 1165.33 423.15 1060.77 537.86 1026.56 625.44 1164.08 626.82
00034780 00000102 934.10 178.52 385.57 587.85 1002.15 420.85 1166.15 423.12 1061.82 537.88 1026.77 625.47 1165.07 626.66
00034781 00000103 935.34 178.68 384.53 589.32 1002.43 420.94 1166.05 422.96 1061.69 537.85 1027.59 626.28 1165.95 627.28
00034782 00000104 935.69 178.84 384.01 590.02 1002.62 421.39 1165.79 422.90 1061.71 537.47 1028.09 626.85 1165.70 627.53
00034783 00000105 935.66 177.55 384.93 594.30 1003.54 421.67 1165.74 422.54 1062.14 537.18 1029.92 628.22 1165.85 628.56
00034784 00000106 938.27 177.03 383.25 596.70 1005.18 422.02 1166.45 422.80 1063.63 537.41 1031.20 628.49 1166.72 628.93
00034785 00000107 938.58 176.68 383.18 596.69 1006.10 422.29 1168.26 423.45 1065.13 537.09 1031.62 628.41 1167.45 629.24
00034786 00000108 939.78 176.72 382.06 596.38 1007.48 422.85 1170.15 424.47 1067.19 537.75 1032.18 628.32 1168.48 629.61
00034787 00000109 939.60 176.66 382.80 594.03 1007.91 422.28 1171.41 423.75 1068.72 537.75 1033.34 626.83 1170.64 627.84
00034788 00000110 939.22 174.93 382.50 591.18 1008.81 420.06 1172.77 420.72 1071.39 535.99 1035.02 624.10 1173.21 624.14
00034789 00000111 938.43 174.78 383.52 585.86 1008.76 418.09 1173.85 417.88 1071.88 534.23 1035.01 620.92 1173.92 620.13
00034790 00000112 936.37 172.93 383.79 584.12 1007.77 415.97 1173.65 415.47 1072.01 531.72 1033.26 618.35 1172.66 617.16
00034791 00000113 933.37 172.31 383.92 582.06 1006.22 414.95 1172.79 415.26 1070.61 530.54 1029.86 616.66 1169.58 616.23
00034792 00000114 930.95 173.05 384.18 580.21 1004.02 414.47 1170.11 416.49 1067.53 530.39 1026.43 616.48 1165.53 617.37
00034793 00000115 929.24 174.09 384.24 581.63 1002.01 414.75 1168.27 417.99 1065.20 532.11 1023.57 617.75 1163.57 619.51
00034794 00000116 927.02 173.20 385.22 580.99 1003.96 413.46 1171.54 418.45 1069.62 531.01 1022.47 616.99 1162.58 620.42
00034795 00000117 923.94 167.06 385.65 583.58 1011.75 406.16 1181.83 411.30 1084.11 523.35 1025.84 611.73 1161.79 616.49
CROP_BBOX: 660 0 1649 936
