Video ID: 	KjRv3_dyzlw
H: 	2160
W: 	3840
FPS: 	23.976023976023978

FRAME INDEX X0 Y0 W H [Landmarks (5 Points)]

00008671 00000000 1850.28 280.84 789.92 1132.09 2026.08 794.64 2352.79 812.38 2153.35 1007.68 2059.02 1141.13 2334.02 1157.67
00008672 DELETE   1849.35 283.05 786.11 1129.25 2013.49 803.27 2334.68 829.58 2123.46 1007.80 2035.72 1146.08 2303.60 1169.23
00008673 DELETE   1836.69 292.59 784.90 1114.14 1987.45 794.25 2300.13 828.98 2081.59 1004.46 2009.56 1132.81 2271.67 1161.12
00008674 DELETE   1831.18 272.08 779.74 1124.74 1966.68 775.61 2275.60 810.32 2054.26 986.58 1990.35 1122.13 2252.17 1148.34
00008675 00000004 1830.65 260.44 779.15 1133.52 1960.73 768.20 2272.41 799.02 2047.52 978.80 1985.91 1122.27 2251.61 1144.78
00008676 00000005 1834.39 276.83 782.46 1127.07 1976.35 777.68 2286.65 813.33 2063.11 989.19 1998.34 1126.75 2259.84 1154.24
00008677 DELETE   1844.45 274.88 786.54 1150.56 1981.14 798.39 2291.86 818.77 2081.62 1021.10 2004.87 1160.96 2274.76 1174.35
00008678 00000007 1846.11 309.44 802.19 1135.06 1986.53 815.77 2295.58 836.65 2077.44 1055.22 2016.25 1179.30 2295.19 1194.28
00008679 00000008 1840.80 316.74 807.41 1136.76 1984.70 828.77 2293.47 849.30 2084.27 1070.95 2018.10 1190.20 2296.27 1205.09
00008680 00000009 1838.51 317.70 807.82 1139.95 1981.90 829.84 2293.02 852.55 2083.41 1074.09 2013.83 1192.44 2295.11 1209.38
00008681 00000010 1837.19 313.15 809.78 1138.89 1979.01 825.99 2289.83 845.57 2079.18 1068.72 2010.76 1189.22 2295.87 1203.54
00008682 00000011 1843.67 307.79 805.45 1138.01 1982.38 823.76 2299.82 842.58 2079.38 1063.62 2011.65 1182.86 2302.01 1196.27
00008683 00000012 1847.81 313.00 800.82 1127.18 1991.88 846.28 2310.26 853.96 2095.75 1063.22 2021.89 1183.60 2310.08 1187.67
00008684 00000013 1844.55 308.46 803.85 1139.58 1995.17 853.13 2313.46 857.36 2109.27 1069.30 2030.12 1191.27 2315.13 1192.79
00008685 00000014 1843.13 316.35 806.04 1136.65 1990.35 848.90 2313.43 856.34 2105.73 1071.82 2025.82 1195.19 2311.97 1199.03
00008686 00000015 1842.52 317.50 804.02 1132.03 1988.58 841.13 2313.13 851.44 2102.47 1069.43 2023.23 1190.15 2313.71 1196.34
00008687 00000016 1846.04 329.85 797.84 1108.72 2001.37 844.53 2322.82 860.60 2103.22 1039.26 2023.05 1161.82 2303.44 1176.33
00008688 00000017 1844.87 310.14 794.01 1119.85 2000.61 825.65 2324.99 846.96 2104.75 1026.80 2021.50 1148.53 2308.11 1167.07
00008689 00000018 1846.16 306.66 789.71 1121.01 2006.69 821.61 2333.13 843.72 2116.48 1021.49 2027.01 1145.40 2316.41 1164.74
00008690 00000019 1856.28 314.50 786.35 1116.81 2023.01 841.89 2345.80 861.30 2132.72 1025.59 2039.28 1149.79 2326.66 1167.00
00008691 00000020 1862.72 298.27 785.96 1143.23 2012.86 856.35 2342.31 856.96 2140.58 1037.86 2051.52 1167.78 2344.44 1168.67
00008692 00000021 1859.92 322.16 793.54 1128.17 2021.62 867.97 2344.76 866.92 2143.61 1060.24 2061.34 1181.68 2348.37 1180.41
00008693 00000022 1850.48 329.13 798.77 1127.61 2012.22 869.80 2334.26 863.56 2137.44 1068.61 2058.54 1188.01 2343.85 1182.59
00008694 DELETE   1841.22 336.15 799.81 1112.22 2001.13 861.06 2323.07 856.30 2121.88 1055.21 2049.90 1177.79 2333.99 1173.82
00008695 00000024 1831.64 321.87 806.56 1115.96 1989.96 845.97 2313.84 844.97 2106.43 1038.51 2035.04 1160.61 2322.54 1159.93
00008696 00000025 1829.75 312.30 801.57 1114.41 1985.78 831.86 2304.44 838.13 2097.27 1029.29 2030.09 1149.89 2309.86 1154.98
00008697 00000026 1828.40 312.21 804.70 1117.18 1985.60 829.80 2303.77 836.13 2097.44 1029.00 2030.14 1150.00 2310.42 1154.90
00008698 00000027 1829.35 316.17 804.92 1118.64 1984.62 839.35 2305.00 839.05 2098.66 1034.76 2033.08 1159.35 2313.94 1159.02
00008699 00000028 1828.64 320.49 803.18 1120.45 1982.76 843.84 2301.93 842.76 2097.06 1039.87 2031.52 1164.21 2311.15 1163.49
00008700 00000029 1826.76 321.12 802.41 1119.77 1977.07 842.76 2292.54 845.22 2085.18 1039.54 2025.07 1164.63 2300.76 1166.40
00008701 00000030 1819.39 320.30 792.90 1115.51 1970.17 833.48 2282.72 845.34 2077.64 1035.31 2011.72 1157.68 2284.22 1166.84
00008702 00000031 1816.14 322.03 779.41 1105.69 1962.16 826.26 2271.16 841.55 2069.72 1027.06 2002.80 1149.18 2271.33 1161.01
00008703 00000032 1815.13 318.28 774.93 1108.94 1955.43 823.17 2266.05 838.51 2062.25 1024.55 1997.82 1149.64 2265.77 1161.56
00008704 00000033 1809.61 325.92 779.88 1106.45 1948.61 830.92 2259.21 841.00 2056.73 1031.14 1996.62 1154.98 2266.41 1162.78
00008705 00000034 1807.48 330.35 781.41 1110.64 1944.74 842.03 2254.16 849.13 2051.49 1038.11 1994.76 1162.46 2265.78 1168.27
00008706 00000035 1803.30 335.16 781.99 1109.65 1938.82 849.29 2250.37 855.69 2045.64 1045.18 1989.79 1168.44 2261.42 1173.65
00008707 00000036 1803.87 333.78 780.70 1120.30 1940.48 867.87 2253.53 871.14 2048.80 1050.84 1987.45 1178.06 2260.82 1181.31
00008708 00000037 1797.64 314.87 780.61 1154.55 1929.10 877.75 2246.03 879.32 2048.03 1083.57 1973.13 1213.89 2266.52 1212.06
00008709 00000038 1798.91 320.12 781.91 1153.74 1931.26 881.62 2253.14 884.51 2055.74 1091.76 1972.94 1218.77 2273.20 1218.46
00008710 00000039 1799.90 322.97 784.14 1151.96 1929.91 872.25 2255.67 877.18 2057.93 1092.33 1971.79 1217.43 2272.25 1219.16
00008711 00000040 1804.00 321.15 781.40 1153.51 1934.38 866.44 2258.18 873.42 2062.57 1092.80 1975.12 1216.57 2275.07 1219.93
00008712 00000041 1811.90 314.97 784.61 1159.54 1943.41 859.82 2264.27 869.35 2068.76 1091.26 1982.89 1214.85 2277.43 1220.83
00008713 00000042 1817.52 315.92 784.38 1161.25 1951.95 858.27 2270.94 868.60 2078.41 1097.61 1989.56 1221.22 2284.08 1228.42
00008714 00000043 1819.71 325.24 788.53 1152.65 1956.51 858.28 2278.42 868.86 2084.24 1099.69 1992.55 1220.93 2290.47 1228.57
00008715 00000044 1821.94 323.98 786.89 1153.65 1959.12 857.97 2284.49 868.77 2089.93 1100.60 1993.64 1220.67 2294.97 1228.75
00008716 00000045 1821.58 323.77 787.56 1151.26 1959.49 856.08 2285.96 866.96 2090.93 1098.94 1994.50 1217.68 2296.04 1225.83
00008717 00000046 1822.60 323.59 788.45 1153.08 1962.04 854.89 2288.74 865.40 2094.40 1100.11 1997.58 1216.02 2301.88 1223.81
00008718 00000047 1824.51 330.72 791.49 1145.27 1965.35 855.99 2295.75 865.51 2099.92 1101.16 2002.58 1216.71 2309.14 1223.62
00008719 00000048 1820.91 344.68 799.58 1125.40 1975.34 863.54 2308.91 871.49 2106.81 1081.55 2017.50 1213.67 2317.42 1216.06
00008720 00000049 1822.38 337.91 800.43 1131.48 1976.60 862.96 2309.80 869.53 2108.27 1081.13 2020.61 1211.35 2323.63 1212.37
00008721 00000050 1823.15 337.02 798.57 1130.57 1975.60 866.28 2310.04 871.99 2108.41 1079.83 2020.39 1208.27 2327.62 1208.33
00008722 00000051 1822.80 338.30 799.24 1128.48 1979.91 878.53 2318.24 883.25 2116.37 1080.32 2025.37 1206.07 2334.55 1204.87
00008723 00000052 1830.62 332.24 810.62 1140.49 1985.24 874.40 2312.53 865.11 2120.55 1089.00 2035.11 1211.81 2339.32 1201.06
00008724 00000053 1825.07 349.94 802.66 1117.56 1979.29 885.00 2319.54 881.28 2117.87 1082.60 2029.59 1204.05 2347.24 1196.52
00008725 00000054 1822.73 347.15 804.16 1120.15 1979.01 879.70 2319.21 876.67 2120.84 1084.78 2030.54 1201.13 2352.78 1193.84
00008726 00000055 1824.20 349.91 805.66 1119.03 1979.01 876.94 2316.98 874.92 2118.45 1086.09 2030.86 1200.58 2353.35 1194.00
00008727 00000056 1824.29 349.05 806.36 1121.24 1979.77 875.73 2317.23 874.22 2119.11 1085.67 2030.80 1200.57 2353.00 1194.25
00008728 00000057 1823.38 350.28 805.58 1122.16 1978.94 873.80 2316.10 870.98 2119.16 1086.70 2031.33 1200.57 2354.61 1193.12
00008729 00000058 1822.39 351.59 805.23 1121.51 1978.17 874.09 2314.74 871.03 2117.46 1086.26 2031.72 1200.72 2355.05 1192.82
00008730 00000059 1821.21 351.76 807.88 1122.94 1976.32 879.41 2313.00 872.69 2115.57 1084.83 2035.66 1203.89 2356.77 1192.59
00008731 00000060 1824.95 335.56 821.52 1147.36 1980.75 885.58 2316.01 866.12 2131.15 1097.93 2040.79 1214.45 2361.31 1194.57
00008732 00000061 1825.61 336.13 820.68 1147.15 1984.36 893.83 2314.19 868.68 2135.30 1098.11 2047.58 1218.57 2365.14 1194.27
00008733 00000062 1824.88 333.81 821.59 1148.83 1982.78 892.61 2312.83 868.96 2131.68 1096.26 2046.20 1220.64 2359.03 1197.75
00008734 00000063 1825.95 334.86 819.21 1147.27 1982.40 892.48 2313.58 868.75 2131.38 1096.43 2044.51 1220.65 2360.17 1197.76
00008735 00000064 1823.12 331.36 821.39 1149.11 1980.34 892.52 2314.24 869.33 2130.54 1095.19 2043.69 1223.21 2358.21 1200.98
00008736 00000065 1824.56 335.83 820.00 1144.76 1978.44 885.51 2316.83 869.22 2126.54 1097.03 2037.65 1221.64 2356.95 1205.19
00008737 00000066 1819.24 353.13 809.28 1119.83 1977.17 885.73 2318.50 883.18 2118.24 1085.58 2035.03 1210.79 2346.20 1203.60
00008738 00000067 1818.51 352.88 810.14 1118.38 1979.49 882.35 2320.28 886.67 2118.21 1085.46 2029.88 1211.92 2336.49 1210.74
00008739 00000068 1818.05 353.13 811.85 1120.73 1982.90 880.19 2317.90 888.28 2119.22 1086.24 2031.41 1220.23 2323.13 1222.69
00008740 00000069 1822.96 350.59 807.78 1126.01 1984.70 880.84 2312.47 890.03 2117.07 1087.52 2034.34 1227.14 2316.10 1230.46
00008741 00000070 1823.89 354.95 806.62 1124.48 1989.42 883.89 2313.15 895.94 2118.41 1091.10 2036.61 1227.94 2312.72 1234.01
00008742 00000071 1823.99 355.84 805.43 1125.06 1991.19 890.91 2315.78 902.48 2122.13 1096.89 2039.33 1231.07 2316.06 1236.78
00008743 00000072 1825.75 363.72 805.39 1121.11 1993.63 893.50 2318.28 903.96 2124.63 1098.76 2041.56 1233.04 2319.37 1238.07
00008744 00000073 1823.22 362.60 805.53 1121.70 1994.18 892.22 2319.50 901.62 2128.58 1097.63 2044.47 1235.36 2319.60 1239.85
00008745 00000074 1823.05 360.04 805.17 1129.90 1997.90 889.94 2320.78 897.77 2134.42 1096.69 2051.71 1241.73 2319.63 1245.68
00008746 00000075 1824.79 360.96 806.23 1134.75 1999.03 888.80 2322.80 895.15 2136.26 1098.89 2057.85 1251.61 2320.39 1254.57
00008747 00000076 1828.91 360.34 804.05 1135.49 2001.10 893.90 2329.40 899.05 2139.43 1102.97 2058.36 1250.04 2328.55 1251.92
00008748 00000077 1830.23 368.63 803.66 1122.83 2001.83 902.50 2334.61 906.09 2141.01 1103.54 2054.91 1245.01 2335.22 1245.62
00008749 00000078 1832.99 369.33 801.44 1122.36 2002.12 906.62 2335.55 910.59 2140.68 1105.36 2054.54 1244.06 2338.57 1244.67
00008750 00000079 1833.60 370.27 802.40 1122.18 2003.03 909.93 2337.69 912.17 2142.87 1108.13 2056.94 1244.42 2341.88 1243.66
00008751 00000080 1833.99 369.55 801.99 1123.29 2002.23 912.83 2338.41 915.45 2142.33 1111.24 2055.41 1244.60 2343.26 1244.02
00008752 00000081 1833.86 371.40 801.25 1120.16 2001.59 913.79 2339.20 917.40 2141.22 1111.85 2052.74 1242.01 2343.33 1242.28
00008753 00000082 1833.47 372.82 800.79 1117.32 2002.04 914.03 2339.28 918.54 2141.29 1110.10 2050.38 1237.99 2343.88 1238.89
00008754 00000083 1832.81 374.26 801.21 1115.97 2002.31 914.74 2339.45 919.06 2141.86 1110.80 2050.00 1237.10 2344.61 1237.69
00008755 00000084 1833.55 381.04 800.33 1109.19 2003.21 918.92 2340.56 919.21 2144.44 1112.41 2053.80 1237.58 2350.18 1234.94
00008756 00000085 1835.05 380.48 799.76 1109.84 2004.28 920.42 2340.43 918.97 2145.64 1114.20 2056.72 1237.64 2354.37 1233.18
00008757 00000086 1835.11 378.15 800.21 1108.31 2005.63 913.89 2342.33 914.95 2146.48 1107.80 2052.27 1228.26 2353.93 1225.60
00008758 00000087 1836.13 374.73 806.70 1106.67 2007.27 904.94 2344.82 908.81 2145.51 1097.95 2050.04 1222.75 2349.53 1222.76
00008759 00000088 1836.52 376.07 806.96 1104.90 2007.77 904.76 2344.67 909.28 2144.45 1098.31 2050.23 1222.60 2348.48 1223.21
00008760 00000089 1842.04 374.59 803.60 1111.08 2010.94 910.17 2347.23 913.70 2147.99 1103.73 2055.45 1227.44 2352.58 1227.19
00008761 00000090 1845.00 372.99 802.33 1113.96 2014.92 908.46 2350.23 911.66 2153.17 1102.54 2061.38 1229.97 2354.23 1229.72
00008762 00000091 1842.87 368.74 805.39 1112.51 2015.16 903.30 2349.63 906.70 2153.43 1096.62 2060.65 1223.18 2353.29 1223.20
00008763 00000092 1840.48 362.26 809.43 1109.13 2011.85 897.27 2347.73 897.58 2152.06 1091.89 2056.68 1216.79 2353.76 1214.12
00008764 00000093 1832.63 357.44 813.03 1108.21 2007.26 894.47 2343.07 896.31 2147.46 1088.13 2049.64 1211.62 2347.68 1210.19
00008765 00000094 1831.25 362.22 805.03 1105.19 2004.82 900.62 2341.67 903.10 2146.83 1089.23 2045.95 1212.63 2345.17 1211.52
00008766 00000095 1835.27 347.68 815.40 1126.33 1999.77 898.83 2333.50 889.46 2147.25 1109.48 2048.21 1223.44 2349.99 1213.27
00008767 00000096 1831.06 353.89 814.31 1122.50 2001.74 908.69 2333.33 897.47 2149.56 1113.03 2044.76 1222.77 2349.73 1211.05
00008768 00000097 1829.68 351.84 814.05 1125.20 2000.44 908.19 2334.18 895.52 2149.63 1112.85 2044.06 1223.46 2350.01 1210.63
00008769 00000098 1824.73 347.24 818.18 1132.21 1995.85 906.13 2333.98 889.52 2150.65 1110.68 2043.35 1228.00 2353.19 1212.23
00008770 00000099 1821.60 344.65 821.42 1134.14 1992.44 902.47 2329.81 886.32 2146.96 1108.24 2043.14 1226.19 2350.78 1210.32
00008771 00000100 1815.77 337.76 817.92 1136.95 1986.73 898.54 2321.28 880.78 2140.49 1107.12 2040.07 1223.76 2346.28 1206.32
00008772 00000101 1809.96 334.54 815.82 1137.52 1979.39 898.15 2314.11 880.74 2133.21 1105.61 2034.88 1227.16 2333.92 1210.26
00008773 00000102 1817.81 353.03 805.52 1121.06 1989.07 914.60 2311.63 901.90 2118.36 1089.45 2030.58 1217.21 2311.71 1207.02
00008774 00000103 1814.72 357.90 798.71 1113.89 1982.20 915.28 2301.73 901.61 2109.88 1092.11 2026.94 1219.86 2302.43 1209.04
00008775 00000104 1811.03 357.24 799.58 1113.39 1977.35 913.16 2295.57 896.72 2105.57 1088.10 2025.93 1215.42 2303.36 1202.15
00008776 00000105 1811.65 354.49 799.38 1113.16 1974.89 907.60 2292.95 891.18 2103.16 1082.16 2026.80 1209.87 2304.77 1197.05
00008777 00000106 1812.64 346.41 794.55 1120.75 1969.57 902.52 2285.26 886.04 2097.00 1078.23 2026.62 1204.36 2304.53 1191.37
00008778 00000107 1807.24 344.84 791.63 1119.31 1959.03 898.26 2274.55 876.86 2090.85 1070.56 2026.96 1203.77 2300.92 1187.01
00008779 00000108 1806.25 334.80 789.81 1124.98 1956.66 889.39 2273.20 867.19 2090.66 1056.61 2024.72 1198.97 2299.19 1181.83
00008780 00000109 1805.99 330.49 782.45 1120.31 1951.49 866.15 2267.69 852.48 2081.56 1044.47 2018.57 1189.76 2286.10 1179.73
00008781 00000110 1805.59 323.33 776.43 1115.29 1946.03 858.16 2254.52 843.29 2069.65 1024.68 2013.20 1180.17 2267.96 1169.30
00008782 00000111 1795.92 322.25 774.57 1120.74 1935.42 853.74 2244.48 834.72 2060.75 1012.78 2001.88 1180.76 2255.60 1166.96
00008783 00000112 1790.51 329.24 777.99 1122.74 1925.68 857.93 2240.21 835.84 2052.51 1020.11 1997.65 1188.87 2258.31 1172.69
00008784 00000113 1785.22 328.42 779.90 1137.23 1918.21 867.18 2241.47 841.99 2051.20 1032.33 1993.21 1202.02 2263.31 1183.89
00008785 00000114 1772.69 345.86 777.07 1107.10 1910.58 869.41 2235.38 851.41 2039.83 1055.23 1982.81 1212.83 2262.61 1195.99
00008786 00000115 1768.54 347.01 776.92 1113.44 1905.52 877.00 2230.40 857.42 2035.06 1064.03 1977.47 1216.99 2261.08 1198.32
00008787 00000116 1757.97 355.53 786.14 1112.07 1901.05 884.26 2225.99 868.22 2028.92 1074.53 1970.19 1221.21 2254.02 1205.36
00008788 00000117 1751.78 357.66 784.05 1116.42 1892.29 893.86 2217.25 876.40 2019.13 1083.46 1962.88 1225.42 2250.16 1207.44
00008789 00000118 1741.40 365.89 784.56 1118.04 1882.60 905.36 2204.45 883.75 2009.98 1090.15 1959.53 1232.81 2245.34 1211.39
00008790 00000119 1733.27 366.54 785.98 1118.26 1877.12 910.67 2199.00 887.65 2009.36 1093.81 1957.72 1232.83 2245.08 1209.95
00008791 00000120 1725.89 366.95 789.77 1114.28 1872.47 910.92 2188.30 880.38 2008.37 1094.23 1960.65 1228.52 2248.07 1199.31
00008792 00000121 1723.14 360.86 788.16 1114.87 1870.44 908.63 2183.46 873.00 2010.73 1091.46 1961.81 1221.52 2253.07 1187.95
00008793 00000122 1723.25 360.30 783.14 1115.32 1869.91 907.93 2181.32 871.23 2010.69 1090.36 1959.60 1216.03 2255.01 1181.64
00008794 00000123 1724.56 361.32 783.47 1116.51 1871.34 907.86 2181.15 869.38 2012.64 1091.80 1962.36 1214.62 2259.00 1178.77
00008795 00000124 1729.17 363.26 787.81 1114.42 1875.29 905.81 2188.19 869.13 2014.61 1090.76 1962.58 1213.73 2260.59 1179.56
00008796 00000125 1733.26 363.57 791.10 1105.59 1881.72 900.69 2198.00 868.59 2021.42 1083.83 1965.65 1210.00 2261.44 1179.76
00008797 00000126 1740.84 352.54 790.60 1112.40 1887.81 896.96 2206.88 865.70 2027.34 1077.19 1968.65 1209.37 2264.30 1179.59
00008798 00000127 1749.20 351.83 785.35 1110.48 1894.37 892.67 2212.76 865.41 2030.77 1071.81 1972.15 1208.01 2263.98 1181.84
00008799 00000128 1757.09 351.39 783.01 1107.89 1897.12 888.43 2216.50 864.36 2029.07 1069.36 1971.82 1204.83 2264.62 1181.38
00008800 00000129 1758.97 351.82 775.80 1103.35 1896.76 889.45 2216.92 865.91 2028.14 1068.70 1969.24 1201.48 2264.98 1178.42
00008801 00000130 1759.23 355.74 775.07 1097.08 1898.81 889.85 2216.59 866.91 2030.55 1071.17 1972.68 1200.37 2265.56 1177.95
00008802 00000131 1760.53 356.59 776.94 1099.06 1905.34 895.96 2220.08 872.27 2036.94 1075.28 1978.85 1202.63 2269.64 1179.22
00008803 00000132 1754.68 365.00 782.03 1098.35 1908.39 909.79 2220.03 877.79 2045.17 1078.48 1992.13 1215.49 2271.82 1185.21
00008804 00000133 1756.29 335.47 805.77 1144.54 1898.78 929.21 2228.26 880.61 2054.73 1097.82 1985.08 1237.04 2286.26 1192.03
00008805 00000134 1764.49 340.13 804.95 1144.31 1907.53 931.78 2236.21 886.30 2063.61 1106.37 1987.64 1237.52 2295.77 1195.75
00008806 00000135 1774.27 337.98 801.10 1145.91 1916.77 930.75 2243.23 892.21 2070.94 1112.40 1993.93 1237.17 2300.32 1201.49
00008807 00000136 1784.98 334.00 799.64 1151.58 1928.23 927.47 2258.03 896.42 2081.47 1118.04 1996.51 1233.83 2307.11 1204.73
00008808 00000137 1799.39 352.32 796.07 1129.49 1964.80 925.96 2280.01 903.44 2097.16 1093.73 2023.61 1212.47 2313.62 1192.98
00008809 00000138 1804.61 355.12 795.40 1119.80 1963.74 915.88 2294.64 900.71 2108.23 1100.94 2026.48 1221.50 2332.60 1204.39
00008810 00000139 1799.36 347.07 815.96 1139.77 1957.31 909.44 2290.17 875.82 2118.32 1118.28 2033.57 1235.93 2338.76 1203.74
00008811 00000140 1803.86 345.00 818.91 1140.69 1961.08 909.24 2292.60 875.48 2118.86 1116.35 2036.42 1236.48 2340.12 1204.16
00008812 00000141 1809.06 349.28 822.96 1135.40 1965.21 910.31 2298.20 878.17 2120.84 1115.22 2037.55 1234.40 2343.56 1203.39
00008813 00000142 1812.01 348.75 827.08 1135.31 1969.97 910.41 2305.56 879.87 2126.19 1115.84 2040.97 1232.72 2350.18 1202.85
00008814 00000143 1813.52 366.28 810.85 1107.66 1979.89 918.93 2315.31 903.12 2127.40 1097.30 2042.50 1217.73 2353.76 1199.80
00008815 00000144 1815.72 366.23 810.74 1106.44 1983.38 918.42 2319.57 901.75 2132.50 1095.88 2047.02 1218.23 2357.03 1199.77
00008816 00000145 1820.55 366.38 810.81 1107.00 1988.90 917.99 2323.93 902.05 2137.15 1097.38 2050.48 1217.90 2359.51 1200.30
00008817 00000146 1824.50 366.59 811.72 1107.78 1991.14 918.46 2326.44 902.51 2138.37 1097.56 2053.90 1219.13 2362.70 1201.49
00008818 00000147 1826.51 370.17 813.08 1105.75 1995.02 920.43 2328.88 905.20 2140.81 1100.63 2057.99 1221.18 2363.71 1204.26
00008819 00000148 1830.87 373.50 814.07 1105.25 1999.27 921.35 2333.94 907.14 2143.82 1102.73 2060.77 1222.80 2367.18 1206.88
00008820 00000149 1834.19 371.13 812.73 1110.26 2004.00 922.07 2338.14 909.81 2146.08 1102.83 2062.91 1223.40 2368.75 1209.13
00008821 00000150 1837.31 373.06 807.02 1110.36 2005.95 921.31 2339.36 910.40 2146.71 1104.16 2066.51 1226.49 2369.23 1213.27
00008822 00000151 1837.57 376.08 807.38 1109.06 2008.07 920.67 2341.74 910.83 2149.15 1104.35 2070.06 1228.88 2369.09 1216.77
00008823 00000152 1838.47 376.81 806.31 1107.04 2008.31 918.99 2341.91 909.37 2148.72 1103.55 2069.39 1226.73 2369.14 1214.87
00008824 00000153 1836.68 375.55 807.29 1106.35 2007.89 915.51 2340.55 906.97 2148.53 1101.79 2066.49 1221.42 2367.84 1210.59
00008825 00000154 1832.17 368.12 810.86 1106.07 2004.97 910.88 2337.40 900.01 2146.76 1092.58 2063.74 1217.57 2363.95 1204.76
00008826 00000155 1835.99 344.58 808.58 1121.18 1999.92 898.49 2329.05 889.52 2135.53 1082.11 2054.71 1209.05 2355.87 1197.43
00008827 00000156 1850.94 345.55 794.20 1113.39 2005.72 901.46 2315.58 876.18 2119.00 1062.01 2054.65 1197.96 2336.81 1176.26
