Video ID: 	axapQLdArf8
H: 	1080
W: 	1920
FPS: 	25.0

FRAME INDEX X0 Y0 W H [Landmarks (5 Points)]

00005767 00000000 828.57 87.99 603.07 706.96 970.39 328.70 1256.62 294.55 1134.43 479.80 1053.44 632.24 1261.92 600.83
00005768 00000001 829.79 90.26 596.45 704.22 973.04 328.62 1258.28 293.63 1139.64 478.18 1056.61 630.34 1263.96 598.07
00005769 00000002 833.78 95.45 593.46 703.36 978.92 330.10 1262.77 292.62 1147.31 476.42 1061.76 630.27 1271.29 595.62
00005770 00000003 838.51 107.84 583.87 691.22 984.63 328.63 1265.94 291.67 1156.22 474.45 1068.40 629.74 1275.63 595.30
00005771 00000004 840.38 108.31 588.06 693.14 992.90 328.03 1274.16 290.42 1168.78 474.84 1076.15 630.00 1284.43 595.16
00005772 00000005 845.26 106.22 594.66 697.76 1004.18 325.93 1285.61 289.50 1180.85 470.85 1084.03 631.26 1292.37 597.79
00005773 00000006 850.46 108.62 584.94 687.63 1020.45 324.51 1293.27 292.12 1193.64 472.26 1101.20 625.34 1297.88 594.47
00005774 00000007 859.25 107.99 585.22 672.66 1039.43 318.44 1314.71 291.48 1220.58 465.91 1119.15 615.22 1315.47 588.17
00005775 DELETE   874.69 102.15 587.00 678.02 1061.86 307.53 1336.29 280.94 1244.40 456.20 1137.34 610.54 1331.62 583.41
00005776 DELETE   885.37 87.63 591.50 687.46 1080.93 304.95 1353.05 274.93 1266.87 447.11 1154.46 605.21 1352.69 575.40
00005777 00000010 907.17 91.27 585.98 684.00 1110.34 295.12 1376.90 274.11 1293.03 438.85 1179.57 601.19 1373.13 579.22
00005778 DELETE   908.14 84.83 596.03 673.57 1113.29 288.39 1399.08 264.02 1313.42 439.91 1194.61 588.08 1396.69 564.70
00005779 00000012 918.28 75.33 601.43 683.80 1134.24 282.17 1415.75 263.05 1334.73 434.83 1206.66 582.18 1411.40 562.51
00005780 00000013 923.90 73.22 608.57 684.30 1156.15 278.70 1430.93 264.50 1357.25 427.34 1220.95 575.87 1428.75 559.82
00005781 00000014 930.92 64.64 606.30 691.72 1163.47 275.65 1437.68 259.40 1364.97 425.41 1228.25 577.01 1434.64 559.42
00005782 00000015 926.78 73.32 606.40 687.55 1151.78 278.54 1428.88 265.59 1349.57 430.22 1216.46 580.80 1423.39 565.85
00005783 DELETE   923.17 89.83 594.73 673.79 1124.28 279.68 1409.16 264.91 1320.69 435.06 1192.73 585.27 1400.78 569.49
00005784 DELETE   915.75 99.53 588.70 686.20 1109.94 286.88 1385.58 273.91 1288.45 436.61 1170.87 596.00 1373.05 581.02
00005785 DELETE   900.45 92.95 602.79 699.27 1094.41 286.82 1367.77 266.40 1271.16 429.17 1155.41 600.29 1357.34 579.67
00005786 00000019 895.19 90.78 599.21 705.14 1091.44 289.31 1363.50 268.74 1270.01 428.76 1152.12 598.33 1356.37 576.95
00005787 00000020 896.37 82.21 598.59 714.97 1096.95 289.60 1368.98 265.60 1281.36 430.76 1159.33 600.57 1367.75 576.43
00005788 00000021 901.88 79.31 602.53 706.55 1108.16 288.07 1382.33 263.10 1298.82 426.19 1173.30 593.84 1386.62 568.51
00005789 00000022 905.50 73.94 605.74 694.35 1108.68 285.80 1382.94 255.70 1301.20 422.04 1179.84 588.79 1390.82 559.10
00005790 DELETE   889.00 84.17 600.19 682.18 1086.68 293.06 1357.86 254.88 1277.37 424.14 1162.59 588.79 1371.53 551.97
00005791 DELETE   873.98 98.12 598.58 669.33 1055.17 299.27 1334.87 259.99 1242.32 436.20 1135.26 592.62 1348.83 554.73
00005792 DELETE   867.70 99.43 586.94 669.92 1035.10 303.07 1312.27 264.77 1213.20 437.80 1111.20 593.31 1330.37 556.77
00005793 00000026 861.96 98.40 584.22 666.83 1025.95 303.39 1304.51 260.70 1204.86 430.39 1104.65 591.58 1328.50 551.15
00005794 00000027 860.65 93.10 584.67 672.74 1030.29 301.54 1306.21 258.66 1211.53 429.11 1107.97 589.06 1332.35 548.20
00005795 00000028 860.23 92.69 585.27 671.95 1034.68 302.61 1309.30 258.95 1218.76 430.30 1113.46 589.66 1336.00 547.92
00005796 00000029 857.61 87.31 587.65 676.20 1043.05 298.24 1315.43 255.54 1232.55 425.33 1121.16 587.47 1340.40 546.32
00005797 00000030 857.95 89.51 592.79 669.68 1054.82 293.95 1326.21 249.52 1250.86 422.10 1131.25 581.86 1346.49 539.53
00005798 00000031 862.70 82.36 597.41 674.41 1069.11 288.48 1339.54 244.39 1272.35 414.03 1147.37 580.23 1360.69 538.09
00005799 00000032 872.51 76.27 606.44 675.24 1088.43 285.22 1356.80 241.32 1294.57 408.68 1167.81 577.47 1380.25 535.42
00005800 00000033 881.36 68.12 606.93 682.62 1104.92 279.45 1371.75 233.51 1315.29 404.27 1183.57 575.96 1395.86 532.26
00005801 00000034 899.32 65.10 601.92 686.23 1114.09 280.61 1385.26 235.83 1323.58 401.85 1194.13 575.59 1412.34 533.32
00005802 00000035 903.43 72.27 606.65 681.78 1121.15 282.75 1394.64 237.97 1331.01 407.68 1199.13 578.52 1420.49 536.39
00005803 00000036 904.20 74.52 606.97 684.03 1121.51 284.29 1394.37 241.18 1327.84 412.79 1195.76 579.83 1417.31 539.31
00005804 00000037 905.43 78.09 601.81 686.58 1115.14 292.11 1383.18 249.79 1314.63 419.10 1189.38 585.73 1404.65 545.65
00005805 00000038 895.12 82.33 602.84 689.75 1097.65 303.04 1367.91 261.85 1293.02 428.99 1167.90 591.19 1390.12 551.97
00005806 00000039 882.02 83.45 597.99 692.37 1077.21 305.30 1349.81 262.10 1270.80 434.94 1147.88 591.85 1372.28 550.75
00005807 00000040 870.86 85.62 597.17 693.64 1063.01 310.74 1337.07 264.09 1257.10 440.92 1134.23 595.75 1357.78 551.46
00005808 00000041 864.92 92.81 595.87 686.92 1050.68 319.22 1325.35 268.52 1243.63 446.53 1126.03 600.82 1352.39 553.17
00005809 00000042 861.21 95.89 591.58 686.50 1044.06 324.68 1315.73 271.98 1235.78 448.59 1122.11 604.26 1348.01 554.78
00005810 00000043 860.42 94.21 581.67 690.69 1037.16 329.29 1307.13 272.78 1227.70 449.33 1115.96 607.35 1343.55 554.51
00005811 00000044 852.28 93.31 581.41 693.45 1031.36 331.74 1298.97 272.20 1223.08 450.84 1112.21 610.54 1338.22 555.34
00005812 00000045 848.02 91.13 590.44 698.85 1025.49 322.33 1297.52 264.89 1220.66 443.28 1114.04 615.08 1336.96 563.25
00005813 00000046 845.83 91.05 588.05 697.00 1024.74 327.40 1295.06 268.99 1220.80 443.21 1115.21 617.90 1337.18 565.39
00005814 00000047 841.18 94.27 590.35 699.49 1020.02 333.86 1288.98 271.70 1216.47 444.29 1112.81 624.16 1334.45 568.70
00005815 00000048 832.40 100.50 589.71 705.26 1010.69 347.21 1275.78 277.89 1208.09 453.00 1107.70 634.09 1324.77 572.55
00005816 00000049 821.65 102.81 591.97 709.50 996.27 359.61 1266.38 290.36 1192.93 464.94 1090.99 639.45 1312.77 577.62
00005817 00000050 820.41 103.31 593.05 719.37 982.85 371.84 1257.94 305.25 1176.32 476.32 1079.40 650.73 1309.76 591.41
00005818 00000051 804.78 106.74 605.24 733.35 968.78 385.65 1242.11 316.30 1159.05 487.47 1070.55 666.95 1299.32 605.51
00005819 00000052 799.09 89.16 602.78 766.90 963.15 402.69 1231.23 328.95 1145.44 501.80 1068.67 680.32 1289.96 613.37
00005820 00000053 797.38 100.94 602.93 758.49 951.89 409.15 1216.23 334.20 1133.04 502.70 1061.67 692.25 1278.47 627.98
00005821 00000054 787.62 105.22 607.31 756.99 939.39 416.34 1203.88 336.51 1120.87 505.96 1056.60 696.65 1273.47 628.48
00005822 00000055 779.35 111.97 613.97 752.45 930.58 419.32 1195.91 336.34 1113.45 508.38 1051.38 698.09 1268.73 627.32
00005823 00000056 775.62 111.64 617.47 754.05 927.04 421.77 1192.45 335.64 1110.35 507.99 1050.81 698.95 1267.90 625.50
00005824 00000057 771.84 119.26 616.56 746.10 923.78 424.03 1189.21 337.75 1108.21 511.29 1050.61 699.02 1266.55 625.35
00005825 00000058 768.06 121.66 618.82 745.73 921.21 423.93 1186.57 338.55 1105.97 512.94 1050.38 699.55 1264.51 626.59
00005826 00000059 765.58 115.38 618.36 752.25 916.71 423.40 1183.82 338.75 1100.60 513.75 1045.45 701.85 1259.52 629.44
00005827 00000060 761.71 123.79 620.84 745.95 911.62 423.51 1181.03 339.46 1095.76 516.50 1041.45 702.68 1256.76 630.57
00005828 00000061 757.90 114.49 624.40 756.04 909.68 426.24 1178.59 340.09 1094.61 516.09 1042.60 706.43 1255.06 632.55
00005829 00000062 761.21 117.67 623.21 751.56 913.22 423.15 1180.34 338.49 1097.40 513.92 1045.37 704.01 1256.17 631.64
00005830 00000063 766.42 114.82 618.28 752.42 921.47 419.85 1183.92 336.49 1105.12 508.91 1051.64 699.69 1260.36 628.66
00005831 00000064 772.22 116.35 613.26 752.50 930.02 418.80 1189.54 333.60 1116.08 504.35 1061.80 701.00 1266.94 628.42
00005832 00000065 776.56 107.44 613.59 762.77 940.95 415.66 1199.41 331.45 1130.28 498.89 1073.82 703.80 1274.65 632.31
00005833 00000066 784.12 97.83 606.71 770.70 955.97 416.00 1214.95 332.03 1140.10 502.36 1081.77 701.32 1280.59 625.96
00005834 00000067 794.53 98.29 601.14 772.06 964.93 416.46 1222.15 332.29 1149.75 501.03 1090.00 700.33 1290.76 625.10
00005835 00000068 796.44 105.60 606.50 764.69 969.60 415.92 1230.11 331.52 1159.29 500.18 1096.14 700.21 1300.59 624.56
00005836 00000069 800.42 99.36 605.52 769.07 980.23 418.24 1235.41 334.68 1168.90 496.79 1103.38 699.76 1306.28 625.47
00005837 00000070 809.35 94.66 600.98 764.60 992.69 431.52 1241.95 347.64 1180.27 499.19 1111.29 698.25 1311.23 624.82
00005838 00000071 806.03 103.94 601.43 760.88 989.08 419.97 1248.42 339.58 1184.35 497.98 1109.52 690.87 1319.79 621.43
00005839 00000072 813.61 98.32 597.61 755.64 990.46 416.94 1245.73 337.94 1175.98 501.10 1105.60 693.93 1306.92 623.94
00005840 00000073 812.55 90.63 602.86 767.31 982.40 414.18 1243.14 334.92 1165.39 503.23 1101.23 695.86 1303.77 625.34
00005841 00000074 809.58 99.93 603.10 762.63 975.66 412.73 1237.29 338.45 1154.34 506.86 1092.72 695.70 1291.58 629.11
00005842 00000075 811.78 111.13 602.07 746.37 965.83 407.29 1230.54 341.54 1142.95 503.78 1078.39 692.63 1279.44 636.96
00005843 00000076 807.19 117.08 600.45 739.08 956.32 406.11 1222.02 342.92 1130.48 507.66 1065.63 690.31 1268.21 636.90
00005844 00000077 802.26 116.28 602.69 737.81 951.57 407.78 1218.75 343.76 1124.57 508.92 1057.61 689.81 1263.53 635.47
00005845 00000078 804.36 119.51 600.28 735.18 952.65 407.34 1220.54 343.79 1125.96 509.43 1058.71 689.04 1266.23 634.89
00005846 00000079 805.04 113.76 604.07 743.32 961.81 408.23 1231.61 343.85 1135.13 513.38 1070.65 691.58 1274.35 633.24
00005847 00000080 809.10 110.86 603.89 749.09 967.57 412.05 1236.98 345.78 1143.94 514.24 1078.37 694.71 1284.25 634.89
00005848 00000081 808.99 115.37 607.79 748.12 972.19 416.64 1241.15 347.36 1152.10 515.08 1085.74 698.20 1291.82 635.45
00005849 00000082 812.46 117.71 605.73 749.89 976.61 423.60 1242.83 353.36 1156.57 516.85 1090.31 703.03 1297.04 639.72
00005850 00000083 815.95 113.73 602.27 755.36 983.46 432.97 1242.17 363.39 1162.65 513.11 1090.26 708.59 1297.51 648.27
00005851 00000084 810.12 119.79 608.92 751.63 979.14 431.53 1241.26 359.57 1162.68 516.28 1092.66 710.37 1301.78 647.97
00005852 00000085 810.62 115.50 610.18 759.08 975.09 426.29 1242.94 348.77 1158.81 519.60 1095.92 710.91 1301.24 641.66
00005853 00000086 809.37 107.29 609.40 766.23 973.18 425.40 1242.21 346.23 1158.83 518.16 1096.00 710.66 1301.85 639.99
00005854 00000087 805.93 107.26 613.47 759.83 972.19 427.09 1240.85 345.42 1158.84 518.90 1095.86 708.26 1303.15 635.27
00005855 00000088 805.26 116.28 608.65 742.90 971.25 426.71 1238.32 347.54 1158.11 519.94 1093.89 705.39 1299.02 634.09
00005856 00000089 801.71 123.36 609.76 735.49 965.42 427.33 1233.03 348.05 1153.14 520.95 1090.71 706.66 1295.88 635.28
00005857 00000090 808.85 129.40 595.93 730.51 962.76 419.73 1225.79 349.58 1148.84 518.18 1088.49 703.41 1287.74 644.75
00005858 00000091 799.52 126.55 600.40 737.27 962.36 423.54 1225.58 347.53 1147.63 519.27 1089.65 706.39 1285.96 638.67
00005859 00000092 797.25 118.77 607.34 756.29 966.32 424.28 1228.62 346.31 1154.48 514.65 1094.62 708.52 1292.69 638.89
00005860 00000093 799.85 112.70 609.19 758.68 967.98 424.02 1231.15 343.41 1156.51 515.93 1096.06 709.05 1296.29 636.86
00005861 00000094 798.90 109.44 607.47 759.64 967.91 423.81 1230.31 342.71 1156.15 514.54 1094.07 707.18 1295.70 634.36
00005862 00000095 797.62 108.96 607.78 759.77 967.07 425.00 1230.04 344.31 1155.39 514.18 1092.36 708.13 1293.99 635.86
00005863 00000096 800.89 111.08 602.21 753.81 969.94 423.04 1232.00 345.54 1156.67 513.33 1093.12 705.28 1290.92 635.76
00005864 00000097 802.21 94.76 604.36 762.92 977.19 420.24 1237.66 340.30 1165.09 509.87 1099.89 700.38 1296.17 628.76
00005865 00000098 811.37 85.93 599.50 769.22 990.96 418.64 1247.94 340.69 1179.13 510.03 1108.40 696.20 1309.02 626.47
00005866 00000099 816.32 88.07 598.29 763.79 998.33 414.19 1254.62 335.76 1188.23 507.22 1116.57 693.03 1314.53 623.71
00005867 00000100 816.07 85.63 599.83 762.42 997.51 413.96 1254.17 335.06 1187.07 507.97 1117.77 694.66 1313.81 625.02
00005868 00000101 817.16 87.29 595.15 755.27 995.32 411.18 1251.70 335.19 1182.12 509.24 1114.52 693.45 1306.87 626.10
00005869 00000102 818.87 93.12 595.50 744.71 995.14 406.27 1253.50 332.73 1181.99 508.88 1113.34 690.89 1305.15 625.29
00005870 00000103 820.71 97.17 596.82 738.37 998.50 403.38 1257.02 329.12 1186.45 506.31 1118.02 687.81 1309.81 621.45
00005871 00000104 825.88 99.67 596.53 734.10 1001.23 400.38 1260.56 325.84 1189.44 502.39 1120.89 685.73 1313.31 619.17
00005872 00000105 824.98 102.46 598.00 733.92 1002.33 398.45 1262.11 325.76 1190.78 501.49 1121.93 685.26 1313.97 620.08
00005873 00000106 823.57 102.88 600.40 733.14 1001.38 396.51 1263.48 324.95 1190.86 500.70 1119.68 685.04 1314.00 620.72
00005874 00000107 825.14 110.84 597.59 722.61 1003.24 393.94 1263.47 324.07 1191.67 497.37 1120.61 682.23 1312.45 619.30
00005875 00000108 828.09 100.93 594.88 731.28 1006.19 391.10 1264.78 323.29 1192.39 494.69 1121.20 679.87 1311.14 618.89
00005876 00000109 829.66 105.35 583.94 721.92 1000.75 386.43 1261.13 325.12 1187.18 490.91 1110.94 672.27 1310.12 619.15
00005877 00000110 832.32 100.75 581.91 726.47 1007.36 381.68 1264.57 321.20 1194.80 486.12 1113.90 666.96 1314.94 614.12
00005878 00000111 828.78 102.98 588.63 727.86 1011.16 374.86 1272.05 317.64 1201.91 481.97 1117.38 666.37 1318.90 615.81
00005879 00000112 831.81 104.03 590.27 727.11 1019.92 371.37 1283.23 318.64 1215.01 478.02 1125.12 663.84 1329.71 616.51
00005880 00000113 841.44 108.44 585.16 720.71 1031.85 367.86 1294.73 317.05 1228.05 479.57 1132.17 658.98 1337.09 612.74
00005881 00000114 847.92 113.45 588.75 713.84 1039.69 360.61 1307.65 313.26 1238.66 473.55 1141.98 654.49 1349.00 610.16
00005882 00000115 852.49 109.48 592.65 717.56 1051.75 358.52 1318.04 309.25 1256.37 462.94 1151.28 650.71 1360.74 604.53
00005883 00000116 858.18 113.48 587.37 709.41 1058.01 357.32 1321.31 306.22 1262.05 458.04 1158.61 647.12 1365.01 599.23
00005884 00000117 858.86 114.99 587.74 708.36 1058.17 356.32 1321.45 307.91 1260.23 459.92 1156.60 646.33 1361.82 600.71
00005885 00000118 859.76 114.08 585.60 705.27 1055.70 353.90 1321.54 308.10 1256.35 460.03 1153.53 643.84 1358.68 600.01
00005886 00000119 855.71 112.68 589.69 696.53 1054.35 348.42 1322.65 303.01 1255.83 458.08 1152.93 637.12 1357.34 593.29
00005887 00000120 857.64 114.42 587.18 690.28 1054.30 347.10 1324.44 302.91 1256.17 459.93 1152.85 635.72 1357.04 592.64
00005888 00000121 859.08 114.76 580.34 685.55 1050.05 350.53 1318.30 305.89 1247.72 463.41 1149.74 638.10 1351.98 594.98
00005889 00000122 854.80 119.49 581.33 674.18 1034.13 355.63 1302.21 309.89 1223.98 466.85 1137.08 637.17 1338.99 593.70
00005890 DELETE   849.53 120.10 580.52 675.59 1011.81 355.19 1276.77 303.83 1190.94 464.56 1109.67 639.62 1305.25 593.97
00005891 DELETE   837.99 119.30 582.99 684.79 986.11 363.34 1258.58 310.96 1159.41 473.84 1083.39 647.65 1287.01 600.94
00005892 00000125 826.68 113.33 585.36 700.25 970.08 368.53 1241.46 315.19 1137.92 475.09 1070.40 655.25 1272.12 607.85
00005893 00000126 817.28 111.14 595.25 716.51 961.32 372.59 1229.54 317.54 1124.08 474.89 1063.70 664.49 1259.83 616.54
00005894 00000127 811.54 109.68 597.47 725.33 958.55 375.62 1222.37 319.12 1122.55 475.19 1068.54 673.04 1253.04 624.50
00005895 00000128 816.95 110.46 593.94 720.28 966.79 372.31 1236.22 316.89 1137.75 475.78 1071.88 665.38 1269.13 616.83
00005896 DELETE   826.01 112.89 591.74 712.31 984.39 367.26 1256.90 309.19 1165.70 469.08 1087.91 657.20 1290.68 605.87
00005897 DELETE   840.80 106.27 585.96 705.78 1009.20 358.91 1273.77 300.43 1197.04 459.64 1116.77 649.61 1314.67 598.40
00005898 DELETE   855.17 102.85 570.80 702.30 1034.59 359.85 1294.74 302.81 1229.74 457.18 1141.51 641.90 1342.47 589.96
00005899 00000132 860.48 96.47 579.32 707.14 1055.70 357.87 1314.82 298.76 1262.56 447.71 1166.29 641.15 1369.58 586.61
00005900 00000133 865.22 100.56 579.82 695.56 1063.83 358.47 1319.68 295.65 1270.52 450.56 1179.26 639.10 1377.46 581.62
00005901 00000134 860.15 98.64 580.92 704.97 1052.54 359.76 1310.44 300.41 1257.43 450.08 1166.81 643.11 1366.82 588.62
00005902 00000135 844.47 116.50 584.92 693.04 1029.70 360.11 1288.32 303.09 1231.47 459.79 1154.50 640.08 1345.55 591.43
00005903 DELETE   833.74 108.57 596.28 709.60 1008.87 362.09 1274.32 299.02 1202.66 460.02 1122.05 652.57 1319.39 596.93
00005904 00000137 823.26 115.85 594.89 700.07 992.37 368.69 1264.15 309.07 1182.48 467.49 1100.41 653.41 1306.70 600.16
00005905 00000138 819.85 109.11 591.40 710.16 981.20 369.52 1250.88 305.28 1165.82 465.86 1089.83 653.57 1295.53 596.63
00005906 00000139 817.85 105.74 585.99 708.30 974.87 367.71 1242.88 302.07 1156.38 459.80 1082.24 651.11 1285.62 593.18
00005907 00000140 814.30 102.52 588.24 709.71 972.03 362.73 1238.72 295.47 1154.86 449.67 1081.10 645.50 1283.33 585.94
00005908 00000141 818.79 90.11 598.82 732.93 987.58 359.82 1248.23 288.93 1174.16 431.22 1094.16 645.58 1298.82 583.74
00005909 00000142 834.34 91.67 594.79 727.33 1009.64 348.29 1263.51 282.21 1199.47 426.57 1122.92 641.62 1317.44 584.47
00005910 00000143 847.79 92.30 580.40 728.25 1030.34 345.81 1283.94 287.77 1225.30 426.89 1143.55 639.97 1340.27 587.24
00005911 00000144 857.27 85.96 586.96 735.52 1046.86 348.31 1301.65 290.18 1250.17 428.46 1162.45 645.23 1359.42 592.51
00005912 00000145 859.55 91.15 581.93 726.41 1048.57 354.75 1303.78 291.25 1252.20 436.17 1163.82 647.21 1363.62 590.06
00005913 00000146 861.13 100.35 570.58 711.99 1034.38 358.39 1293.13 297.44 1228.62 448.29 1144.61 645.87 1346.54 590.82
00005914 00000147 835.43 103.74 591.89 707.13 1012.27 360.36 1273.91 296.79 1202.28 448.27 1121.65 643.40 1325.34 586.32
00005915 00000148 835.72 99.98 595.75 715.83 996.63 361.56 1264.91 299.94 1182.33 444.67 1100.53 647.92 1307.72 594.25
CROP_BBOX: 535 0 1830 1080
