Video ID: 	ZzlJ4mjV4_Q
H: 	1080
W: 	1920
FPS: 	25.0

FRAME INDEX X0 Y0 W H [Landmarks (5 Points)]

00014110 00000000 780.29 166.18 395.87 604.86 864.85 402.87 1034.73 428.01 910.99 511.54 851.22 616.14 982.40 638.59
00014111 00000001 779.94 165.09 396.46 604.14 864.68 403.67 1034.39 427.91 911.34 511.52 851.55 616.33 980.49 638.26
00014112 00000002 781.60 166.26 394.56 600.63 862.39 405.28 1033.25 427.01 910.36 511.08 853.19 620.39 981.83 640.13
00014113 00000003 781.61 166.64 394.37 599.87 861.30 406.74 1034.20 427.82 911.00 512.89 854.23 622.64 984.89 641.81
00014114 00000004 780.48 167.71 393.91 603.66 862.92 408.78 1033.45 429.49 911.77 515.52 856.81 625.28 984.66 644.43
00014115 00000005 779.66 168.70 393.37 605.06 864.13 409.78 1031.44 430.43 912.53 517.17 860.33 625.76 985.76 644.99
00014116 00000006 778.82 170.33 393.63 607.47 864.79 414.00 1029.83 432.47 913.02 518.61 861.88 628.09 983.88 645.91
00014117 00000007 778.67 177.64 395.92 609.05 857.43 417.77 1030.80 430.87 918.53 520.52 863.11 635.06 986.59 647.19
00014118 00000008 779.17 182.29 391.16 605.22 858.93 425.59 1028.34 435.72 922.19 524.86 868.85 640.00 987.49 649.74
00014119 00000009 771.83 187.88 395.03 595.61 860.82 432.76 1031.55 440.23 922.97 526.82 869.51 643.77 991.84 653.08
00014120 00000010 768.81 180.80 395.93 603.77 860.93 434.21 1030.53 441.82 928.65 531.55 876.04 646.19 996.74 655.29
00014121 00000011 764.04 184.21 395.55 603.21 857.24 440.03 1026.98 444.25 929.92 537.98 880.36 652.77 1000.04 658.76
00014122 00000012 754.90 189.86 400.39 602.37 852.77 444.99 1025.28 446.11 931.75 542.13 880.37 657.88 999.98 661.40
00014123 00000013 750.69 193.47 399.84 608.48 847.43 452.07 1019.56 450.43 929.83 548.09 880.33 664.16 1000.08 665.43
00014124 DELETE   747.04 196.53 402.01 607.54 840.61 457.57 1016.09 453.72 923.77 553.64 875.13 666.30 1000.73 665.41
00014125 00000015 739.71 196.16 406.74 610.59 835.61 462.78 1011.95 456.50 920.98 559.51 870.69 668.61 1000.07 665.36
00014126 DELETE   731.35 205.03 406.99 601.81 825.00 474.91 1000.48 455.21 912.78 572.76 868.91 682.09 1002.65 666.24
00014127 00000017 727.16 213.25 407.09 601.40 822.32 479.13 995.40 460.37 907.89 578.39 867.64 685.83 999.76 670.98
00014128 00000018 722.83 208.87 406.61 608.25 817.41 483.84 994.14 467.93 904.65 582.70 862.89 688.62 997.35 676.38
00014129 00000019 719.03 204.06 408.23 609.67 815.79 484.17 994.76 466.16 899.72 579.37 858.24 686.48 999.32 671.35
00014130 00000020 714.85 201.79 409.15 607.90 813.67 487.71 990.50 470.24 896.75 582.26 854.45 681.54 997.28 666.64
00014131 00000021 710.95 204.62 412.53 604.91 813.87 484.84 989.98 468.18 899.30 584.75 858.17 682.57 997.24 668.14
00014132 00000022 714.34 209.07 408.34 612.17 813.38 488.82 983.40 470.85 902.45 589.76 865.53 692.83 993.33 678.15
00014133 00000023 714.95 208.91 406.77 613.21 811.16 488.08 980.67 468.16 899.75 588.80 865.84 693.67 992.72 677.54
00014134 00000024 712.34 199.85 412.43 615.87 811.81 477.41 982.67 457.56 896.18 580.81 863.51 684.07 996.62 667.61
00014135 00000025 717.58 207.16 405.49 605.57 808.83 480.19 977.86 454.59 897.54 575.55 864.18 684.58 995.43 663.95
00014136 00000026 719.44 205.76 403.38 606.77 809.07 477.17 977.59 449.03 895.55 566.97 862.45 680.04 995.83 657.37
00014137 00000027 721.79 200.49 401.82 610.30 810.24 473.31 978.62 443.27 895.82 561.90 861.96 675.01 997.74 650.61
00014138 00000028 725.20 198.14 399.62 604.97 811.57 469.04 981.91 440.14 897.58 555.99 860.34 671.69 995.43 648.61
00014139 00000029 726.89 192.00 398.02 611.33 813.30 456.11 983.52 432.93 893.38 547.87 859.85 663.72 995.44 645.54
00014140 00000030 725.82 192.81 401.23 600.11 815.78 449.30 986.55 428.62 894.76 540.71 860.34 655.60 994.25 639.47
00014141 00000031 729.87 191.21 403.00 595.58 816.42 448.36 993.58 419.52 903.40 530.78 863.37 656.69 999.19 633.54
00014142 00000032 732.62 191.09 401.17 592.86 818.29 445.34 995.86 415.81 906.09 528.03 865.78 654.62 1001.41 631.06
00014143 00000033 734.01 186.93 402.36 596.16 820.08 444.62 999.50 415.18 908.28 526.33 865.88 653.36 1006.40 629.83
00014144 00000034 739.93 178.26 403.34 603.26 823.54 429.25 999.32 415.68 910.05 524.07 865.51 644.41 1000.63 634.65
00014145 00000035 740.30 176.02 405.09 605.70 825.26 429.83 1001.98 417.24 911.81 524.36 866.65 643.47 1001.41 634.63
00014146 00000036 740.36 174.48 406.15 607.80 825.91 429.35 1001.84 416.70 912.68 524.12 867.09 643.55 1001.72 634.75
00014147 00000037 740.56 172.49 405.89 612.62 826.12 428.46 1000.89 416.37 912.73 523.82 868.95 645.88 999.51 637.62
00014148 00000038 741.73 173.24 402.65 612.58 827.35 430.35 1002.13 417.37 914.75 524.96 870.62 648.24 1001.61 639.18
00014149 00000039 739.98 174.77 401.51 603.73 826.05 433.46 1002.10 419.52 914.31 530.03 871.11 648.62 1003.78 638.32
00014150 00000040 733.36 188.85 401.71 586.24 826.00 445.10 1002.36 427.99 908.46 541.58 871.72 650.75 1004.73 637.38
00014151 00000041 733.80 189.09 398.45 584.32 826.28 447.62 1001.68 430.76 908.47 544.21 870.40 650.50 1004.97 637.09
00014152 00000042 733.52 193.16 395.20 579.86 825.90 451.97 998.49 436.00 906.35 548.78 869.09 651.21 1001.98 638.34
00014153 00000043 730.22 196.48 398.08 581.20 826.77 454.58 999.08 439.83 909.23 551.56 869.03 653.36 1001.30 641.57
00014154 00000044 729.69 190.93 397.46 589.36 826.89 457.11 996.55 442.02 908.90 554.83 869.87 654.46 1000.95 642.16
00014155 00000045 730.39 194.88 396.73 587.98 827.69 458.34 995.89 442.98 909.58 556.46 870.30 654.99 1001.37 642.60
00014156 00000046 730.56 196.10 396.99 588.74 827.20 459.71 996.25 444.28 908.32 557.25 868.93 656.11 1001.54 643.62
00014157 00000047 733.45 193.23 394.80 593.98 827.23 460.11 996.06 445.43 907.39 558.72 868.48 656.33 1002.69 644.32
00014158 00000048 736.04 182.61 399.54 605.98 824.42 455.14 1003.29 444.39 912.24 555.37 862.17 653.54 1007.59 645.69
00014159 00000049 735.29 183.17 400.57 607.17 824.02 455.31 1004.01 444.01 912.61 556.05 862.27 655.00 1008.16 646.86
00014160 00000050 735.61 185.35 399.95 605.40 824.56 455.92 1005.95 445.78 913.43 556.66 861.49 655.87 1007.80 648.76
00014161 00000051 736.21 185.92 401.59 607.89 825.03 457.03 1006.00 446.41 913.96 556.76 862.54 658.48 1007.63 651.12
00014162 00000052 737.87 183.09 402.89 615.32 826.83 458.39 1005.03 447.49 914.64 557.23 865.86 661.80 1006.86 654.25
00014163 00000053 739.22 186.19 401.34 613.37 827.89 458.98 1004.36 447.38 915.16 556.58 868.17 664.91 1004.83 657.12
00014164 00000054 740.17 185.40 399.25 613.09 828.65 459.47 1004.93 448.24 916.45 556.87 869.26 666.88 1003.53 659.38
00014165 00000055 740.66 182.75 399.36 613.32 829.74 459.15 1005.79 449.07 916.72 556.68 869.86 667.01 1001.88 660.42
00014166 00000056 741.02 182.54 400.07 611.46 830.24 459.05 1007.54 449.45 917.87 557.66 870.27 667.25 1002.19 661.03
00014167 00000057 740.66 185.22 400.37 610.38 830.56 461.10 1007.01 450.84 918.00 557.71 871.23 668.21 1001.68 661.48
00014168 00000058 737.84 187.98 405.56 609.11 828.94 465.76 1011.74 455.88 917.07 556.86 867.74 669.05 1002.11 662.40
00014169 00000059 737.85 188.02 405.55 608.42 830.31 466.85 1012.39 458.14 917.74 557.09 867.60 668.38 1000.45 662.76
00014170 00000060 739.65 187.17 405.43 610.07 831.97 464.94 1013.62 458.00 919.82 558.22 868.19 668.33 1000.85 664.28
00014171 00000061 743.02 184.80 400.76 611.36 833.92 464.80 1011.16 456.38 921.66 558.81 872.02 669.51 1001.11 664.35
00014172 00000062 742.08 184.51 400.87 613.56 833.67 463.55 1008.95 455.34 920.69 559.12 872.29 670.89 998.71 666.06
00014173 00000063 741.90 185.03 401.02 614.21 833.69 462.86 1007.41 454.57 919.64 559.59 872.18 669.82 998.11 664.82
00014174 00000064 742.19 183.78 400.53 616.72 834.15 461.80 1007.00 455.07 919.27 559.65 870.89 669.89 995.84 666.32
00014175 00000065 742.26 184.91 401.84 617.76 834.58 461.88 1007.32 455.37 919.21 559.71 870.98 671.14 995.28 667.77
00014176 00000066 742.16 183.28 401.63 620.47 834.90 461.52 1007.42 455.27 919.40 559.90 871.28 670.78 995.50 667.62
00014177 00000067 742.30 183.49 401.65 622.15 836.03 461.71 1006.55 455.65 919.90 559.60 872.69 670.50 994.66 667.49
00014178 00000068 742.50 183.26 400.67 623.01 836.90 461.49 1006.27 455.77 920.26 559.74 874.32 672.01 992.89 669.37
00014179 00000069 742.42 183.39 400.87 622.35 836.81 460.81 1006.22 455.57 920.16 559.81 873.90 671.79 992.34 669.54
00014180 00000070 742.65 182.76 400.45 623.03 836.72 460.63 1006.20 455.88 919.78 560.30 873.15 670.90 992.79 668.96
00014181 00000071 743.86 180.52 399.04 624.32 836.27 459.17 1003.44 455.15 917.42 559.29 872.29 669.09 990.61 667.71
00014182 00000072 742.97 181.40 398.41 623.17 835.38 459.24 1003.41 454.41 916.90 558.28 871.52 669.68 989.68 667.80
00014183 00000073 742.45 184.41 398.84 620.19 834.91 458.73 1002.91 453.95 916.37 558.30 871.37 669.52 989.37 667.68
00014184 00000074 742.26 182.91 398.52 621.43 834.50 457.86 1002.95 453.56 916.10 558.23 870.78 669.52 988.90 668.01
00014185 00000075 742.32 184.07 397.48 619.64 833.84 458.06 1002.79 454.14 915.41 558.20 869.94 669.60 987.83 668.47
00014186 00000076 741.60 183.83 397.94 619.34 833.15 457.42 1002.27 453.43 914.59 557.84 869.35 669.01 987.76 667.83
00014187 00000077 740.79 183.77 397.38 619.45 832.79 456.63 1001.22 452.69 914.37 557.18 869.47 668.67 987.07 667.54
00014188 00000078 740.59 181.66 397.73 621.17 832.73 455.70 1000.27 452.04 913.45 556.18 869.21 668.40 985.82 667.47
00014189 00000079 740.59 184.01 397.20 617.64 832.72 455.19 1000.74 452.18 913.40 555.95 868.20 667.53 985.51 667.21
00014190 00000080 740.76 183.42 396.62 618.43 832.62 455.49 1000.72 452.58 913.23 555.96 868.24 667.46 985.69 667.18
00014191 00000081 741.19 184.12 396.24 617.39 832.99 455.24 1000.60 452.37 913.20 554.88 868.31 667.02 985.15 666.84
00014192 00000082 740.70 187.51 395.86 614.86 832.52 454.96 1000.18 451.45 913.02 554.25 868.21 667.00 985.22 666.34
00014193 00000083 740.40 186.18 395.91 616.59 832.38 454.54 999.66 450.64 912.85 552.92 868.07 667.27 985.14 666.34
00014194 00000084 739.35 188.64 395.96 614.79 831.88 454.83 999.91 450.68 912.86 553.75 868.57 668.03 985.51 666.95
00014195 00000085 740.51 186.05 394.34 620.75 832.79 453.79 998.40 449.54 912.73 552.69 869.73 668.79 984.90 667.79
00014196 00000086 739.37 187.47 395.88 621.23 833.63 453.08 999.57 449.55 913.95 551.63 870.99 668.09 985.86 667.74
00014197 00000087 738.19 187.64 397.75 623.45 832.27 454.68 998.25 449.53 913.06 551.20 870.42 667.53 987.34 665.82
00014198 00000088 736.53 188.32 400.79 626.30 831.52 455.33 996.91 448.71 912.74 550.80 870.96 668.76 987.98 666.09
00014199 00000089 736.56 198.72 398.68 611.71 830.53 464.05 998.29 442.79 913.87 558.70 874.00 678.21 996.34 661.08
00014200 00000090 736.05 197.62 399.18 614.37 829.71 463.56 997.97 442.74 913.25 559.42 873.94 678.19 996.74 661.19
00014201 00000091 736.35 193.76 397.99 618.63 827.77 464.01 997.62 442.95 911.69 560.29 871.85 678.05 997.37 660.76
00014202 00000092 735.94 193.06 398.41 614.49 825.40 464.26 996.49 442.76 911.16 561.18 868.95 673.22 1002.10 655.39
00014203 00000093 734.49 194.49 398.60 610.01 825.55 464.83 995.85 443.74 910.52 560.07 867.46 670.41 1001.61 652.74
00014204 00000094 733.26 195.24 399.30 609.58 826.55 462.07 994.86 441.91 911.07 558.91 868.05 668.66 999.09 651.60
00014205 00000095 733.94 195.93 396.07 610.27 826.56 462.27 993.80 441.70 911.57 560.75 871.52 672.66 996.63 655.10
00014206 00000096 733.30 196.38 395.34 604.80 825.17 463.75 992.53 442.19 912.38 559.57 873.24 673.14 997.64 655.19
00014207 00000097 732.31 185.86 400.65 621.67 827.20 456.41 997.79 448.06 912.55 554.60 867.52 665.16 993.24 660.35
00014208 00000098 732.76 185.12 401.49 620.53 828.70 455.28 1000.93 447.86 914.75 552.89 868.50 662.67 994.60 658.40
00014209 00000099 733.52 185.87 401.74 618.42 831.77 454.90 1004.01 450.86 916.20 548.19 867.41 659.62 993.10 657.94
00014210 00000100 732.02 199.93 407.21 599.00 829.08 456.73 1007.27 438.32 917.12 546.43 869.92 668.23 998.91 653.11
00014211 00000101 736.82 195.95 402.45 604.49 835.39 452.09 1009.79 434.54 921.56 541.81 872.67 663.17 1001.92 648.54
00014212 00000102 748.17 183.43 398.58 618.05 844.50 444.29 1017.03 438.83 926.18 532.42 874.71 653.19 1005.23 651.39
00014213 00000103 750.63 183.94 400.59 612.12 848.89 436.05 1023.61 433.02 930.92 528.53 876.05 648.39 1008.53 648.69
00014214 00000104 754.79 189.88 400.74 605.10 852.86 430.85 1029.75 431.83 933.80 525.73 874.67 643.57 1011.17 647.01
00014215 00000105 758.59 189.45 402.07 603.53 856.04 427.16 1034.59 429.66 936.02 526.24 876.93 642.16 1016.31 646.55
00014216 00000106 767.30 189.86 398.16 601.60 862.63 427.99 1039.70 432.89 937.76 528.06 878.50 640.67 1016.96 647.08
00014217 00000107 773.42 191.32 395.86 600.65 870.70 433.16 1047.66 439.37 941.84 528.67 882.09 641.96 1017.42 650.11
00014218 00000108 775.65 188.49 394.35 598.25 873.22 437.72 1050.08 447.86 941.65 530.16 878.75 639.32 1013.73 650.67
00014219 00000109 781.12 186.14 391.48 601.25 874.66 439.14 1053.36 452.99 939.97 537.11 875.40 635.46 1017.13 649.24
00014220 00000110 783.10 182.10 391.07 606.09 876.74 440.28 1055.79 457.09 942.25 540.77 876.31 638.11 1016.78 654.12
00014221 DELETE   784.92 180.10 390.14 612.41 879.31 439.72 1055.76 459.72 944.07 546.63 879.85 646.71 1013.69 665.31
00014222 00000112 783.85 186.80 391.13 616.23 877.43 445.51 1050.54 459.17 950.61 553.35 887.43 660.52 1011.77 672.80
00014223 00000113 785.63 180.23 400.54 622.72 876.75 437.76 1054.73 460.26 948.46 556.38 883.23 652.40 1011.42 672.09
00014224 00000114 787.27 175.05 401.16 625.39 876.90 439.44 1055.65 462.41 947.94 560.76 881.46 651.94 1013.85 672.00
00014225 00000115 787.42 178.77 402.20 623.63 877.79 443.01 1060.48 466.81 951.02 562.67 880.32 651.62 1018.76 672.26
00014226 00000116 786.09 184.15 399.07 610.47 882.17 444.34 1062.90 466.63 948.71 562.90 883.49 656.09 1018.47 675.91
00014227 00000117 786.77 183.97 402.93 622.57 880.98 446.63 1062.63 469.23 957.21 567.07 886.14 658.87 1020.89 678.44
00014228 00000118 786.42 185.27 403.71 625.36 880.88 448.09 1063.41 470.94 956.88 568.30 886.04 662.04 1020.08 681.85
00014229 00000119 786.34 183.68 403.19 621.02 881.96 446.53 1064.29 469.02 958.59 565.23 886.58 658.84 1020.01 678.32
00014230 00000120 787.86 184.68 400.68 615.62 883.63 442.87 1064.98 464.42 959.97 561.54 889.53 653.51 1021.37 672.30
00014231 00000121 787.09 179.28 398.63 619.03 886.23 440.91 1064.25 459.27 954.92 558.88 892.33 657.64 1022.81 674.63
00014232 00000122 789.08 183.41 395.09 616.43 880.85 446.05 1060.59 454.60 961.30 557.45 895.61 663.19 1029.49 669.97
00014233 00000123 790.02 181.14 393.45 617.52 882.72 443.68 1060.36 452.47 963.88 556.63 898.57 659.91 1029.30 666.92
00014234 00000124 786.80 175.44 396.15 621.27 889.07 436.89 1063.19 452.32 960.26 553.35 897.41 652.96 1026.61 667.85
CROP_BBOX: 490 0 1410 953
