Video ID: 	XV-usasylL8
H: 	1080
W: 	1920
FPS: 	29.97002997002997

FRAME INDEX X0 Y0 W H [Landmarks (5 Points)]

00063780 00000000 852.34 206.06 498.13 718.32 930.02 473.92 1126.32 545.12 943.09 662.74 917.23 699.96 1090.93 757.42
00063781 00000001 855.14 204.65 496.50 726.57 928.30 478.91 1126.55 548.83 943.41 669.53 918.61 708.61 1093.06 765.11
00063782 00000002 850.67 197.98 497.97 730.44 926.30 476.68 1122.07 541.33 942.80 667.59 920.31 706.72 1095.11 758.66
00063783 00000003 846.87 210.61 500.64 717.52 926.26 475.66 1122.21 537.85 944.48 663.35 922.23 705.12 1094.29 755.31
00063784 00000004 847.15 217.56 500.09 711.79 926.44 476.98 1121.20 539.74 943.87 664.66 922.40 705.45 1093.78 756.06
00063785 00000005 844.22 210.92 508.21 717.35 924.13 475.21 1122.70 536.74 944.19 662.37 920.50 705.65 1092.26 755.58
00063786 00000006 846.88 194.52 510.10 718.19 921.26 471.81 1121.64 531.75 940.74 658.51 919.30 704.34 1087.74 752.99
00063787 00000007 849.61 191.03 504.24 711.58 922.50 471.88 1124.02 531.09 944.40 655.16 917.49 704.43 1082.10 752.93
00063788 00000008 859.03 180.75 482.90 722.50 926.17 480.76 1130.50 519.15 966.27 649.38 924.91 714.21 1096.10 746.99
00063789 00000009 859.06 180.95 482.69 722.41 926.01 480.78 1129.89 518.61 966.03 648.88 925.08 714.45 1096.04 746.71
00063790 DELETE   855.67 171.45 499.10 713.31 933.62 470.37 1144.85 501.70 986.53 635.38 939.96 704.23 1110.89 731.74
00063791 00000011 872.97 168.32 481.56 715.92 944.84 463.97 1143.25 489.67 995.81 626.86 952.61 690.82 1125.92 713.28
00063792 00000012 874.34 161.96 482.54 714.37 953.55 450.63 1157.94 471.36 1011.07 613.41 968.70 687.30 1131.15 705.61
00063793 00000013 872.39 147.95 482.48 719.45 951.72 440.74 1155.29 460.02 1006.73 596.46 963.36 680.94 1126.70 698.25
00063794 00000014 870.87 146.57 486.41 721.10 952.10 441.67 1156.36 459.92 1008.97 597.88 964.94 681.62 1128.61 698.11
00063795 00000015 865.87 137.32 487.08 712.08 942.97 425.08 1151.34 454.46 997.75 593.05 958.93 672.88 1119.19 698.55
00063796 00000016 865.23 124.34 483.66 715.29 938.99 414.06 1151.59 445.86 988.71 570.97 942.29 660.84 1105.63 688.87
00063797 00000017 859.57 123.76 486.80 707.25 933.69 398.30 1144.07 427.94 982.00 559.00 937.38 648.41 1101.64 674.31
00063798 00000018 855.79 123.14 489.47 701.46 933.55 387.96 1136.60 421.84 975.07 548.96 933.96 635.71 1094.59 664.64
00063799 00000019 855.22 121.00 491.19 702.68 932.69 388.07 1135.06 421.87 973.92 549.34 933.84 635.81 1093.99 664.60
00063800 00000020 853.62 111.78 493.16 713.20 933.86 383.73 1129.88 418.10 969.22 541.95 932.06 632.99 1087.43 662.43
00063801 00000021 860.33 113.57 482.35 699.63 931.29 388.12 1132.23 429.98 971.50 547.25 933.78 637.74 1089.61 673.04
00063802 00000022 860.57 116.51 480.13 694.40 930.70 388.44 1129.66 430.52 969.05 548.06 931.47 638.51 1082.34 673.91
00063803 00000023 859.11 119.24 478.78 691.35 926.31 390.84 1131.03 434.71 966.64 553.74 928.50 639.20 1083.53 676.02
00063804 00000024 859.13 118.64 477.82 691.37 926.15 390.50 1131.39 434.81 966.83 554.00 928.34 639.19 1083.53 676.38
00063805 00000025 859.97 116.74 476.04 692.62 926.95 392.85 1136.67 439.50 969.38 556.62 924.57 639.53 1085.58 679.05
00063806 00000026 860.67 119.43 477.06 700.88 923.67 401.15 1138.73 436.73 972.83 569.24 925.58 650.27 1088.64 680.92
00063807 DELETE   865.18 132.02 478.11 700.62 932.99 421.82 1142.64 460.58 984.48 588.44 938.89 660.75 1106.13 694.34
00063808 DELETE   866.40 142.71 483.85 707.99 943.88 440.95 1155.40 467.12 1007.11 604.54 960.34 681.28 1127.49 703.66
00063809 DELETE   867.04 141.09 482.12 709.63 943.62 441.27 1154.99 466.84 1006.93 604.21 960.23 681.49 1126.95 703.42
00063810 00000030 879.80 151.49 483.55 725.89 969.84 454.98 1182.87 475.59 1036.47 609.45 981.56 687.68 1152.76 705.62
00063811 DELETE   875.32 160.04 498.82 732.60 984.22 477.30 1201.10 488.86 1066.15 618.39 999.32 700.73 1186.42 710.31
00063812 DELETE   879.84 151.72 503.10 744.06 1002.51 483.14 1228.24 492.33 1097.91 626.82 1017.28 710.84 1209.60 718.17
00063813 00000033 882.48 159.04 505.52 741.22 1016.53 491.47 1241.30 493.90 1119.56 630.69 1033.18 716.38 1224.03 717.31
00063814 00000034 886.68 167.06 498.73 735.78 1022.08 492.95 1245.93 494.59 1128.79 629.78 1039.37 718.62 1228.71 718.98
00063815 00000035 891.84 178.45 498.81 717.50 1030.75 499.39 1257.80 499.58 1144.17 629.60 1050.25 720.38 1244.76 719.24
00063816 00000036 897.56 161.97 500.42 740.71 1039.91 500.11 1267.06 495.23 1154.12 634.21 1065.13 729.46 1247.07 725.62
00063817 00000037 899.08 160.54 502.94 743.12 1043.47 501.64 1272.30 491.49 1162.43 635.84 1072.44 732.54 1254.21 724.59
00063818 00000038 898.59 168.40 504.06 731.19 1046.28 509.94 1271.13 500.02 1168.86 641.47 1080.89 730.19 1263.43 721.43
00063819 00000039 898.15 169.40 503.17 729.52 1046.43 509.95 1270.80 499.90 1169.15 641.20 1081.04 730.10 1263.16 721.30
00063820 00000040 895.36 174.88 506.58 724.65 1049.41 511.28 1271.48 496.99 1175.06 640.18 1089.56 730.37 1269.52 718.02
00063821 00000041 893.63 171.26 506.33 726.98 1050.99 512.10 1270.19 495.79 1176.53 636.18 1089.84 727.67 1271.24 713.56
00063822 00000042 891.23 173.79 506.32 722.50 1051.20 507.55 1268.09 489.37 1178.57 632.02 1093.49 723.85 1273.50 707.97
00063823 00000043 892.61 163.61 502.78 732.57 1048.67 502.76 1266.78 482.81 1178.57 630.41 1094.80 724.66 1275.92 706.99
00063824 00000044 892.11 163.24 503.38 733.59 1048.54 502.72 1266.70 483.16 1178.22 630.73 1094.30 724.76 1275.76 707.36
00063825 00000045 888.56 172.29 507.88 725.99 1046.50 501.31 1262.47 477.96 1177.09 629.13 1096.15 725.68 1277.56 705.27
00063826 00000046 886.63 167.73 509.65 731.44 1044.91 499.26 1260.69 474.67 1175.61 626.22 1096.93 726.45 1277.62 704.82
00063827 00000047 887.40 165.08 506.81 731.55 1043.87 496.04 1259.71 471.11 1174.90 621.49 1098.44 724.50 1276.68 702.41
00063828 00000048 887.02 162.28 506.95 732.03 1041.94 494.78 1258.83 470.34 1171.92 617.83 1097.68 720.77 1276.26 698.65
00063829 00000049 887.23 163.60 506.54 730.38 1041.80 495.18 1258.74 470.34 1171.96 618.07 1098.05 720.83 1277.03 698.46
00063830 00000050 887.13 164.57 507.23 726.14 1042.10 490.21 1257.59 468.20 1169.77 614.97 1097.26 715.36 1274.07 695.23
00063831 00000051 884.63 164.19 510.32 726.56 1040.24 487.40 1255.02 465.81 1168.44 613.01 1097.53 713.37 1274.76 693.39
00063832 00000052 883.14 160.30 511.83 733.19 1039.55 487.72 1255.62 465.62 1168.96 612.61 1095.35 713.37 1275.52 692.74
00063833 00000053 882.96 158.77 512.79 736.05 1035.20 485.84 1254.26 465.43 1163.28 613.02 1092.28 714.86 1273.08 695.72
00063834 00000054 883.01 158.09 512.60 736.74 1035.70 485.92 1254.46 465.76 1163.42 612.79 1092.15 714.72 1272.85 695.81
00063835 00000055 881.57 170.26 513.06 726.77 1033.34 487.90 1252.98 467.32 1160.32 615.51 1089.58 716.42 1271.47 697.31
00063836 00000056 880.79 164.01 513.13 734.21 1030.77 490.21 1249.71 468.81 1157.23 617.25 1085.69 718.54 1268.21 698.73
00063837 00000057 880.35 161.63 510.72 735.02 1024.48 487.67 1244.98 466.74 1149.68 618.93 1080.06 719.73 1262.39 700.45
00063838 00000058 875.72 160.56 510.94 739.44 1018.94 484.88 1240.74 463.89 1144.45 619.82 1074.78 721.78 1257.66 702.44
00063839 00000059 874.48 159.34 511.94 740.12 1018.38 485.28 1240.51 463.52 1145.05 620.38 1075.08 722.14 1257.89 702.20
00063840 00000060 870.86 189.31 511.53 707.37 1016.66 488.68 1235.59 461.48 1143.40 615.72 1074.42 725.34 1249.53 701.17
00063841 00000061 861.75 178.14 514.54 719.22 1007.75 490.10 1224.41 460.40 1135.36 616.32 1069.79 725.30 1241.84 698.91
00063842 00000062 858.16 179.59 512.70 709.32 1001.80 492.10 1218.36 464.55 1126.73 618.97 1061.06 721.74 1232.51 697.30
00063843 00000063 853.37 171.30 513.25 712.67 993.79 494.77 1211.69 465.33 1119.82 619.01 1056.11 722.59 1228.91 696.49
00063844 00000064 853.23 171.74 513.29 712.17 993.42 494.47 1211.98 465.13 1119.81 619.37 1055.89 722.63 1229.05 696.61
00063845 00000065 851.93 175.64 510.71 704.16 989.15 489.81 1206.38 457.77 1115.20 615.67 1055.04 719.12 1227.55 690.87
00063846 00000066 847.33 168.09 516.55 710.04 981.01 488.93 1210.72 455.94 1110.41 618.53 1047.47 721.10 1227.08 693.52
00063847 00000067 841.77 173.31 518.78 700.48 975.98 481.16 1204.09 448.23 1105.10 612.68 1044.34 714.66 1224.79 687.15
00063848 00000068 833.47 182.38 525.58 686.26 968.48 477.13 1197.11 444.70 1096.99 608.66 1038.19 706.73 1222.33 679.21
00063849 00000069 832.87 178.98 525.87 689.93 968.57 477.39 1198.24 445.08 1097.70 608.87 1037.57 707.73 1222.07 680.42
00063850 00000070 828.97 160.57 524.51 705.84 964.22 470.79 1192.68 437.85 1094.04 605.40 1035.60 705.34 1219.36 678.04
00063851 00000071 822.71 169.91 527.83 693.97 957.87 473.77 1186.30 436.83 1088.66 601.34 1030.05 704.16 1215.90 673.26
00063852 00000072 821.66 183.75 523.93 685.51 954.97 471.08 1177.48 434.02 1082.31 597.92 1031.40 703.91 1210.03 672.39
00063853 00000073 819.75 147.70 513.72 721.98 952.93 467.48 1170.08 433.52 1075.12 592.58 1027.11 706.11 1196.99 677.63
00063854 00000074 820.46 144.82 511.87 725.00 953.48 467.74 1169.64 433.55 1075.12 592.43 1027.09 706.23 1196.86 677.58
00063855 00000075 819.89 136.33 511.19 737.81 952.96 460.90 1165.69 427.19 1073.46 585.59 1027.10 704.92 1195.49 676.55
00063856 00000076 820.23 137.68 505.83 730.59 952.01 458.59 1162.39 425.31 1069.97 580.91 1022.49 700.12 1188.55 672.26
00063857 00000077 822.22 131.80 507.40 730.22 952.71 453.35 1166.58 422.36 1068.51 575.87 1017.65 694.71 1186.55 668.85
00063858 00000078 818.91 125.90 508.84 724.93 951.10 448.32 1167.10 418.87 1068.09 571.72 1015.15 686.78 1186.05 662.07
00063859 00000079 818.88 127.58 509.67 723.78 950.85 448.20 1167.31 418.85 1068.04 572.28 1015.01 686.84 1186.34 662.17
00063860 00000080 822.29 131.08 505.06 712.70 952.27 444.49 1169.57 417.84 1068.87 570.56 1012.99 680.68 1184.89 658.40
00063861 00000081 825.12 131.97 504.14 708.58 954.36 446.59 1169.88 421.30 1068.46 571.45 1013.19 677.43 1184.31 656.20
00063862 00000082 829.46 128.05 502.00 714.57 957.60 452.13 1174.56 426.01 1071.49 574.82 1015.20 681.30 1186.41 659.53
00063863 00000083 834.28 129.07 503.08 722.14 958.63 452.81 1178.32 425.24 1074.98 577.38 1019.80 690.89 1189.97 668.26
00063864 00000084 831.28 130.61 506.75 720.95 958.29 453.22 1179.43 425.81 1074.49 578.03 1018.71 691.97 1189.54 669.52
00063865 00000085 835.18 139.86 510.72 713.45 960.41 456.19 1183.42 430.16 1075.20 584.10 1019.51 693.60 1193.85 672.34
00063866 00000086 836.62 142.46 515.90 713.22 960.02 456.75 1187.85 429.44 1077.01 586.64 1020.77 695.68 1201.49 673.41
00063867 00000087 839.13 153.16 516.45 708.51 961.83 457.74 1187.85 430.31 1078.08 589.04 1026.29 700.00 1203.04 677.58
00063868 00000088 839.21 156.89 515.55 714.88 964.18 459.88 1185.31 431.61 1079.59 591.02 1028.58 702.38 1202.94 679.13
00063869 00000089 838.61 153.96 516.02 718.25 964.08 459.90 1185.00 431.37 1079.61 590.77 1028.65 702.32 1203.16 678.94
00063870 00000090 840.18 161.40 513.76 714.13 964.87 461.90 1182.33 432.57 1079.18 591.21 1030.42 703.51 1202.54 679.40
00063871 00000091 837.58 162.41 515.64 717.02 963.67 461.37 1182.21 433.18 1078.78 592.82 1029.50 706.58 1201.48 683.34
00063872 00000092 836.42 166.64 515.34 712.85 962.23 461.89 1178.99 433.72 1076.82 593.54 1029.72 706.48 1200.82 683.18
00063873 00000093 835.56 177.54 517.99 696.52 961.19 463.08 1178.90 433.78 1076.97 595.38 1031.03 704.87 1202.02 680.53
00063874 00000094 836.14 174.12 516.67 699.69 961.30 463.20 1178.86 433.81 1077.07 595.64 1030.77 704.92 1202.33 680.55
00063875 00000095 835.22 176.16 516.29 689.64 959.35 462.71 1180.46 433.82 1076.03 595.48 1027.52 700.40 1202.91 676.36
00063876 00000096 835.59 176.30 514.11 688.55 959.27 463.80 1181.03 434.64 1076.52 595.05 1027.13 700.78 1203.55 676.52
00063877 00000097 834.84 175.81 516.40 693.15 960.81 464.48 1182.66 437.16 1077.35 595.88 1029.25 705.04 1199.88 682.40
00063878 00000098 832.43 177.59 518.86 695.84 959.27 466.91 1184.17 440.06 1077.70 603.84 1028.84 711.43 1200.29 689.01
00063879 00000099 832.29 176.49 518.82 696.77 959.43 466.86 1184.25 440.20 1077.68 603.73 1028.53 711.35 1200.16 689.09
00063880 00000100 833.10 178.85 520.01 691.45 959.19 470.38 1186.55 443.57 1078.11 606.94 1028.14 712.24 1201.30 689.83
00063881 00000101 835.20 170.74 517.56 712.48 960.93 474.79 1188.24 447.89 1080.47 609.78 1027.87 720.74 1201.19 698.68
00063882 00000102 830.84 182.76 517.69 703.75 961.48 480.98 1180.80 462.52 1075.89 614.39 1028.68 725.52 1187.62 709.56
00063883 00000103 837.42 175.97 508.93 710.96 965.27 490.13 1184.42 469.92 1079.83 619.31 1029.25 727.85 1193.52 710.50
00063884 00000104 837.76 184.93 509.93 701.76 964.71 489.37 1184.67 470.03 1078.84 620.11 1028.47 727.86 1193.42 711.31
00063885 00000105 837.01 186.98 510.19 693.84 966.96 492.45 1186.46 473.65 1081.24 618.95 1026.57 722.72 1194.13 706.53
00063886 00000106 836.06 192.81 509.29 684.53 967.78 491.01 1186.37 473.18 1082.77 616.77 1026.82 718.10 1195.20 702.73
00063887 00000107 836.10 190.37 509.68 685.56 968.25 489.87 1187.02 471.96 1083.46 615.02 1028.00 716.08 1196.22 700.55
00063888 00000108 835.40 189.06 510.47 684.84 968.88 490.83 1187.28 472.48 1084.22 614.79 1028.58 714.66 1196.92 698.66
00063889 00000109 835.21 191.06 510.57 683.09 968.46 490.95 1186.83 472.27 1083.86 615.33 1027.98 714.95 1197.20 698.74
00063890 00000110 833.48 192.88 512.84 686.34 966.98 491.06 1185.22 470.69 1084.07 616.23 1029.84 718.07 1199.64 700.36
CROP_BBOX: 530 0 1691 1080
