Video ID: 	oRNfXCt7Fyk
H: 	1080
W: 	1920
FPS: 	25.0

FRAME INDEX X0 Y0 W H [Landmarks (5 Points)]

00000214 00000000 849.86 85.35 456.76 640.09 903.05 372.47 1086.79 335.37 954.81 451.21 940.55 569.43 1104.48 537.26
00000215 DELETE   852.60 84.75 460.82 642.13 906.48 379.05 1089.84 339.17 957.66 454.78 944.75 574.31 1109.91 539.36
00000216 00000002 853.75 87.55 462.31 642.19 909.13 383.35 1094.60 341.66 962.91 456.51 946.08 578.29 1112.96 541.99
00000217 00000003 855.19 87.65 463.47 644.80 911.31 384.44 1095.43 342.46 963.88 457.28 947.78 580.48 1111.74 544.17
00000218 00000004 858.00 89.26 463.62 649.11 915.14 384.85 1096.97 343.94 965.41 459.21 949.95 584.71 1107.64 549.78
00000219 00000005 853.48 86.40 469.33 657.67 917.02 383.41 1104.52 349.54 966.09 463.16 954.77 589.59 1110.17 561.93
00000220 00000006 853.04 85.91 471.05 665.60 917.63 385.90 1106.20 348.35 967.22 463.62 959.06 596.69 1111.93 565.78
00000221 00000007 851.53 83.94 476.54 656.26 921.19 383.46 1111.08 349.52 975.04 458.28 960.15 588.57 1111.36 560.85
00000222 00000008 851.19 79.11 479.55 650.73 919.67 382.00 1113.66 346.54 976.69 458.11 957.02 581.67 1120.14 552.53
00000223 DELETE   849.04 79.02 481.49 649.55 915.73 378.33 1109.97 343.58 972.76 455.76 954.11 581.52 1114.63 553.27
00000224 00000010 848.75 78.71 474.28 648.82 909.87 369.68 1105.12 338.81 964.96 456.19 947.28 579.23 1109.34 554.10
00000225 00000011 852.03 75.23 465.49 651.53 905.50 366.10 1094.39 331.97 957.86 450.65 940.79 573.57 1098.03 544.28
00000226 00000012 849.12 74.45 465.57 658.02 906.00 356.45 1093.98 325.75 954.85 443.30 939.61 571.22 1094.10 544.82
00000227 00000013 845.34 70.64 465.07 671.15 905.34 347.56 1095.08 316.32 952.81 433.67 936.76 572.60 1092.04 546.21
00000228 00000014 840.70 65.44 467.92 669.45 903.85 345.75 1093.08 313.48 951.29 425.55 934.44 568.30 1088.11 541.32
00000229 00000015 835.80 59.74 468.89 660.26 898.90 345.69 1088.78 312.55 951.17 424.25 930.68 559.76 1090.27 532.13
00000230 00000016 832.19 61.02 466.36 654.40 890.58 348.87 1082.92 315.14 948.23 429.63 925.57 560.15 1088.48 532.25
00000231 DELETE   820.39 68.83 472.11 659.93 883.05 356.84 1079.25 323.95 945.89 448.68 921.78 570.82 1085.72 543.86
00000232 DELETE   811.88 89.26 477.04 654.41 878.70 372.70 1076.48 342.03 946.85 479.81 922.90 587.64 1091.26 562.23
00000233 00000019 806.32 99.94 475.95 652.92 872.06 385.50 1076.68 354.41 948.71 494.47 922.92 602.93 1092.95 576.93
00000234 00000020 799.57 102.79 478.18 659.93 869.35 384.72 1073.10 353.00 945.68 490.85 920.54 604.32 1090.55 577.68
00000235 DELETE   793.70 89.09 479.58 669.98 867.11 377.57 1070.07 343.91 941.55 479.12 915.90 598.14 1086.02 570.26
00000236 00000022 791.74 74.17 481.25 670.11 864.23 365.68 1065.88 329.43 935.37 459.51 909.68 586.22 1077.76 556.43
00000237 00000023 790.19 64.80 480.36 656.54 860.56 353.56 1066.64 318.32 936.94 444.70 902.24 568.47 1078.69 540.13
00000238 00000024 795.03 60.89 470.59 646.88 857.75 350.37 1070.14 308.33 936.01 432.91 903.36 567.25 1077.31 531.97
00000239 00000025 796.13 58.72 468.81 651.14 857.86 349.25 1071.58 306.25 936.20 431.39 903.10 566.92 1078.74 530.88
00000240 00000026 789.59 57.81 476.99 668.43 860.17 347.40 1063.61 312.56 932.55 436.84 901.17 566.06 1071.92 538.46
00000241 DELETE   786.51 67.09 479.05 676.80 858.70 357.16 1064.06 322.67 931.55 453.70 900.28 579.68 1075.78 551.31
00000242 00000028 779.39 80.79 480.61 688.84 853.14 373.64 1062.81 341.93 927.83 483.13 896.30 598.76 1081.11 572.09
00000243 00000029 773.03 100.24 481.62 685.67 844.29 392.22 1060.14 356.93 926.25 507.53 896.48 619.06 1085.77 588.35
00000244 00000030 763.51 113.32 485.73 679.01 837.67 399.22 1053.52 362.28 921.82 514.75 892.81 624.54 1083.66 592.17
00000245 00000031 764.92 102.90 483.00 679.10 837.04 391.06 1051.73 355.19 916.88 502.52 885.52 613.47 1076.31 582.10
00000246 00000032 764.94 87.94 483.03 677.57 837.57 375.18 1045.67 337.99 911.44 482.87 880.43 593.37 1071.14 561.18
00000247 DELETE   762.59 76.70 482.88 673.06 836.13 361.08 1044.29 323.74 911.71 459.80 872.90 576.96 1063.77 543.98
00000248 00000034 767.31 73.95 480.89 664.22 837.50 356.38 1045.90 317.40 911.21 448.28 873.93 567.11 1067.60 532.35
00000249 00000035 767.67 70.72 482.38 660.56 838.08 355.36 1046.21 312.08 911.73 443.67 876.43 565.17 1067.21 526.79
00000250 00000036 767.50 73.49 482.28 653.35 836.67 356.62 1045.73 313.67 912.94 445.28 875.88 563.35 1067.54 525.30
00000251 00000037 764.27 72.91 483.67 658.69 835.99 357.69 1043.06 316.97 913.30 451.31 875.56 563.80 1068.80 527.58
00000252 00000038 762.26 75.61 484.43 664.39 833.55 365.32 1037.27 322.14 909.06 458.51 875.35 572.90 1063.75 535.01
00000253 00000039 763.09 81.75 484.26 665.24 830.32 373.24 1030.59 325.69 903.45 465.68 875.33 581.49 1061.12 540.04
00000254 00000040 761.21 81.77 486.83 668.42 828.36 377.03 1026.65 328.77 899.71 472.07 875.14 585.60 1060.14 543.47
00000255 00000041 759.63 84.58 488.90 663.07 826.79 378.47 1023.91 330.42 897.11 475.39 876.40 586.93 1058.78 545.00
00000256 00000042 757.18 89.98 490.23 661.25 823.70 385.80 1018.15 334.82 894.44 486.02 879.49 594.20 1058.90 549.90
00000257 DELETE   749.19 101.87 491.01 663.21 818.17 403.27 1010.64 346.31 893.04 506.44 885.75 610.24 1062.25 561.33
00000258 DELETE   728.55 125.30 500.27 664.62 814.13 420.76 1003.04 362.44 895.07 524.69 894.04 633.61 1064.57 581.42
00000259 00000045 728.40 135.90 500.89 670.67 806.66 430.64 994.35 375.52 886.52 544.21 888.97 644.69 1059.85 595.79
00000260 00000046 726.09 139.81 502.30 659.79 803.53 430.44 994.06 376.52 885.75 546.71 886.34 641.97 1058.53 594.16
00000261 00000047 724.69 136.27 501.55 658.49 801.84 428.38 995.03 375.22 885.91 543.16 882.54 636.80 1054.74 589.85
00000262 00000048 723.94 134.80 499.82 655.93 800.73 426.63 994.53 374.66 885.20 543.18 884.05 637.68 1051.58 591.97
00000263 00000049 718.51 142.27 501.57 650.93 805.54 425.27 993.99 381.30 887.50 546.57 884.34 640.98 1046.86 602.25
00000264 00000050 714.27 145.31 502.59 648.07 802.46 428.06 998.23 390.00 890.89 558.33 880.60 646.89 1044.14 613.77
00000265 00000051 711.76 145.80 503.94 654.79 796.01 430.92 996.26 397.21 885.51 576.54 876.84 647.24 1042.65 617.53
00000266 00000052 710.01 152.19 502.81 656.68 800.65 431.14 996.25 400.05 887.02 569.55 874.64 653.34 1037.95 626.81
00000267 00000053 707.54 146.94 503.68 658.01 791.62 433.58 989.38 399.76 877.80 575.74 870.43 650.68 1034.11 621.25
00000268 00000054 704.87 147.19 504.83 659.95 787.14 433.46 986.58 395.94 873.73 573.95 865.29 650.65 1034.23 618.04
00000269 00000055 703.34 144.18 501.72 661.28 782.13 433.43 983.79 394.52 869.37 573.30 859.02 650.28 1031.28 616.54
00000270 00000056 700.86 144.52 503.02 662.16 780.64 435.09 981.53 393.63 868.19 571.89 858.72 653.17 1029.99 617.29
00000271 00000057 701.44 146.93 503.10 662.33 781.93 436.64 978.83 393.89 867.21 570.37 859.13 655.22 1029.38 618.21
00000272 00000058 703.11 147.82 500.04 659.84 781.13 438.23 975.31 393.05 865.66 570.57 860.85 654.44 1032.56 615.12
00000273 00000059 703.95 147.94 499.34 655.43 781.66 437.48 976.17 391.61 867.66 570.09 862.07 649.79 1035.85 609.70
00000274 00000060 706.08 146.57 496.12 650.48 782.12 435.40 976.68 390.03 868.28 565.23 859.83 642.24 1035.17 602.54
00000275 00000061 708.22 144.39 493.84 647.18 780.86 432.59 977.01 386.05 867.49 559.46 857.80 637.78 1033.71 596.97
00000276 00000062 707.82 142.11 494.82 647.65 780.68 430.94 978.10 382.66 868.20 554.42 856.73 634.46 1034.84 592.01
00000277 00000063 708.38 141.17 493.85 648.51 781.55 429.70 979.59 382.21 869.46 554.02 857.25 634.11 1035.70 592.35
00000278 00000064 709.89 142.08 493.06 647.14 783.26 430.18 980.21 381.92 871.41 554.28 860.84 634.46 1036.82 592.09
00000279 00000065 707.10 141.10 494.46 646.53 782.56 429.27 982.17 379.72 873.23 551.27 859.25 633.22 1037.29 589.94
00000280 00000066 703.93 139.31 494.15 645.93 783.67 425.55 978.84 372.93 870.90 539.97 862.82 638.10 1032.49 592.58
00000281 00000067 701.66 132.25 494.88 652.01 780.35 424.70 976.08 370.90 867.52 534.02 860.50 637.56 1026.97 591.43
00000282 00000068 699.47 130.43 495.43 656.72 777.15 422.60 972.93 368.22 862.59 528.70 856.21 636.86 1023.46 590.20
00000283 00000069 697.38 129.74 495.45 656.12 775.09 422.49 969.56 366.38 859.86 528.68 855.37 636.82 1022.13 588.73
00000284 00000070 697.76 133.59 493.20 656.20 775.84 425.28 968.52 368.42 860.27 531.07 858.21 640.05 1023.36 591.13
00000285 00000071 698.33 135.55 492.42 656.81 777.17 428.02 969.24 370.44 861.78 534.89 859.01 641.72 1026.54 591.87
00000286 00000072 702.19 139.84 492.30 652.18 776.43 432.07 969.54 376.40 863.19 539.61 852.78 638.72 1026.81 590.63
00000287 00000073 697.80 145.46 499.52 655.32 776.89 436.29 973.73 385.68 866.08 558.84 853.05 643.60 1033.35 599.59
00000288 00000074 694.41 154.80 505.19 657.10 777.60 447.83 976.31 398.66 869.27 576.79 855.07 658.68 1031.78 616.23
00000289 00000075 693.18 164.34 507.44 656.05 785.85 452.04 984.86 411.32 878.46 585.69 861.29 665.51 1036.17 630.75
00000290 00000076 693.02 168.01 506.61 650.06 779.52 456.11 980.84 411.23 874.73 594.62 859.23 665.57 1037.22 626.52
00000291 00000077 694.84 168.15 503.17 650.31 780.08 454.74 982.82 414.03 874.71 595.28 855.71 663.17 1035.99 627.71
00000292 00000078 698.45 169.79 500.20 649.89 781.64 453.80 983.09 415.64 873.90 595.33 856.61 663.79 1035.25 630.41
00000293 00000079 704.21 170.85 496.43 649.69 784.83 455.04 985.46 417.26 876.57 598.36 860.17 665.02 1039.34 631.85
00000294 00000080 705.38 173.12 498.92 653.23 788.81 455.17 990.69 420.01 881.53 603.50 866.47 671.73 1041.88 640.98
00000295 00000081 705.89 179.77 501.84 666.34 790.38 459.63 992.64 426.45 881.79 608.66 874.98 686.90 1040.94 658.05
00000296 00000082 711.74 184.01 501.38 676.76 795.94 461.00 998.98 427.81 888.97 612.33 880.65 700.67 1048.95 672.84
00000297 00000083 713.56 189.90 499.23 672.05 797.25 464.40 1000.18 431.17 889.88 615.51 882.87 702.32 1051.54 674.39
00000298 00000084 714.38 190.66 498.91 668.07 797.22 463.81 1000.98 432.36 889.21 615.44 878.54 697.74 1052.29 671.30
00000299 00000085 718.13 189.56 499.70 664.62 801.63 465.39 1003.42 432.79 892.15 612.67 881.46 695.72 1056.03 668.14
00000300 00000086 724.06 192.38 495.52 662.84 805.09 465.24 1005.02 431.35 893.48 612.92 886.38 695.94 1061.07 667.17
00000301 00000087 723.97 190.50 500.49 662.11 806.16 465.78 1009.20 433.96 895.67 616.35 885.15 689.52 1057.98 661.36
00000302 00000088 726.54 186.25 499.16 662.48 808.53 463.24 1011.64 431.07 897.51 611.38 884.95 683.23 1062.10 654.54
00000303 00000089 730.14 184.16 491.85 654.86 810.14 455.20 1012.77 421.28 901.99 597.45 880.53 675.16 1067.43 646.75
00000304 00000090 731.17 177.91 491.49 652.51 811.06 449.83 1016.74 415.61 905.76 589.87 878.31 667.31 1071.45 638.71
00000305 00000091 733.65 170.42 490.30 654.21 813.91 443.29 1018.21 410.19 907.36 582.04 879.15 659.12 1072.57 631.09
00000306 00000092 735.09 167.70 488.96 652.44 817.48 436.35 1019.23 403.92 908.16 571.63 879.02 650.17 1071.54 622.26
00000307 00000093 743.12 159.28 482.81 659.49 819.14 433.01 1022.32 400.04 906.17 571.06 877.22 642.82 1071.63 612.63
00000308 00000094 738.43 163.18 479.75 649.03 818.47 431.51 1013.70 393.09 903.73 554.58 876.95 639.19 1072.09 605.60
00000309 00000095 743.58 154.44 478.05 657.77 816.66 429.77 1016.33 391.66 900.34 554.24 871.52 631.98 1072.44 597.07
00000310 00000096 744.71 154.14 475.97 656.41 816.57 428.96 1017.02 389.11 900.57 551.44 871.31 631.39 1074.10 595.12
00000311 00000097 742.75 155.15 476.05 650.82 818.01 424.21 1015.55 381.74 901.76 541.57 875.54 631.70 1075.81 593.71
00000312 00000098 741.93 151.40 478.03 651.36 818.72 421.45 1017.16 376.06 904.55 536.34 876.64 628.21 1078.00 587.35
00000313 00000099 743.20 147.38 478.00 654.41 821.01 417.96 1017.52 373.60 904.43 531.39 877.14 626.62 1075.54 586.26
00000314 00000100 745.62 145.31 474.00 652.90 823.88 416.90 1020.13 374.23 907.15 528.77 876.00 622.77 1075.30 583.75
00000315 00000101 747.25 143.63 473.71 655.09 822.71 419.22 1020.43 376.55 905.02 526.68 874.05 623.03 1074.02 583.99
00000316 00000102 753.84 142.65 468.44 648.87 826.89 419.43 1026.37 376.84 907.82 516.57 873.85 619.91 1073.82 580.44
00000317 00000103 761.11 135.15 463.02 641.54 831.58 413.19 1033.62 375.68 909.32 505.08 873.51 609.41 1072.57 573.72
00000318 00000104 769.42 123.30 463.13 640.75 833.05 392.68 1037.18 368.23 900.60 493.48 862.51 594.64 1060.15 572.63
00000319 00000105 771.45 109.35 458.41 637.65 835.32 374.47 1037.75 361.62 901.80 483.08 861.49 581.48 1044.37 569.61
00000320 00000106 771.85 108.43 451.14 622.81 836.09 358.70 1036.59 350.52 892.94 462.23 851.08 564.63 1035.48 556.36
00000321 00000107 773.46 101.59 453.95 622.36 841.57 345.41 1040.73 341.01 896.18 451.37 855.75 555.29 1036.89 549.91
00000322 00000108 779.81 95.95 454.48 622.91 852.39 341.99 1054.17 338.63 909.04 442.12 860.45 546.72 1045.20 542.25
00000323 00000109 782.72 92.53 456.58 625.24 859.51 334.41 1070.44 335.28 922.72 435.44 864.81 542.19 1058.66 541.18
00000324 00000110 784.23 81.34 466.43 645.95 868.68 335.10 1078.18 339.92 930.92 429.74 870.26 546.55 1056.36 550.91
00000325 DELETE   785.62 84.96 474.20 644.20 879.53 345.64 1092.76 353.61 950.87 435.69 878.02 550.79 1070.99 557.51
00000326 DELETE   807.19 98.62 462.97 630.15 897.51 350.05 1112.69 359.72 969.70 445.18 888.40 555.86 1087.56 562.28
00000327 DELETE   822.39 107.56 459.40 624.49 913.98 350.95 1133.95 369.78 987.75 459.04 903.15 561.79 1100.99 576.23
00000328 00000114 833.40 109.76 459.08 624.78 929.93 341.73 1150.44 368.78 1004.20 458.98 914.00 555.41 1115.87 576.81
00000329 00000115 840.84 97.17 462.21 636.38 942.15 327.69 1163.03 360.81 1015.54 449.34 922.80 547.23 1123.70 573.81
00000330 00000116 838.70 89.36 465.60 631.42 948.66 312.51 1166.28 351.63 1018.53 431.08 921.98 531.38 1121.97 562.83
00000331 00000117 835.09 82.46 470.58 624.07 946.86 299.86 1161.75 347.16 1009.24 415.31 912.62 517.21 1108.43 554.84
00000332 00000118 836.23 79.34 466.10 622.74 944.05 292.12 1152.90 340.65 996.85 412.26 903.19 509.29 1092.01 548.19
00000333 00000119 830.03 79.12 468.04 623.18 938.15 290.72 1145.31 342.77 984.75 412.78 894.69 508.75 1077.27 550.86
00000334 00000120 827.01 77.66 470.09 626.72 931.95 290.91 1141.03 345.65 975.28 416.79 887.30 511.00 1070.42 555.33
00000335 00000121 822.41 78.83 472.42 623.71 927.31 292.45 1137.91 350.24 968.51 422.39 881.73 513.77 1060.90 560.81
00000336 00000122 817.89 78.72 474.00 622.80 919.02 294.27 1130.73 351.42 957.87 427.66 875.09 518.11 1047.90 564.97
00000337 00000123 808.89 68.73 484.84 640.65 908.17 296.59 1122.78 352.56 957.31 433.54 871.82 530.22 1040.18 578.47
00000338 00000124 806.70 68.59 481.35 640.18 906.55 295.91 1119.32 351.59 954.61 430.11 869.87 529.55 1035.66 577.62
00000339 00000125 808.92 62.52 480.57 635.72 907.02 291.24 1118.53 348.81 950.98 418.00 868.22 516.15 1040.06 565.36
00000340 00000126 809.22 60.62 481.37 628.31 909.11 285.01 1118.01 343.57 951.36 410.97 870.98 506.00 1041.72 555.75
00000341 00000127 805.70 62.73 485.57 622.89 908.32 284.50 1114.63 342.49 947.69 406.95 870.51 505.99 1035.16 554.48
00000342 00000128 807.43 61.33 486.30 628.52 910.31 285.11 1117.04 342.54 950.57 409.18 874.27 507.25 1041.35 555.15
00000343 00000129 818.91 69.35 472.73 630.47 914.90 285.45 1124.01 342.35 948.71 420.28 872.55 511.01 1046.60 557.74
00000344 00000130 821.99 84.03 469.03 632.31 914.97 301.54 1122.70 351.10 953.13 439.74 881.30 530.53 1048.58 571.23
00000345 00000131 823.92 97.07 463.74 631.98 915.48 320.13 1118.94 362.27 957.73 457.15 889.68 549.45 1053.10 584.00
00000346 00000132 822.08 106.10 463.51 626.23 913.97 327.89 1117.72 367.45 957.67 462.39 889.17 553.98 1054.31 586.34
00000347 00000133 820.47 104.98 464.05 625.44 911.59 327.73 1117.06 366.79 955.75 461.02 886.59 553.88 1053.30 585.69
00000348 00000134 818.88 101.75 464.36 622.19 909.33 323.11 1116.88 364.22 953.19 457.52 882.06 546.71 1054.38 580.00
00000349 00000135 819.81 99.17 463.40 624.53 909.33 323.15 1117.89 361.57 956.96 457.02 884.73 548.01 1057.56 579.05
00000350 00000136 820.14 101.73 462.36 627.51 910.89 327.03 1115.46 360.77 959.62 458.35 891.39 554.00 1059.38 581.40
00000351 00000137 819.62 105.23 461.11 625.20 911.48 329.99 1114.02 363.30 959.69 459.67 892.88 554.94 1057.63 582.20
00000352 00000138 816.81 108.12 461.67 621.44 909.49 330.68 1111.66 364.38 957.49 460.29 890.02 554.19 1057.62 581.65
00000353 00000139 814.58 109.30 461.92 618.39 907.19 331.60 1110.60 366.05 954.93 459.25 884.73 551.57 1058.69 579.25
00000354 00000140 814.06 108.50 460.60 615.20 905.13 332.18 1109.87 365.80 954.71 458.86 883.47 550.56 1059.25 577.49
00000355 00000141 813.18 108.24 459.27 615.34 904.19 333.78 1107.78 367.12 953.26 460.00 883.01 551.09 1057.76 577.73
00000356 00000142 810.96 110.75 458.85 611.97 902.56 333.98 1106.26 367.98 952.38 460.49 881.73 550.68 1055.40 577.84
00000357 00000143 808.27 100.40 458.75 625.09 894.86 329.16 1102.29 367.46 944.69 459.96 871.48 550.77 1048.19 584.04
00000358 00000144 805.71 102.96 458.44 624.97 893.19 329.37 1100.43 367.01 942.59 458.72 870.03 551.07 1045.68 583.77
00000359 00000145 803.79 101.80 458.38 625.49 890.29 329.90 1098.62 365.96 940.93 457.91 868.50 550.82 1045.76 582.11
00000360 00000146 803.51 103.78 457.60 625.86 888.48 331.72 1096.60 366.00 939.45 458.65 867.95 552.93 1044.31 582.79
00000361 00000147 802.67 107.02 457.97 625.65 888.32 332.96 1096.23 367.14 939.38 460.09 868.43 554.03 1044.73 583.78
00000362 00000148 802.71 108.15 457.01 625.79 888.47 334.76 1095.16 368.83 939.10 461.73 868.98 554.77 1044.78 584.36
00000363 00000149 802.25 108.34 457.09 625.61 888.33 334.59 1095.35 368.77 939.38 461.63 868.55 554.12 1045.84 583.78
00000364 00000150 802.64 108.42 457.99 625.67 888.27 334.60 1095.25 367.73 939.00 460.72 869.58 554.25 1045.98 582.99
00000365 00000151 803.02 107.86 457.53 625.70 887.98 334.55 1095.36 367.21 939.60 461.11 870.21 554.72 1046.52 583.08
00000366 00000152 801.70 106.78 458.43 625.37 886.39 336.04 1093.91 367.60 938.89 461.98 869.69 555.36 1046.17 582.77
00000367 00000153 799.34 103.94 458.98 623.57 884.45 340.44 1089.46 374.97 938.04 463.64 867.21 552.06 1043.90 581.81
00000368 00000154 796.96 105.40 459.62 617.46 883.60 344.79 1088.78 382.09 936.71 464.21 864.71 550.49 1042.97 581.95
00000369 00000155 796.70 103.54 458.05 619.62 879.51 340.85 1086.48 375.54 934.82 465.35 864.44 552.56 1041.90 582.03
00000370 00000156 794.91 102.57 458.76 622.21 876.96 338.09 1082.98 370.79 932.07 467.27 864.37 555.49 1039.11 583.46
00000371 00000157 794.87 102.98 457.03 625.87 875.50 337.52 1079.98 367.03 925.91 458.57 863.70 554.39 1034.97 579.96
00000372 00000158 794.76 97.24 456.04 636.39 873.43 334.58 1078.05 359.52 921.07 451.33 864.54 552.55 1034.72 574.44
00000373 00000159 794.14 91.34 457.74 645.67 873.22 329.15 1075.10 350.88 917.39 441.58 864.25 549.97 1032.29 569.14
00000374 00000160 796.50 82.90 453.18 646.40 872.57 326.59 1073.55 344.49 916.67 436.50 866.84 549.67 1030.56 565.72
00000375 00000161 790.35 78.71 459.64 643.39 868.51 326.44 1072.73 342.94 915.37 436.04 864.14 549.45 1030.02 564.04
00000376 00000162 788.51 81.31 460.29 641.80 865.74 328.56 1071.50 343.74 914.01 438.24 862.07 550.99 1029.33 564.43
00000377 00000163 789.29 84.69 457.89 644.91 864.49 331.39 1068.78 345.17 911.30 440.92 862.77 555.30 1025.28 567.76
00000378 00000164 787.34 87.06 458.37 643.07 862.41 334.29 1067.53 346.18 910.69 441.69 862.17 557.85 1024.95 568.67
00000379 00000165 784.38 86.22 460.87 637.38 860.78 333.02 1067.52 345.58 911.15 440.41 859.08 553.36 1025.77 564.57
00000380 00000166 783.81 81.79 460.96 636.65 861.11 332.99 1065.63 341.44 911.88 436.57 862.77 553.74 1026.83 561.24
00000381 00000167 787.13 91.29 448.82 620.19 859.81 337.71 1064.57 344.50 914.87 436.69 863.40 550.22 1035.43 554.65
00000382 00000168 782.39 86.12 459.92 628.27 861.51 351.55 1059.29 351.42 914.28 436.28 868.02 553.68 1028.97 553.66
