Video ID: 	CRANxukW2f8
H: 	1080
W: 	1920
FPS: 	25.0

FRAME INDEX X0 Y0 W H [Landmarks (5 Points)]

00011756 00000000 934.06 226.77 434.57 612.14 987.38 488.55 1139.05 493.95 1006.09 612.48 1029.72 686.00 1163.19 686.98
00011757 00000001 932.49 226.28 436.14 611.46 986.21 490.00 1138.79 492.77 1008.01 613.09 1031.60 686.41 1165.83 685.27
00011758 00000002 933.99 226.51 437.72 613.81 991.04 493.55 1145.93 491.30 1018.19 613.79 1039.26 687.53 1177.84 682.26
00011759 00000003 937.16 223.34 439.94 617.26 996.12 497.29 1153.41 487.66 1029.51 611.39 1046.52 688.63 1189.43 677.68
00011760 00000004 938.19 227.72 442.99 612.70 998.11 499.97 1157.56 488.77 1035.83 612.12 1049.15 688.71 1193.41 676.85
00011761 DELETE   940.07 229.03 441.03 612.13 998.81 499.52 1155.69 489.93 1032.70 611.99 1047.66 687.40 1191.30 676.67
00011762 DELETE   939.06 229.91 438.01 614.50 995.53 496.60 1149.31 489.82 1024.41 615.16 1045.02 685.78 1188.72 676.82
00011763 00000007 937.88 233.47 434.84 612.33 992.11 494.76 1144.93 491.45 1016.08 616.51 1041.10 684.64 1184.13 678.15
00011764 00000008 936.11 233.67 436.21 613.01 990.58 494.45 1143.92 491.90 1014.18 617.16 1039.72 685.04 1182.10 679.09
00011765 00000009 936.30 233.02 439.11 613.17 991.97 496.42 1146.29 491.88 1018.51 616.68 1042.04 686.47 1184.32 679.18
00011766 00000010 936.53 231.33 441.93 614.32 994.69 499.10 1152.76 491.47 1027.77 616.25 1045.75 690.97 1187.19 681.77
00011767 00000011 936.18 226.95 444.07 614.94 996.34 498.98 1156.66 492.45 1033.33 615.16 1046.18 691.79 1185.66 683.93
00011768 00000012 936.69 226.89 442.26 615.25 996.41 497.01 1155.16 493.18 1030.03 613.97 1044.22 692.33 1179.06 686.79
00011769 00000013 935.09 230.22 439.59 613.01 991.48 495.78 1147.52 494.57 1018.93 615.08 1039.39 692.33 1173.07 688.46
00011770 00000014 937.05 229.43 435.18 618.16 991.32 494.85 1139.29 498.19 1008.08 614.39 1037.75 693.39 1165.95 692.76
00011771 DELETE   934.52 228.39 433.55 618.97 989.08 494.45 1137.63 499.02 1006.16 616.10 1034.82 693.62 1163.92 693.78
00011772 00000016 933.50 229.76 438.66 616.59 989.55 493.57 1138.67 496.51 1009.02 615.07 1037.32 693.39 1167.12 692.59
00011773 DELETE   931.57 230.50 441.42 615.14 990.72 496.51 1142.73 494.01 1018.71 615.91 1044.08 694.46 1173.67 689.37
00011774 00000018 933.38 230.28 444.67 615.79 993.23 500.86 1152.31 492.24 1030.47 616.58 1049.32 698.92 1182.32 689.45
00011775 00000019 933.37 233.54 446.58 613.64 994.58 503.83 1154.94 493.50 1034.98 619.04 1052.33 701.26 1185.21 690.62
00011776 00000020 934.08 233.75 446.06 614.51 993.81 502.91 1154.02 494.22 1032.00 619.45 1049.33 700.21 1184.86 690.66
00011777 00000021 930.99 231.98 446.29 616.70 990.78 501.06 1150.23 494.28 1027.27 620.70 1043.99 698.40 1181.65 690.05
00011778 00000022 927.11 235.45 446.97 613.21 987.04 498.87 1143.54 494.38 1019.23 619.98 1040.73 697.14 1175.89 690.45
00011779 00000023 925.98 234.64 447.22 614.25 985.28 495.88 1139.32 494.23 1013.51 619.28 1038.83 695.20 1172.19 690.55
00011780 00000024 925.46 231.55 447.67 616.09 985.09 495.45 1139.79 493.58 1013.97 618.23 1037.38 693.04 1172.44 688.33
00011781 00000025 926.56 228.38 447.36 617.04 987.15 496.77 1143.45 491.71 1020.15 616.74 1040.87 693.15 1175.24 685.96
00011782 00000026 928.17 227.32 448.20 616.75 987.38 496.62 1144.66 491.17 1021.27 618.10 1041.54 692.99 1177.11 685.50
00011783 00000027 927.97 227.40 446.71 615.43 986.77 495.60 1142.59 491.39 1018.98 617.90 1039.65 691.45 1174.68 684.95
00011784 00000028 925.44 226.12 446.84 615.66 984.20 493.93 1138.60 490.45 1014.45 616.10 1037.11 691.33 1168.83 685.49
00011785 00000029 922.80 223.09 451.89 616.86 980.10 492.02 1134.36 486.94 1009.67 614.20 1035.56 691.02 1166.94 684.02
00011786 00000030 923.81 220.27 451.88 618.87 979.70 489.76 1132.71 484.45 1008.09 612.00 1036.02 690.09 1165.35 683.07
00011787 00000031 923.54 224.62 451.85 608.75 978.91 488.55 1128.30 483.47 1000.87 611.87 1039.12 689.57 1159.77 682.52
00011788 00000032 920.23 221.77 456.26 609.08 976.18 487.03 1124.83 480.63 998.47 610.24 1037.80 688.18 1157.33 680.15
00011789 00000033 917.04 220.47 456.77 610.28 972.42 487.04 1119.01 479.66 994.42 609.15 1034.86 687.75 1152.81 679.01
00011790 00000034 915.89 217.02 448.68 611.56 969.76 487.79 1113.08 479.71 991.46 605.57 1031.34 685.39 1147.55 676.30
00011791 00000035 910.39 217.76 448.13 611.89 967.63 485.55 1101.79 479.64 985.86 600.68 1027.09 684.62 1133.61 677.27
00011792 00000036 903.63 219.21 447.96 611.11 962.10 485.42 1090.62 479.29 977.02 599.56 1022.23 685.07 1123.28 677.85
00011793 00000037 900.19 217.59 446.51 614.82 951.42 488.72 1080.44 474.16 963.95 604.26 1014.96 693.69 1116.89 679.72
00011794 00000038 888.70 222.34 447.62 609.11 940.17 487.89 1069.80 472.30 953.90 602.87 1005.17 695.82 1105.94 680.74
00011795 DELETE   879.53 220.83 450.62 613.77 934.98 494.18 1061.91 479.49 947.79 599.66 1001.20 692.51 1100.47 678.30
00011796 00000040 875.00 221.68 453.79 617.82 930.66 494.74 1057.06 480.24 941.11 603.32 998.25 695.10 1098.72 681.02
00011797 00000041 874.62 219.60 452.41 620.63 928.71 493.74 1056.04 477.55 939.55 602.77 996.62 696.37 1097.90 681.08
00011798 00000042 873.52 218.24 456.59 620.48 929.16 490.73 1057.58 474.95 941.12 600.46 996.44 695.47 1096.20 680.58
00011799 00000043 876.52 219.25 450.95 611.24 928.50 487.04 1060.17 468.44 942.63 600.87 994.63 700.68 1092.08 683.03
00011800 00000044 878.65 216.26 448.41 610.71 929.51 485.51 1061.45 468.10 942.23 596.99 989.44 699.31 1085.63 682.81
00011801 00000045 882.77 217.31 441.42 610.06 933.28 482.10 1053.06 476.47 932.41 593.17 986.37 690.21 1071.33 683.60
00011802 00000046 880.57 206.00 437.70 623.72 927.04 473.86 1045.30 471.09 913.84 584.89 968.94 696.03 1049.53 691.86
00011803 00000047 871.91 197.10 439.30 636.42 917.45 466.56 1042.33 463.58 902.91 575.56 953.77 698.42 1034.98 694.55
00011804 00000048 865.96 183.61 437.05 645.31 913.65 457.64 1034.48 456.24 892.79 569.49 945.72 689.46 1023.77 687.19
00011805 00000049 862.91 177.72 428.61 643.39 914.01 451.05 1024.60 451.09 886.50 564.37 942.14 682.31 1013.01 681.21
00011806 00000050 862.40 172.18 424.89 644.33 914.99 448.96 1018.58 447.42 880.90 558.18 940.74 677.29 1007.52 674.77
00011807 00000051 860.80 173.51 424.51 642.17 916.68 445.53 1012.69 443.89 876.50 558.26 940.43 674.93 1002.87 672.13
00011808 00000052 860.46 170.14 424.89 647.33 917.83 443.61 1008.68 443.41 871.43 559.09 940.23 675.31 1000.36 673.24
00011809 00000053 859.68 169.91 423.50 646.11 917.12 441.12 1007.74 440.94 868.48 556.65 937.26 673.71 997.45 671.55
00011810 00000054 861.07 166.86 420.14 647.96 921.78 438.89 996.78 445.72 875.72 558.41 941.48 664.59 997.02 668.54
00011811 00000055 860.75 168.14 417.61 646.50 921.25 438.17 995.81 445.41 873.96 557.49 948.35 655.98 1014.14 659.07
00011812 00000056 861.05 167.61 418.12 646.57 922.58 437.60 994.64 445.77 873.74 558.72 952.10 653.95 1018.98 657.38
00011813 00000057 861.60 170.26 417.68 644.61 924.58 440.02 992.52 446.92 874.90 560.00 956.55 656.18 1017.57 658.63
00011814 00000058 859.17 171.39 419.39 646.80 923.44 441.58 989.39 445.92 872.38 560.25 960.43 656.63 1022.68 656.64
00011815 00000059 849.64 174.31 424.44 638.20 908.52 436.48 990.93 437.41 858.09 556.68 945.86 657.64 1013.66 653.99
00011816 00000060 846.53 173.11 425.88 639.87 904.47 436.41 987.99 435.70 853.44 552.94 941.74 655.52 1011.98 650.49
00011817 00000061 844.53 174.56 425.18 636.75 904.31 437.91 983.10 437.28 852.20 553.29 942.03 653.80 1009.48 648.70
00011818 00000062 844.31 174.14 425.44 635.11 902.32 439.71 982.32 438.19 851.70 553.73 941.10 652.92 1010.42 647.14
00011819 00000063 844.54 173.93 422.01 631.20 902.21 439.26 982.97 439.30 853.18 555.24 942.00 649.94 1013.45 645.38
00011820 00000064 847.44 176.43 421.91 628.07 904.98 438.78 985.44 439.87 855.11 556.79 945.93 648.33 1018.49 644.41
00011821 00000065 851.46 177.00 418.36 626.29 908.54 436.37 986.24 438.84 857.51 557.38 950.52 645.90 1022.21 642.95
00011822 00000066 854.12 176.38 419.37 626.05 909.59 433.33 992.31 435.38 861.38 556.66 952.58 643.91 1029.39 640.54
00011823 00000067 859.62 172.27 418.06 628.70 912.84 429.42 996.04 431.14 862.51 554.30 954.47 640.10 1034.07 636.13
00011824 00000068 860.85 171.19 417.16 627.48 914.32 426.67 999.71 428.57 864.71 550.14 953.71 636.84 1035.32 632.96
00011825 00000069 862.42 168.80 417.00 628.20 915.00 425.33 1002.57 428.34 866.57 548.37 953.93 636.05 1036.41 633.21
00011826 00000070 867.18 167.40 418.17 634.31 930.46 430.12 1004.19 439.59 881.00 549.35 964.41 632.64 1040.31 636.70
00011827 00000071 865.83 166.43 416.80 638.64 930.18 428.25 1002.96 440.42 878.57 550.93 956.06 639.72 1025.15 646.87
00011828 00000072 867.51 169.64 417.80 640.11 930.87 432.35 1003.27 442.72 881.31 552.88 956.47 646.26 1021.12 652.11
00011829 00000073 870.65 173.76 418.78 633.85 930.32 438.10 1007.83 442.34 886.90 556.14 965.58 648.41 1034.88 648.96
00011830 00000074 872.70 177.06 420.83 628.15 930.94 438.80 1014.29 442.43 891.32 554.97 968.81 646.71 1042.07 646.80
00011831 00000075 873.03 174.98 421.35 629.70 929.37 437.20 1017.01 440.29 892.54 551.92 966.40 643.80 1044.40 643.23
00011832 00000076 871.21 170.95 416.14 630.86 927.69 430.65 1011.64 438.07 887.15 545.57 959.57 637.25 1035.70 640.68
00011833 00000077 865.35 167.61 419.45 636.40 929.28 424.57 1002.21 433.63 876.06 542.98 957.83 637.46 1025.65 642.58
00011834 00000078 865.64 164.95 417.26 640.92 930.53 424.83 999.96 433.33 875.43 542.17 960.44 637.03 1027.77 641.44
00011835 00000079 862.03 167.17 418.96 637.79 917.78 419.63 1006.84 421.91 866.32 542.53 952.61 642.85 1031.76 639.55
00011836 00000080 865.60 166.27 418.02 639.95 919.02 422.50 1013.38 426.04 869.94 543.84 954.24 642.40 1038.76 640.39
00011837 00000081 867.24 169.54 414.89 631.54 921.72 424.78 1015.71 432.79 871.60 542.06 948.61 641.19 1029.80 643.83
00011838 00000082 873.14 160.44 416.26 641.14 938.33 421.89 1016.82 440.93 883.74 533.80 950.60 634.17 1015.69 647.18
00011839 00000083 873.84 150.39 415.49 646.44 940.96 412.36 1019.54 437.75 883.18 529.48 940.19 630.82 1000.66 649.96
00011840 00000084 878.41 148.76 414.98 643.16 949.00 408.34 1024.88 437.76 886.77 525.85 944.12 623.08 1004.82 645.05
00011841 DELETE   884.75 148.88 420.08 640.68 954.96 408.95 1035.85 435.22 894.50 521.52 952.84 620.46 1018.78 639.08
00011842 00000086 882.98 149.99 428.86 644.12 949.82 403.20 1046.70 431.94 891.05 522.40 953.61 622.29 1031.04 643.40
00011843 00000087 884.12 147.21 432.74 649.57 951.91 402.40 1048.27 428.90 893.36 523.82 958.78 624.63 1036.06 643.98
00011844 00000088 886.15 148.54 429.44 648.61 953.51 402.06 1048.54 427.39 895.10 521.90 960.53 623.84 1038.40 642.20
00011845 00000089 888.88 144.79 425.02 645.13 955.51 399.49 1049.24 425.61 895.32 517.63 955.02 620.46 1029.98 639.66
00011846 00000090 898.50 145.37 419.25 637.28 966.28 402.24 1048.95 425.31 904.50 513.25 965.13 616.16 1029.34 631.54
00011847 00000091 898.54 147.39 419.94 639.12 966.46 403.73 1049.51 424.35 905.58 513.48 966.70 618.58 1033.29 631.81
00011848 00000092 897.37 147.61 423.29 644.67 969.18 404.05 1049.54 423.94 906.43 514.42 970.09 622.27 1034.56 634.84
00011849 00000093 898.64 149.20 423.66 638.48 969.43 402.61 1052.63 424.59 908.05 514.56 969.28 620.07 1034.28 634.44
00011850 00000094 900.28 145.97 423.89 636.06 969.85 400.14 1054.86 423.24 908.63 512.07 967.15 615.62 1031.77 631.12
00011851 00000095 893.14 142.07 426.19 639.99 963.56 389.57 1058.61 411.83 895.30 511.59 960.78 617.82 1034.98 630.85
00011852 00000096 895.18 138.13 427.13 646.09 964.96 387.71 1059.26 410.12 895.64 510.34 966.89 616.27 1042.81 628.77
00011853 00000097 899.12 136.72 425.93 646.60 964.15 389.37 1062.89 413.38 897.99 512.13 968.09 615.37 1048.76 629.48
00011854 00000098 900.17 135.55 434.24 648.34 970.78 397.96 1061.56 423.24 909.19 513.04 969.31 611.01 1047.90 628.43
00011855 00000099 904.71 134.80 431.59 642.46 970.99 399.27 1066.88 423.45 914.55 510.94 969.78 608.66 1051.00 625.48
00011856 00000100 909.03 133.83 431.84 639.37 972.61 397.83 1072.50 420.07 918.23 507.85 972.26 606.17 1056.45 621.40
00011857 00000101 910.53 132.25 430.84 641.14 974.24 395.95 1074.42 416.86 919.99 505.40 973.41 605.98 1056.51 620.52
00011858 00000102 909.98 132.14 430.76 641.35 974.97 393.72 1076.44 415.20 921.58 503.97 973.57 605.57 1057.13 620.76
00011859 00000103 908.68 129.94 430.79 644.37 975.60 390.93 1076.03 413.51 920.87 500.99 972.58 603.78 1055.25 619.88
00011860 00000104 908.17 127.52 430.35 647.97 974.99 388.81 1073.93 410.21 918.71 496.98 971.58 603.18 1053.51 618.13
00011861 00000105 908.49 126.39 427.93 650.21 975.83 385.71 1071.56 407.68 917.08 494.12 971.92 602.02 1051.21 617.36
00011862 00000106 905.97 126.10 430.30 652.04 975.61 383.67 1072.06 406.03 917.19 490.97 971.06 602.63 1048.99 618.34
00011863 00000107 906.48 123.26 429.56 654.13 976.16 382.02 1073.91 406.13 918.54 490.97 971.68 601.98 1050.00 619.31
00011864 00000108 910.00 120.05 421.55 651.74 973.62 375.77 1079.03 401.97 919.40 482.89 971.11 597.99 1057.89 617.27
00011865 00000109 907.45 122.25 428.82 651.52 978.99 380.30 1074.65 406.76 920.13 488.57 971.59 600.21 1045.74 619.73
00011866 00000110 907.55 122.02 429.51 651.11 979.66 379.38 1075.34 406.09 920.74 488.98 972.45 600.52 1045.58 620.30
00011867 00000111 908.24 121.23 427.94 650.89 980.94 378.97 1074.95 407.02 921.52 488.87 972.80 599.49 1044.61 620.42
00011868 00000112 907.05 122.25 428.32 648.30 981.15 378.33 1074.52 407.23 921.39 487.82 971.86 597.99 1043.25 619.55
00011869 00000113 907.28 122.14 427.81 646.22 981.51 380.63 1075.36 410.29 921.77 487.74 970.95 597.53 1042.56 619.89
00011870 00000114 909.72 120.12 419.88 642.98 978.52 377.81 1081.92 416.39 923.00 480.51 965.22 590.19 1052.41 619.25
00011871 00000115 909.64 120.37 420.43 638.66 979.38 376.99 1083.66 418.40 924.20 479.95 964.10 587.33 1051.60 618.66
00011872 00000116 909.75 118.83 421.49 640.24 978.76 375.25 1082.39 415.41 924.17 481.21 965.48 587.60 1053.20 617.90
00011873 00000117 911.53 116.01 421.06 640.44 980.18 372.69 1085.72 411.77 927.06 479.24 967.58 585.69 1055.92 615.27
00011874 00000118 913.13 114.73 420.24 640.01 980.95 370.10 1087.80 407.93 926.63 476.71 967.22 584.87 1055.76 613.59
00011875 00000119 913.79 115.32 420.91 638.56 981.83 369.74 1087.96 406.32 927.28 474.64 967.50 584.09 1055.36 611.84
00011876 00000120 913.98 114.23 419.34 641.47 981.93 368.41 1090.42 402.91 928.25 471.81 965.10 586.33 1051.99 612.96
00011877 00000121 914.89 114.35 417.85 643.86 983.07 368.83 1090.25 401.75 928.76 472.11 966.80 588.47 1051.77 613.92
00011878 00000122 915.12 114.29 417.77 643.91 982.76 369.11 1090.21 401.28 928.68 472.11 966.98 589.06 1052.05 613.94
00011879 00000123 914.76 114.87 418.33 645.98 981.11 369.65 1089.45 402.18 926.93 475.62 966.77 591.87 1051.84 616.94
00011880 00000124 914.54 116.90 418.29 645.97 979.29 371.80 1087.98 404.18 926.45 477.99 967.46 593.89 1052.32 619.00
00011881 00000125 912.29 118.26 420.64 647.73 978.05 375.01 1085.08 407.55 924.90 482.82 967.19 596.38 1051.87 621.59
00011882 00000126 911.08 124.88 426.95 641.89 983.69 382.78 1080.13 412.41 924.27 492.08 970.92 597.64 1046.23 620.10
00011883 00000127 909.20 125.85 429.64 642.05 982.11 384.97 1078.64 415.20 922.58 494.18 967.07 599.14 1042.62 622.14
00011884 00000128 905.12 122.59 425.39 644.55 970.34 380.37 1077.76 416.05 916.89 490.06 955.38 600.82 1041.47 628.83
00011885 00000129 907.32 123.39 426.03 648.44 980.05 383.69 1074.53 414.89 921.00 490.34 959.95 601.58 1030.47 625.72
00011886 00000130 906.21 123.33 428.43 652.92 981.26 385.53 1072.65 414.65 919.74 490.71 961.21 605.74 1027.48 628.12
00011887 00000131 903.78 122.14 432.24 662.27 979.36 387.05 1072.03 415.20 917.86 493.06 962.26 610.77 1029.01 632.32
00011888 00000132 902.55 126.07 434.99 663.36 978.16 388.64 1073.42 415.48 917.81 496.40 963.30 614.83 1033.29 635.33
00011889 00000133 902.23 125.01 435.62 664.38 978.20 389.29 1073.88 416.25 918.06 496.50 962.30 615.03 1032.12 635.74
00011890 00000134 904.42 124.99 433.03 656.07 978.20 388.39 1075.95 416.31 920.16 495.47 961.86 610.00 1034.21 631.51
00011891 00000135 906.60 125.54 432.79 649.67 977.41 388.13 1077.85 417.14 920.62 497.76 963.76 605.47 1041.81 627.46
00011892 00000136 907.83 127.63 433.51 642.58 977.68 389.16 1080.38 418.28 922.40 498.53 964.54 603.19 1045.36 625.20
00011893 00000137 909.38 127.47 430.35 643.04 980.94 387.54 1082.17 418.16 924.80 496.46 966.97 601.09 1046.42 624.74
00011894 00000138 909.53 128.87 430.21 642.86 983.20 387.54 1082.90 418.29 926.37 495.46 969.04 603.09 1043.18 627.32
00011895 00000139 910.48 133.47 428.97 637.32 983.15 388.62 1085.56 421.08 926.60 497.62 966.50 604.03 1043.98 629.69
00011896 00000140 911.38 134.01 426.51 637.61 983.41 390.48 1086.53 422.41 928.07 497.46 965.59 605.63 1043.42 631.05
00011897 00000141 911.58 135.73 426.68 638.49 983.81 390.88 1086.06 422.45 927.34 498.58 967.61 606.82 1045.19 631.93
00011898 00000142 909.57 134.04 429.68 644.88 982.45 391.98 1084.59 421.89 926.18 501.16 970.25 609.79 1048.63 633.23
00011899 00000143 907.87 137.81 430.14 644.04 980.03 391.01 1081.40 420.99 923.23 504.46 970.36 611.52 1049.14 634.61
00011900 00000144 908.67 138.76 428.81 642.56 979.32 391.41 1080.09 421.00 922.45 505.75 970.83 611.61 1049.67 634.21
00011901 00000145 908.57 139.69 427.84 639.17 978.48 390.95 1079.12 421.08 921.83 505.67 969.29 609.74 1048.44 632.84
00011902 00000146 908.52 136.95 429.40 640.98 978.10 391.47 1079.10 421.30 921.29 505.42 968.46 608.83 1048.16 631.63
00011903 00000147 907.34 136.61 429.77 640.08 977.31 390.77 1077.84 419.72 920.75 504.46 967.78 608.24 1046.94 630.16
00011904 00000148 907.70 134.72 429.52 639.48 977.56 389.30 1077.95 418.44 920.97 501.88 967.49 605.15 1046.86 627.33
00011905 00000149 909.02 132.65 428.67 640.35 979.39 388.89 1079.60 417.58 923.23 500.68 969.81 604.37 1048.88 626.30
00011906 00000150 909.57 131.45 429.59 639.81 980.42 389.54 1081.06 417.80 924.80 500.88 972.25 604.16 1051.46 625.67
00011907 00000151 911.38 132.87 427.97 636.87 982.63 390.41 1083.11 417.42 927.47 500.24 974.11 603.54 1053.60 624.08
00011908 00000152 911.61 134.92 427.48 633.72 981.71 390.58 1084.27 417.77 928.01 501.59 973.79 602.31 1056.70 622.87
00011909 00000153 912.26 135.12 427.30 633.09 981.84 391.17 1084.70 418.23 928.44 501.92 974.31 602.06 1057.91 622.45
00011910 00000154 912.48 135.04 427.58 632.85 981.85 391.28 1084.73 418.56 928.00 501.40 973.38 602.10 1056.63 622.72
00011911 00000155 912.57 134.91 426.91 632.39 980.69 391.57 1085.30 419.32 928.17 501.93 971.95 602.45 1056.00 623.63
00011912 00000156 913.05 134.03 426.48 632.25 980.69 393.90 1085.54 421.24 928.53 502.16 971.17 603.94 1054.31 624.97
00011913 00000157 916.26 138.87 424.16 627.95 981.66 393.82 1092.71 425.62 933.97 507.80 973.07 606.96 1058.76 631.85
CROP_BBOX: 629 0 1708 1031
