Video ID: 	pCPKNKxVa3M
H: 	1080
W: 	1920
FPS: 	23.976023976023978

FRAME INDEX X0 Y0 W H [Landmarks (5 Points)]

00002144 00000000 975.85 150.22 436.01 619.74 1162.09 396.89 1348.34 408.53 1304.85 493.24 1175.85 608.59 1335.62 618.11
00002145 DELETE   959.05 147.98 439.28 622.00 1140.30 387.56 1328.60 401.94 1280.84 482.77 1153.91 600.51 1314.71 612.04
00002146 DELETE   940.38 151.46 441.39 606.61 1113.66 379.98 1310.29 394.93 1250.48 477.60 1130.20 592.08 1298.46 603.57
00002147 DELETE   924.35 146.97 439.69 605.72 1080.88 378.65 1279.54 382.48 1219.33 472.08 1105.37 592.69 1276.38 595.70
00002148 00000004 907.42 148.00 442.08 609.64 1057.44 375.29 1260.61 378.12 1190.35 470.24 1082.50 596.34 1255.59 597.37
00002149 00000005 898.67 147.23 436.56 612.26 1038.73 378.89 1245.80 384.23 1170.75 472.87 1063.54 599.24 1239.74 602.34
00002150 00000006 894.31 142.52 435.44 619.98 1029.22 379.16 1241.45 386.58 1161.07 475.28 1048.74 601.25 1231.64 606.00
00002151 00000007 890.38 142.32 432.29 622.37 1022.10 380.65 1238.02 390.59 1153.83 477.56 1038.87 602.10 1227.73 608.95
00002152 00000008 885.85 140.51 431.54 622.22 1017.25 382.84 1231.65 392.03 1143.77 481.18 1031.98 602.19 1218.33 608.56
00002153 00000009 876.84 137.35 439.86 619.23 1011.48 386.40 1229.19 388.16 1137.55 486.14 1028.43 601.35 1211.52 603.75
00002154 00000010 866.49 142.66 440.83 607.21 1002.39 389.93 1218.31 388.97 1132.06 489.56 1018.33 600.94 1210.16 599.83
00002155 00000011 859.12 144.82 439.65 602.37 993.23 389.07 1210.36 388.81 1122.55 489.80 1007.29 598.81 1202.76 598.31
00002156 00000012 852.50 145.65 435.46 602.22 985.60 388.28 1199.71 388.14 1113.62 487.90 1001.50 597.52 1195.56 597.01
00002157 00000013 847.33 144.93 435.06 604.97 978.12 388.17 1191.29 389.78 1104.30 487.83 994.06 597.25 1188.07 598.04
00002158 00000014 838.49 145.72 438.29 608.64 966.75 386.45 1181.32 389.52 1093.79 485.54 986.06 598.89 1179.43 600.31
00002159 00000015 834.08 146.69 436.06 611.38 960.28 385.10 1173.96 389.93 1085.93 486.23 977.54 598.48 1171.69 601.64
00002160 00000016 827.48 145.88 436.13 611.25 951.11 386.00 1168.22 389.01 1076.90 483.93 969.11 599.07 1163.90 600.65
00002161 00000017 821.45 145.81 433.68 611.79 943.22 388.07 1161.29 392.44 1066.37 484.23 959.67 599.68 1154.13 602.06
00002162 00000018 817.36 146.99 431.85 610.72 939.43 387.48 1156.30 394.91 1058.90 485.32 952.11 602.01 1141.27 607.11
00002163 00000019 807.61 149.10 435.16 603.44 930.11 391.52 1145.21 389.25 1050.78 493.71 946.81 605.06 1133.00 602.98
00002164 00000020 802.71 149.79 430.56 601.79 923.44 393.64 1137.64 390.85 1042.60 494.28 941.44 607.59 1126.27 605.03
00002165 00000021 801.89 149.89 429.19 602.22 922.14 395.08 1136.29 392.99 1040.10 495.94 939.35 608.69 1124.09 606.93
00002166 00000022 801.42 153.41 428.33 599.29 921.62 395.45 1133.49 393.03 1038.53 494.31 940.28 609.06 1120.95 607.02
00002167 00000023 797.17 150.39 431.63 605.29 921.20 394.19 1128.42 393.12 1036.50 491.66 941.65 609.99 1113.82 608.97
00002168 00000024 798.72 151.71 430.04 612.21 922.59 392.42 1127.10 392.90 1036.21 490.39 939.88 610.72 1110.56 610.97
00002169 00000025 799.21 151.74 428.67 613.10 923.03 391.98 1127.77 392.59 1037.24 490.36 939.86 610.95 1111.60 611.50
00002170 00000026 796.89 150.21 429.59 613.37 920.91 390.26 1124.81 391.65 1034.87 489.02 937.01 609.71 1108.47 610.78
00002171 00000027 797.00 152.13 427.89 607.83 919.88 390.21 1124.04 390.46 1034.05 488.47 938.64 609.74 1107.51 609.69
00002172 00000028 800.61 146.09 427.68 610.35 922.10 387.36 1127.59 387.88 1034.50 486.24 939.48 607.67 1109.12 607.81
00002173 00000029 804.76 144.63 426.75 607.02 923.52 382.12 1131.77 382.01 1036.96 482.51 939.57 603.21 1112.60 602.75
00002174 00000030 809.67 139.87 424.88 607.25 930.10 377.46 1137.97 378.60 1043.58 478.86 943.71 595.86 1119.04 596.39
00002175 00000031 823.52 145.54 421.36 603.29 938.55 373.57 1153.19 382.99 1053.68 476.78 951.42 593.79 1128.33 600.74
00002176 00000032 829.32 143.44 424.27 605.16 944.66 374.41 1157.35 385.17 1057.74 475.73 957.18 594.53 1133.46 602.06
00002177 00000033 835.19 145.36 427.02 602.26 950.26 376.57 1160.35 387.02 1061.89 475.74 963.15 595.83 1138.72 602.88
00002178 00000034 838.61 148.08 429.71 596.77 955.28 377.18 1163.55 386.34 1067.09 475.74 968.95 594.74 1143.89 600.52
00002179 00000035 841.41 136.89 427.70 603.06 957.68 372.26 1164.74 383.46 1068.69 473.36 970.14 590.43 1143.84 597.44
00002180 00000036 841.75 131.14 431.37 599.37 957.04 365.20 1166.10 376.09 1064.78 460.16 970.08 582.00 1142.03 589.10
00002181 00000037 844.75 130.87 434.22 596.66 961.94 363.96 1171.74 374.64 1069.90 457.05 974.95 577.27 1150.45 584.08
00002182 00000038 850.64 132.93 432.82 600.19 967.05 372.64 1175.69 379.63 1074.39 468.53 983.01 586.29 1159.40 589.88
00002183 00000039 859.90 128.13 428.34 607.15 977.41 383.32 1182.73 392.06 1083.85 480.60 991.01 594.41 1163.75 600.28
00002184 00000040 864.76 137.31 424.19 603.20 981.79 392.93 1186.34 402.18 1085.73 489.63 995.37 601.80 1168.10 609.06
00002185 00000041 866.27 137.15 424.61 615.18 980.09 404.39 1186.24 413.11 1081.88 506.27 993.90 613.00 1169.63 620.07
00002186 00000042 863.89 152.83 425.24 628.08 976.99 418.60 1179.30 425.74 1072.98 524.13 991.13 635.65 1156.57 641.26
00002187 00000043 862.84 165.15 428.65 630.36 974.81 424.80 1177.54 426.55 1073.84 529.95 993.15 651.25 1146.87 651.45
00002188 00000044 859.04 167.29 431.90 630.71 965.74 424.11 1173.25 427.08 1064.72 533.82 986.89 654.26 1140.02 654.97
00002189 00000045 854.98 170.55 428.17 630.31 956.15 421.32 1165.61 426.28 1054.06 535.33 977.24 655.39 1130.72 657.98
00002190 00000046 852.42 159.46 429.57 641.11 953.81 414.15 1159.97 423.40 1040.59 534.55 969.11 650.65 1128.77 658.10
00002191 00000047 849.77 156.73 430.67 641.01 949.74 408.14 1157.45 421.20 1034.16 531.11 961.40 644.51 1122.70 655.22
00002192 00000048 848.41 154.48 430.94 639.07 947.17 405.48 1155.01 421.45 1028.26 527.58 954.23 637.88 1117.87 650.84
00002193 00000049 846.70 146.84 432.10 641.72 946.08 402.16 1156.23 421.46 1027.18 524.52 949.83 633.13 1117.37 648.39
00002194 00000050 842.39 144.54 429.79 639.36 941.07 399.39 1154.36 421.20 1021.98 525.00 940.25 628.57 1114.79 645.66
00002195 00000051 840.05 147.07 427.60 632.67 938.38 395.37 1153.56 418.98 1019.62 521.09 933.29 623.78 1112.24 642.32
00002196 00000052 837.06 144.46 429.18 628.90 936.53 392.72 1150.23 419.16 1015.87 520.02 929.43 617.68 1107.36 638.48
00002197 00000053 834.54 142.56 428.97 627.30 936.78 390.47 1148.41 417.96 1017.01 517.57 927.95 612.78 1108.43 634.39
00002198 00000054 834.64 134.53 431.94 636.47 929.33 387.75 1145.05 412.83 1009.97 518.80 924.26 614.85 1101.45 635.21
00002199 00000055 832.43 137.60 435.56 630.16 928.91 387.14 1146.31 410.42 1011.90 518.39 925.87 613.54 1104.22 632.43
00002200 00000056 831.03 139.86 436.74 624.47 928.77 383.57 1145.75 405.47 1012.12 513.31 927.34 610.68 1105.27 628.46
00002201 00000057 829.58 133.99 435.82 623.68 928.21 379.99 1143.82 398.78 1012.04 502.50 928.45 604.03 1105.07 619.54
00002202 00000058 829.69 128.05 434.16 622.53 926.26 373.96 1143.84 390.25 1011.91 491.21 928.45 597.26 1106.51 610.84
00002203 00000059 834.56 119.43 430.06 627.25 927.09 368.62 1144.21 383.75 1012.05 485.74 930.43 596.64 1104.50 609.43
00002204 00000060 835.29 130.83 426.49 618.01 934.57 367.57 1146.44 381.97 1025.28 481.97 940.83 599.75 1104.23 611.22
00002205 00000061 837.09 125.63 425.82 624.96 936.34 365.96 1149.18 377.44 1030.53 482.84 947.59 603.12 1107.30 611.97
00002206 00000062 838.38 124.90 430.77 624.30 939.55 365.26 1155.66 375.84 1036.71 481.52 952.75 604.11 1114.51 611.76
00002207 00000063 843.53 122.17 432.88 625.64 946.35 367.05 1161.05 376.86 1046.80 478.59 962.35 602.37 1125.98 608.64
00002208 00000064 845.69 119.29 434.70 623.97 951.13 364.40 1165.61 376.80 1051.29 477.12 965.90 599.76 1132.68 607.58
00002209 00000065 848.56 120.43 435.07 618.38 953.46 363.67 1169.84 374.84 1054.32 476.89 966.52 598.55 1140.45 605.35
00002210 00000066 851.43 115.90 436.03 619.25 957.16 362.56 1175.32 374.73 1058.59 479.40 967.18 595.60 1146.34 603.01
00002211 00000067 855.40 115.23 434.96 616.93 962.55 361.59 1179.34 374.51 1063.16 479.58 972.96 594.49 1146.20 602.80
00002212 00000068 860.98 114.85 431.27 617.53 967.80 364.49 1182.39 373.97 1069.47 480.89 980.29 593.74 1150.95 599.76
00002213 00000069 860.56 117.20 432.52 621.48 969.93 367.12 1182.68 373.98 1072.65 482.21 986.00 597.54 1154.07 601.35
00002214 00000070 858.96 119.66 434.53 624.59 969.46 371.31 1180.75 374.32 1072.62 482.46 991.26 603.77 1154.72 604.09
00002215 00000071 854.98 123.37 433.71 622.75 963.46 371.97 1175.06 374.21 1067.39 481.56 984.92 603.80 1153.66 603.37
00002216 00000072 851.42 118.44 430.33 623.16 952.79 369.18 1171.00 373.37 1058.26 478.21 971.16 600.41 1154.10 601.75
00002217 00000073 849.62 113.66 430.67 623.97 951.38 365.19 1171.01 370.95 1057.73 472.83 970.18 595.55 1153.65 598.08
00002218 00000074 846.63 117.58 432.61 621.89 951.18 362.43 1170.44 367.22 1059.23 468.30 971.30 593.89 1153.05 595.62
00002219 00000075 842.85 123.56 429.32 617.67 950.61 360.55 1162.04 363.18 1057.71 462.57 973.29 590.77 1140.33 591.07
00002220 00000076 841.41 128.27 427.73 611.82 946.63 361.14 1158.78 363.71 1052.82 461.61 967.76 589.57 1137.72 590.07
00002221 00000077 840.86 128.78 425.59 608.66 946.11 360.84 1158.73 362.46 1053.44 459.44 967.68 588.03 1138.48 587.90
00002222 00000078 839.09 125.50 424.50 606.16 943.59 360.74 1159.57 365.54 1050.93 457.91 962.44 585.53 1138.32 588.14
00002223 00000079 838.74 125.26 423.18 602.50 943.52 358.77 1159.42 364.91 1050.52 455.29 960.98 583.21 1136.51 587.06
00002224 00000080 839.27 120.34 425.30 605.88 945.57 356.63 1160.87 362.01 1052.84 452.48 963.02 581.91 1136.53 585.13
00002225 00000081 840.18 119.77 427.39 605.64 947.68 354.72 1162.09 359.73 1055.09 447.11 965.03 579.95 1136.64 582.92
00002226 00000082 839.87 119.61 427.84 604.62 949.60 350.02 1161.10 355.81 1057.96 439.76 965.27 575.60 1133.06 579.55
00002227 00000083 838.17 113.53 428.32 606.36 949.45 344.20 1161.06 352.39 1058.50 433.62 964.48 569.47 1129.96 575.36
00002228 00000084 837.25 109.17 435.01 604.13 953.75 338.94 1164.01 348.81 1061.47 422.68 968.33 562.02 1131.89 569.18
00002229 00000085 838.75 103.03 439.05 604.30 961.07 334.91 1171.56 344.58 1070.11 413.59 973.47 556.73 1138.33 563.49
00002230 00000086 838.59 99.00 444.18 606.73 967.72 332.02 1175.48 343.49 1079.53 408.75 978.94 554.17 1140.82 562.38
00002231 00000087 846.36 100.88 437.94 605.82 979.65 334.68 1181.29 347.41 1090.50 408.41 990.78 552.38 1151.87 561.30
00002232 00000088 856.12 102.28 437.36 610.49 995.84 338.54 1195.65 356.41 1111.01 414.14 1003.96 557.04 1165.25 570.66
00002233 00000089 860.83 109.14 440.82 609.26 1008.88 343.92 1208.81 367.60 1126.46 432.00 1011.30 561.32 1172.33 580.17
00002234 00000090 866.61 117.03 439.07 613.20 1020.00 350.26 1218.46 379.91 1137.30 442.17 1014.16 568.15 1174.54 592.50
00002235 00000091 874.50 136.43 439.32 612.77 1036.47 358.94 1233.14 400.37 1142.15 471.35 1019.09 573.83 1172.59 607.96
00002236 00000092 879.72 150.16 443.52 613.81 1053.60 370.29 1238.00 416.19 1154.61 492.06 1030.44 589.41 1172.51 627.92
00002237 00000093 884.61 160.18 443.52 617.89 1058.62 385.16 1244.33 430.91 1160.51 512.89 1033.11 606.86 1177.77 646.06
00002238 00000094 885.16 163.94 437.38 616.59 1051.95 390.51 1246.19 434.58 1161.00 518.56 1028.84 613.74 1184.11 651.84
00002239 00000095 879.62 167.47 435.55 607.82 1042.73 388.46 1244.96 427.86 1158.15 516.79 1025.29 609.67 1195.28 642.95
00002240 00000096 874.41 159.47 433.97 608.03 1037.62 382.19 1239.71 420.57 1153.72 510.94 1018.98 599.22 1193.38 631.12
00002241 00000097 866.80 141.27 442.38 614.59 1030.40 383.32 1230.72 410.72 1152.47 503.23 1022.83 599.13 1190.60 622.06
00002242 00000098 859.95 142.41 443.45 611.09 1023.74 380.25 1221.04 406.77 1144.72 498.31 1019.10 595.45 1181.77 617.33
00002243 00000099 855.75 141.39 444.16 609.28 1017.96 379.46 1215.43 403.97 1136.44 493.67 1018.56 596.04 1176.13 616.06
00002244 00000100 849.31 141.19 447.75 612.75 1012.77 379.29 1209.66 403.39 1130.13 491.63 1014.63 597.66 1172.00 617.03
00002245 00000101 846.28 145.39 446.27 609.87 1008.47 379.06 1205.72 402.48 1126.39 492.38 1011.84 599.09 1169.42 617.63
00002246 00000102 840.03 149.21 445.27 606.37 1002.34 377.55 1201.19 400.73 1123.08 489.62 1008.79 598.91 1167.12 617.25
00002247 00000103 838.50 149.80 443.48 603.04 997.98 375.26 1197.53 398.73 1119.02 486.15 1004.04 596.90 1163.77 615.50
00002248 00000104 835.61 146.13 441.78 607.50 993.17 373.78 1193.21 396.80 1115.10 484.19 998.45 597.87 1157.97 616.23
00002249 00000105 832.31 148.78 437.18 606.54 987.86 373.25 1187.69 398.04 1109.05 485.15 990.03 596.96 1151.45 616.93
00002250 00000106 826.97 148.25 434.71 607.66 981.44 373.83 1181.95 401.73 1102.44 486.55 980.08 595.72 1145.28 618.30
00002251 00000107 825.06 148.16 435.52 608.96 978.00 375.23 1179.61 401.88 1099.23 486.61 976.94 596.62 1143.57 618.21
00002252 00000108 821.14 144.20 436.51 612.15 973.63 373.90 1176.47 400.00 1096.01 486.61 973.76 595.58 1142.30 616.49
00002253 00000109 818.48 148.68 435.97 608.57 970.85 374.34 1174.40 400.10 1093.93 487.22 969.53 595.35 1141.40 616.17
00002254 00000110 817.83 147.50 435.83 610.92 970.36 375.66 1174.05 402.22 1092.54 488.40 967.58 595.78 1140.84 617.24
00002255 00000111 817.53 147.95 435.91 611.31 969.97 376.31 1174.02 402.88 1092.96 488.91 966.80 595.35 1142.47 616.73
00002256 00000112 816.57 148.99 435.65 610.58 969.18 376.94 1173.39 403.93 1091.84 489.67 965.54 595.26 1141.60 616.99
00002257 00000113 815.72 149.57 436.52 610.47 967.83 377.68 1173.16 404.86 1090.53 490.10 964.21 596.02 1141.43 617.88
00002258 00000114 815.54 148.08 435.40 612.14 967.30 377.44 1173.67 404.56 1090.92 490.08 963.21 596.21 1142.08 617.97
00002259 00000115 816.12 148.29 435.10 610.34 966.65 378.13 1174.15 404.46 1090.63 490.04 963.44 596.39 1143.18 617.46
00002260 00000116 816.81 147.69 436.05 611.84 967.90 379.33 1174.08 406.13 1091.19 491.78 964.19 596.52 1143.23 617.98
00002261 00000117 815.12 150.29 434.56 610.45 964.43 378.97 1173.04 405.18 1089.16 491.83 961.90 598.07 1142.59 619.02
00002262 00000118 814.83 150.43 434.04 607.99 963.27 378.73 1172.02 404.98 1088.15 490.37 962.44 596.33 1143.24 617.09
00002263 00000119 812.66 141.72 436.19 611.57 959.59 379.55 1171.23 400.47 1087.91 490.60 962.59 596.49 1138.37 614.42
00002264 00000120 814.63 151.17 432.85 605.80 962.42 377.79 1172.60 404.66 1087.70 489.79 961.80 595.73 1143.74 616.92
00002265 00000121 814.70 139.55 437.85 609.88 961.64 381.31 1173.15 401.59 1089.35 491.85 965.08 596.47 1140.29 613.79
00002266 00000122 820.89 149.76 434.38 604.26 967.67 379.60 1177.35 403.02 1093.72 489.14 970.81 596.22 1151.04 614.60
00002267 00000123 822.26 149.97 435.35 603.47 970.00 379.06 1178.29 402.93 1096.27 488.90 974.20 595.08 1153.66 613.84
00002268 00000124 822.58 148.48 435.05 603.53 969.05 378.75 1179.39 402.40 1095.89 488.62 972.95 594.59 1154.87 613.17
00002269 00000125 822.24 147.94 434.51 603.19 967.06 378.38 1179.25 401.14 1093.74 488.56 969.74 594.38 1154.08 612.20
00002270 00000126 820.71 139.45 436.82 605.12 962.04 380.47 1176.00 399.14 1088.14 492.60 965.76 594.30 1144.71 610.13
00002271 00000127 816.63 140.71 432.82 606.15 954.63 378.94 1169.22 396.73 1080.07 489.59 959.37 593.17 1138.70 608.32
00002272 00000128 806.93 131.44 431.66 613.29 942.63 379.59 1155.88 394.59 1063.40 493.99 943.00 592.47 1127.75 605.23
00002273 00000129 796.03 142.62 425.87 599.23 926.94 377.41 1137.82 393.30 1040.68 491.53 925.24 589.21 1111.83 602.82
00002274 00000130 789.27 141.97 427.89 602.43 917.41 374.55 1126.36 393.94 1025.75 488.81 913.79 586.59 1101.08 602.60
00002275 00000131 786.60 147.51 431.19 597.70 917.20 374.48 1126.03 393.73 1027.65 489.63 914.51 585.85 1102.01 601.74
00002276 00000132 788.94 143.49 429.63 600.94 924.92 376.34 1135.61 391.52 1043.34 490.45 924.90 588.89 1111.93 601.77
00002277 00000133 794.94 139.22 435.13 610.86 937.20 378.69 1146.47 392.00 1059.64 491.95 940.54 593.92 1121.19 605.05
00002278 00000134 798.46 141.54 432.74 617.66 942.37 376.51 1150.55 390.44 1068.39 488.47 945.81 596.42 1124.34 608.26
00002279 00000135 789.47 145.12 437.08 619.59 935.21 371.46 1142.30 384.44 1061.51 484.11 940.43 594.65 1119.13 605.27
00002280 00000136 776.36 138.02 441.29 621.59 922.95 369.13 1130.14 383.97 1046.89 482.56 925.85 588.82 1108.26 600.34
00002281 00000137 770.59 138.71 436.80 619.98 909.27 369.50 1119.18 385.14 1029.64 481.60 914.04 590.55 1099.17 602.25
00002282 00000138 765.05 130.30 435.93 630.06 898.86 364.04 1113.06 382.02 1018.09 479.65 900.90 589.41 1090.64 603.00
00002283 00000139 761.18 130.74 434.95 629.45 893.61 361.09 1109.18 379.88 1013.90 478.10 895.13 589.06 1085.93 603.56
00002284 00000140 757.33 124.10 447.65 640.77 904.36 361.34 1116.11 380.00 1031.54 480.94 907.41 590.77 1093.59 605.19
00002285 00000141 759.74 127.67 450.07 634.59 920.06 363.58 1129.57 382.46 1053.53 479.79 926.93 590.77 1105.72 605.28
00002286 00000142 762.21 126.74 445.05 632.49 925.04 359.70 1135.95 383.38 1063.07 477.17 929.94 587.82 1110.50 606.41
00002287 00000143 755.64 125.34 446.46 636.10 916.10 359.35 1129.39 382.98 1052.56 479.03 917.86 588.22 1102.18 606.92
00002288 00000144 749.16 123.75 450.45 637.62 902.06 356.40 1120.06 384.80 1037.34 480.43 898.03 590.53 1089.91 613.40
00002289 00000145 744.12 124.96 450.78 640.07 896.26 353.16 1116.65 384.54 1033.97 477.00 889.51 590.11 1085.38 615.46
00002290 00000146 742.35 128.36 451.01 642.63 901.64 350.56 1117.59 381.87 1044.04 475.90 892.99 587.44 1089.30 613.31
00002291 00000147 738.93 122.88 453.95 660.71 903.80 347.62 1117.74 379.78 1049.45 476.01 890.90 589.90 1086.83 616.69
00002292 00000148 731.91 124.44 456.69 661.02 901.08 346.91 1111.61 381.01 1043.80 476.88 884.81 589.15 1077.63 617.35
00002293 00000149 726.09 120.31 458.04 663.98 891.44 347.94 1109.01 386.80 1029.95 475.31 876.85 592.05 1071.72 623.63
00002294 00000150 724.54 123.26 458.19 655.26 890.44 350.85 1107.65 388.20 1024.54 478.04 881.53 593.39 1068.63 623.23
00002295 00000151 725.53 105.84 464.45 661.90 891.35 361.15 1109.39 385.11 1024.57 482.63 894.27 597.25 1072.79 618.26
00002296 00000152 729.43 125.29 463.85 645.88 902.87 363.57 1114.18 396.82 1038.12 486.07 902.37 594.08 1083.20 620.23
00002297 00000153 732.09 136.89 462.71 639.28 906.02 371.57 1117.87 403.85 1043.13 494.57 904.73 600.39 1089.44 626.48
00002298 00000154 734.17 140.32 462.57 638.95 902.83 376.66 1117.84 407.16 1037.58 504.93 896.53 604.11 1090.40 629.43
00002299 00000155 731.90 145.52 466.39 636.77 899.64 380.53 1116.26 408.84 1031.33 510.54 890.93 607.90 1086.37 631.52
00002300 00000156 730.21 145.34 467.08 640.33 897.16 383.94 1114.30 412.66 1026.44 513.10 888.32 611.23 1081.98 635.09
00002301 00000157 730.42 132.79 476.49 653.24 901.64 382.76 1126.29 408.58 1042.70 519.17 901.71 621.10 1088.40 642.64
00002302 00000158 736.54 137.81 474.03 657.62 906.67 378.34 1136.32 405.84 1053.33 519.31 907.58 624.59 1104.81 647.32
00002303 00000159 739.02 136.09 472.57 666.93 910.28 380.67 1137.52 408.22 1058.76 515.91 911.75 628.28 1106.13 650.97
00002304 00000160 738.36 135.96 474.22 680.92 909.42 377.09 1131.55 409.25 1054.02 514.99 903.91 631.78 1095.23 658.61
00002305 00000161 734.95 147.07 478.69 680.44 910.02 378.56 1136.58 411.06 1055.75 515.37 902.59 635.04 1090.26 661.76
00002306 00000162 739.53 138.62 475.14 681.43 910.14 383.41 1134.16 414.81 1054.35 520.21 906.40 637.93 1097.18 664.20
00002307 00000163 742.14 137.28 475.15 676.26 917.84 384.71 1140.95 413.39 1061.71 524.13 915.05 635.47 1105.54 659.70
00002308 00000164 746.36 131.63 474.15 682.30 925.11 386.76 1145.04 411.91 1070.42 526.21 921.84 636.59 1111.91 658.32
00002309 00000165 750.11 135.89 473.26 685.61 929.93 387.30 1146.87 415.77 1071.49 527.05 923.59 638.69 1110.56 663.15
