Video ID: 	ocMtMM1PEFE
H: 	1080
W: 	1920
FPS: 	29.97002997002997

FRAME INDEX X0 Y0 W H [Landmarks (5 Points)]

00005874 00000000 856.14 251.42 377.86 498.89 911.39 469.61 1060.42 458.64 953.17 561.72 946.82 650.22 1065.03 640.20
00005875 00000001 856.31 251.40 378.48 500.35 912.67 467.46 1060.97 458.18 954.09 561.96 947.20 648.25 1065.57 639.66
00005876 00000002 857.47 252.06 378.00 499.58 913.47 466.01 1061.93 457.52 954.18 561.59 946.60 646.29 1066.31 638.34
00005877 00000003 858.75 250.31 377.53 501.38 914.37 465.62 1062.43 457.25 954.36 561.60 947.16 645.93 1066.70 638.09
00005878 00000004 863.06 247.37 371.87 501.29 913.72 461.50 1061.84 458.98 958.82 554.60 949.52 641.04 1063.82 637.15
00005879 00000005 864.14 247.23 371.75 501.89 914.95 460.40 1062.42 457.73 958.87 552.22 951.54 642.12 1062.96 638.14
00005880 00000006 866.40 244.36 370.98 505.88 917.50 459.31 1063.79 456.27 958.41 550.11 953.75 644.11 1060.90 639.80
00005881 00000007 868.83 242.88 369.57 505.95 919.71 458.08 1064.17 454.45 958.46 547.52 955.79 643.73 1060.01 639.02
00005882 00000008 870.08 241.83 369.39 506.59 919.29 456.68 1061.46 452.01 953.95 541.94 954.39 642.81 1057.52 637.18
00005883 DELETE   869.77 237.84 365.53 507.28 915.61 455.20 1054.08 453.68 942.71 534.33 945.11 634.76 1050.79 632.01
00005884 DELETE   866.00 224.96 367.63 515.71 900.18 445.27 1037.54 451.86 928.39 534.38 926.22 622.12 1028.41 625.20
00005885 00000011 863.80 214.66 364.90 520.11 893.79 432.33 1027.70 443.53 911.80 529.60 914.25 616.04 1013.42 623.09
00005886 00000012 866.28 213.28 354.32 511.52 891.35 426.72 1018.16 438.68 902.36 525.45 909.49 611.85 1005.72 619.71
00005887 00000013 866.66 215.17 352.17 506.13 891.31 424.26 1016.12 437.28 898.30 524.04 908.61 608.87 1004.79 617.51
00005888 00000014 868.42 216.61 353.50 505.88 892.04 424.99 1018.94 437.67 900.13 526.63 908.69 610.94 1008.48 619.25
00005889 00000015 869.90 217.51 357.55 511.07 894.88 429.09 1024.87 441.75 906.20 529.79 911.56 613.85 1014.12 622.16
00005890 00000016 872.10 225.18 361.30 507.41 898.68 433.56 1031.20 448.16 913.26 535.95 918.03 617.28 1020.56 626.77
00005891 00000017 874.25 233.58 361.99 504.29 901.22 437.37 1035.09 453.83 917.55 544.16 922.64 620.14 1027.18 630.80
00005892 00000018 876.34 237.57 361.98 502.15 909.82 443.81 1040.78 455.33 915.79 542.87 934.59 629.91 1032.20 637.42
00005893 00000019 875.74 239.45 364.21 508.02 907.50 446.16 1040.06 458.80 911.79 547.54 932.59 634.33 1033.16 642.54
00005894 00000020 870.89 238.62 364.99 509.29 901.29 452.06 1029.06 457.78 913.59 554.62 923.08 632.19 1026.59 635.91
00005895 00000021 872.55 239.65 360.54 506.17 901.70 452.26 1025.97 458.48 910.39 553.91 921.11 631.69 1022.08 635.76
00005896 00000022 873.29 238.50 358.75 507.90 902.45 451.74 1024.56 458.29 910.18 553.82 920.74 632.02 1019.55 636.48
00005897 00000023 874.77 238.46 357.77 511.47 902.71 452.15 1022.39 457.72 907.64 552.66 921.09 635.64 1014.94 639.45
00005898 00000024 874.23 238.59 359.32 517.83 902.40 451.81 1023.15 459.25 905.46 555.88 923.06 638.17 1016.81 643.31
00005899 00000025 874.68 239.53 358.99 517.99 901.98 453.39 1024.66 461.12 904.87 560.45 925.25 640.16 1021.84 645.33
00005900 00000026 875.09 243.05 358.95 514.19 902.26 455.19 1025.46 463.67 904.28 562.86 926.51 640.41 1025.01 646.02
00005901 00000027 874.95 247.73 357.36 508.89 901.78 457.77 1023.04 465.76 904.20 563.30 925.88 641.08 1021.87 646.16
00005902 00000028 875.06 251.76 355.77 505.61 900.14 460.06 1020.51 467.41 901.84 565.24 925.26 642.66 1019.74 647.09
00005903 00000029 872.62 248.70 357.39 508.05 899.36 459.10 1018.92 467.15 902.47 564.14 923.45 640.82 1015.67 645.95
00005904 00000030 871.82 249.16 355.98 504.86 898.20 457.63 1017.19 467.26 900.62 564.29 920.67 636.34 1015.95 642.81
00005905 00000031 870.98 250.49 355.57 503.13 896.88 454.77 1016.76 467.25 898.38 563.01 918.28 633.52 1014.56 642.19
00005906 00000032 871.11 251.65 355.93 501.60 896.82 453.39 1016.13 465.81 897.86 562.55 919.44 633.85 1013.71 642.48
00005907 00000033 871.19 251.31 355.75 505.65 897.20 455.18 1013.85 464.85 897.55 562.74 922.63 639.20 1010.20 645.70
00005908 00000034 872.21 253.11 353.26 511.41 898.14 446.95 1021.00 461.51 888.98 561.09 925.71 643.82 1020.31 654.11
00005909 00000035 871.38 252.65 353.19 515.83 899.88 447.58 1021.65 461.19 890.05 560.22 927.22 644.83 1022.21 654.52
00005910 00000036 870.48 252.97 354.33 515.74 899.91 447.55 1022.78 462.00 890.91 560.59 926.84 643.50 1024.11 653.78
00005911 00000037 869.38 253.24 354.82 512.53 898.14 448.43 1021.86 462.62 889.90 560.72 924.90 642.18 1023.67 652.30
00005912 00000038 867.47 250.27 358.87 508.88 895.22 456.05 1016.55 465.85 896.42 562.32 917.81 636.89 1013.92 643.52
00005913 00000039 866.03 252.31 360.99 504.74 894.57 458.21 1018.59 466.75 898.06 562.01 915.91 636.54 1014.58 642.28
00005914 00000040 866.05 254.42 362.18 502.69 894.13 459.76 1019.77 467.30 899.22 563.14 917.24 638.59 1015.48 643.52
00005915 00000041 865.86 251.34 363.24 506.54 895.23 459.54 1021.51 467.26 900.99 563.68 919.27 639.69 1017.50 644.73
00005916 00000042 868.62 251.61 362.14 507.69 897.51 459.35 1022.46 465.59 902.93 562.59 923.30 642.89 1017.18 646.79
00005917 00000043 869.72 252.68 361.54 512.29 898.65 452.33 1029.21 461.85 896.56 561.32 925.35 647.17 1025.66 653.58
00005918 00000044 868.74 249.48 364.09 518.22 899.13 450.74 1031.59 459.55 899.25 559.75 924.89 647.23 1027.48 653.14
00005919 00000045 867.95 247.87 365.22 519.51 898.61 454.10 1030.96 457.58 911.24 561.26 926.98 642.35 1032.27 644.00
00005920 00000046 871.70 252.11 363.17 518.56 904.49 449.81 1038.29 458.57 905.35 557.84 930.31 645.37 1037.40 650.91
00005921 00000047 869.58 247.16 369.25 516.94 901.53 453.92 1038.84 457.13 917.64 559.98 929.36 639.78 1040.56 641.25
00005922 00000048 870.72 244.02 370.77 513.30 901.64 454.48 1044.07 454.53 922.67 559.76 931.32 641.50 1043.66 640.69
00005923 00000049 871.62 243.09 371.49 507.16 905.07 454.79 1047.99 451.78 930.37 556.20 934.94 640.11 1046.40 636.93
00005924 00000050 877.24 248.85 366.25 498.48 915.10 451.62 1053.19 454.00 934.67 548.94 944.22 639.73 1049.26 639.51
00005925 00000051 881.23 246.62 364.52 501.53 920.08 460.02 1056.57 459.65 940.11 546.80 948.03 638.30 1055.61 635.74
00005926 00000052 884.35 246.25 363.53 503.94 923.47 462.59 1060.46 459.62 943.64 541.84 949.01 637.53 1058.75 632.92
00005927 00000053 885.48 249.47 362.96 499.97 923.95 460.72 1063.30 457.06 946.00 541.46 950.92 637.26 1060.30 631.92
00005928 00000054 880.29 245.55 368.22 495.82 917.96 450.34 1056.60 450.35 948.11 547.00 942.77 631.91 1056.42 631.93
00005929 00000055 878.43 241.49 370.78 497.95 914.65 445.16 1055.81 444.25 946.29 544.56 941.08 629.48 1055.88 628.77
00005930 00000056 878.24 241.43 368.59 507.40 913.65 443.34 1058.73 443.40 946.50 548.35 945.33 628.87 1062.41 626.42
00005931 00000057 877.65 241.83 368.37 505.51 912.72 440.95 1059.23 440.37 945.67 546.10 943.74 628.00 1061.47 625.17
00005932 00000058 877.80 240.05 369.61 505.42 912.47 440.56 1059.36 438.13 946.12 543.67 944.88 627.85 1060.63 623.57
00005933 00000059 877.80 238.86 369.49 505.47 912.36 440.05 1059.46 437.10 945.89 542.10 945.44 627.67 1060.11 623.07
00005934 00000060 877.14 237.84 369.85 506.28 912.88 439.14 1059.12 435.71 946.71 540.86 948.67 628.42 1060.05 623.36
00005935 00000061 875.71 237.02 370.87 506.59 911.63 438.76 1058.61 434.88 947.16 540.69 948.99 628.76 1060.28 623.30
00005936 00000062 874.25 236.17 371.58 505.87 910.30 439.67 1058.28 434.77 947.77 540.64 948.23 628.89 1060.91 622.65
00005937 00000063 873.87 236.49 370.58 504.40 910.18 441.10 1057.53 435.76 948.69 542.44 949.16 630.13 1061.90 623.47
00005938 00000064 879.90 236.71 365.65 499.23 920.14 454.61 1053.84 442.02 947.02 534.53 957.31 634.13 1059.39 621.40
00005939 00000065 880.25 242.06 365.66 494.41 919.96 459.72 1056.61 445.03 951.07 535.94 958.19 635.46 1063.53 620.86
00005940 00000066 878.96 241.35 368.22 494.20 920.62 459.41 1056.96 444.53 953.27 538.71 960.51 635.98 1064.96 621.11
00005941 00000067 876.76 238.51 370.01 497.26 918.42 456.11 1056.08 440.77 953.01 538.54 959.19 633.67 1066.76 618.50
00005942 00000068 876.40 236.51 369.88 499.44 917.63 454.30 1056.63 437.87 952.74 535.68 959.26 631.10 1067.96 615.01
00005943 00000069 873.82 235.42 372.58 501.02 916.77 451.70 1058.09 434.56 954.97 532.88 959.54 628.64 1069.52 611.86
00005944 00000070 872.67 236.53 374.31 499.28 915.38 450.04 1059.79 432.14 955.75 531.29 959.70 628.44 1072.33 610.99
00005945 00000071 870.99 233.00 378.19 501.91 913.85 449.15 1060.14 430.62 956.08 530.85 959.78 628.22 1075.55 610.17
00005946 00000072 870.50 230.85 378.65 501.49 913.98 446.93 1060.94 428.87 958.06 529.39 960.54 626.10 1076.10 608.41
00005947 00000073 869.96 227.66 379.83 504.26 914.42 445.50 1061.93 427.84 958.91 528.36 960.42 625.46 1076.33 608.21
00005948 00000074 869.16 228.92 380.27 504.23 915.99 443.35 1063.45 426.10 960.85 526.58 963.34 625.79 1076.20 608.95
00005949 00000075 872.53 231.39 376.99 504.71 919.62 439.32 1062.86 422.94 960.41 523.87 969.25 627.68 1072.99 611.56
00005950 00000076 873.05 231.99 375.48 499.52 915.44 432.59 1063.37 419.12 961.19 526.95 958.03 619.79 1070.36 609.81
00005951 00000077 873.00 231.49 377.10 506.89 922.52 435.11 1063.85 420.69 958.49 527.92 960.66 622.85 1069.58 610.96
00005952 00000078 876.25 231.07 377.70 502.64 926.14 436.06 1068.26 421.26 962.61 527.03 962.84 618.69 1074.65 606.59
00005953 00000079 885.31 227.23 374.70 498.01 932.40 438.39 1079.58 423.39 974.96 519.82 974.04 618.12 1088.69 603.11
00005954 00000080 886.33 222.61 376.51 497.49 933.36 437.38 1082.14 423.77 975.70 518.99 971.73 615.29 1088.55 601.70
00005955 00000081 887.85 222.72 375.16 495.43 935.58 436.15 1083.48 423.35 977.51 518.60 973.07 613.96 1089.16 601.09
00005956 00000082 889.65 223.73 373.47 495.47 937.50 435.59 1084.75 423.85 979.77 519.03 974.90 614.33 1090.68 602.29
00005957 00000083 892.36 225.21 371.72 496.08 940.29 434.24 1087.17 424.42 981.03 518.83 977.02 614.11 1091.78 603.57
00005958 00000084 893.71 225.93 371.69 496.79 942.71 433.27 1089.69 424.54 982.03 517.47 979.47 613.46 1093.03 603.74
00005959 00000085 895.41 224.00 371.76 497.42 944.58 431.88 1091.53 424.32 982.68 516.46 980.76 611.18 1093.32 602.50
00005960 00000086 897.09 223.34 371.38 496.43 946.45 428.81 1093.87 422.92 984.08 515.21 982.22 609.20 1094.41 602.02
00005961 00000087 898.55 223.37 370.65 494.72 947.95 426.63 1094.80 421.51 985.34 514.92 982.48 607.49 1094.67 601.10
00005962 00000088 899.07 222.70 371.00 493.95 948.84 425.36 1096.16 420.12 987.64 513.26 983.41 606.31 1095.50 599.99
00005963 00000089 900.13 222.10 371.73 494.46 949.64 425.11 1096.73 420.16 988.22 512.97 983.70 606.11 1096.28 600.05
00005964 00000090 900.48 222.06 373.86 494.67 949.82 425.31 1098.40 420.58 990.27 512.83 984.20 606.32 1097.67 600.45
00005965 00000091 901.14 221.15 374.77 495.40 950.62 424.83 1099.72 420.30 991.96 513.40 984.81 606.34 1098.68 600.77
00005966 00000092 901.75 220.71 374.94 496.73 951.25 425.14 1100.35 420.77 992.62 514.01 985.74 606.86 1099.90 601.34
00005967 00000093 901.78 222.46 375.13 497.69 951.31 425.23 1101.37 421.35 992.87 514.38 985.79 607.36 1100.52 602.23
00005968 00000094 901.93 222.03 375.54 498.86 951.65 424.56 1101.01 421.08 992.96 514.59 986.96 607.54 1100.29 602.72
00005969 00000095 901.07 220.90 376.54 499.94 950.63 424.28 1101.47 421.60 992.58 514.75 985.50 606.80 1099.08 602.62
00005970 00000096 900.81 222.23 375.91 497.62 948.35 426.11 1101.09 423.39 990.03 516.20 980.97 606.87 1096.96 602.65
00005971 00000097 900.58 222.46 374.39 495.60 947.74 425.87 1099.92 424.00 987.61 516.63 977.59 605.09 1094.32 601.58
00005972 00000098 900.21 221.82 373.70 494.39 946.57 425.82 1099.03 423.81 987.07 517.95 977.64 607.50 1094.78 603.80
00005973 00000099 900.24 224.41 372.74 491.58 947.30 427.98 1097.58 424.50 987.97 517.28 980.26 608.86 1093.81 603.91
00005974 00000100 899.51 223.01 371.32 492.50 947.02 428.05 1096.81 424.40 987.72 517.99 978.96 609.92 1090.23 604.98
00005975 00000101 898.35 220.30 372.69 495.32 945.48 427.67 1095.14 424.49 985.11 518.51 975.85 608.76 1087.39 604.26
00005976 00000102 897.78 219.24 372.15 496.90 944.74 426.88 1094.41 423.69 983.86 517.61 973.66 607.91 1085.53 603.37
00005977 00000103 896.93 220.01 372.71 496.30 944.09 427.05 1094.27 423.80 984.08 518.77 972.94 608.09 1086.25 603.49
00005978 00000104 894.18 219.56 374.27 496.99 943.57 428.11 1093.43 423.09 984.66 516.91 976.18 608.65 1088.94 602.46
00005979 00000105 892.57 220.70 374.21 496.21 944.28 428.65 1092.59 422.17 985.27 514.90 979.74 608.64 1090.48 601.13
00005980 00000106 891.82 218.85 374.86 498.42 944.42 427.51 1091.81 420.97 984.79 514.30 979.51 607.73 1090.79 600.12
00005981 00000107 891.56 220.53 374.27 499.39 945.04 426.33 1091.75 419.55 984.80 512.88 980.60 606.00 1092.51 598.13
00005982 00000108 891.89 216.99 373.95 505.36 946.54 424.82 1091.70 417.10 986.14 511.57 983.13 607.18 1091.85 598.62
00005983 00000109 891.63 212.50 374.30 508.75 946.66 423.69 1090.94 415.26 984.67 508.46 982.68 605.68 1092.55 596.55
00005984 00000110 893.25 209.50 373.32 509.08 947.40 421.35 1092.78 412.86 985.35 505.98 982.26 604.22 1091.73 595.30
00005985 00000111 895.07 207.39 373.43 509.26 948.27 420.06 1095.29 411.74 984.92 504.25 981.04 602.46 1091.63 593.95
00005986 00000112 897.48 207.02 374.69 508.62 950.34 418.80 1099.05 412.03 986.97 502.57 981.06 600.59 1092.79 593.51
00005987 00000113 897.45 205.87 375.15 508.45 950.32 417.80 1100.91 411.46 987.26 501.13 979.58 599.70 1093.94 592.95
00005988 00000114 893.92 205.25 374.29 508.29 944.21 414.48 1105.00 412.59 989.27 506.43 977.42 601.59 1097.42 600.32
00005989 00000115 895.67 208.77 374.14 509.05 948.71 420.68 1097.82 414.61 986.62 506.79 980.03 602.97 1090.55 596.36
00005990 00000116 894.32 213.58 374.24 505.43 946.81 423.14 1095.55 418.29 986.61 510.86 981.05 605.33 1090.86 599.46
00005991 00000117 892.05 218.08 375.28 499.72 944.02 426.29 1093.28 420.20 984.58 512.90 979.63 606.66 1091.42 599.50
00005992 00000118 890.86 217.01 375.21 500.63 942.76 427.39 1091.35 420.73 982.83 512.89 978.36 606.96 1090.41 599.24
00005993 00000119 891.28 214.72 374.27 501.92 943.75 426.25 1090.15 419.07 981.82 510.78 979.38 606.01 1089.02 597.94
00005994 00000120 892.38 211.98 374.07 501.80 945.25 423.45 1090.83 416.69 983.00 508.79 979.87 603.90 1088.13 596.45
CROP_BBOX: 671 13 1462 883
