Video ID: 	bPpZs5r4h-o
H: 	1080
W: 	1920
FPS: 	29.97002997002997

FRAME INDEX X0 Y0 W H [Landmarks (5 Points)]

00001928 00000000 915.67 246.83 374.51 553.12 1157.89 428.89 1258.28 494.37 1266.95 541.36 1128.29 614.68 1215.42 669.24
00001929 00000001 911.15 246.84 377.87 549.40 1153.24 425.15 1259.18 492.05 1266.25 536.40 1126.81 611.00 1217.56 666.08
00001930 00000002 904.47 246.91 382.85 543.93 1145.66 420.43 1262.21 491.86 1265.00 529.69 1122.19 605.60 1221.86 663.98
00001931 00000003 902.66 243.33 383.37 544.67 1141.73 417.59 1263.23 490.05 1264.57 525.12 1121.98 604.38 1224.16 663.40
00001932 00000004 902.35 243.51 383.34 544.72 1141.74 417.90 1263.18 490.08 1264.46 525.32 1122.07 604.59 1224.18 663.36
00001933 00000005 908.43 239.03 376.41 543.09 1143.89 401.92 1267.48 479.85 1263.04 530.32 1114.52 610.00 1219.09 676.96
00001934 00000006 903.52 238.84 378.35 540.62 1138.20 398.90 1264.68 474.78 1259.65 525.19 1112.38 608.72 1219.54 673.75
00001935 00000007 898.50 236.15 379.47 539.61 1127.16 397.61 1257.55 465.56 1251.45 520.62 1108.01 607.53 1217.37 665.62
00001936 00000008 891.35 230.62 379.82 537.63 1118.25 394.17 1253.34 461.84 1241.87 514.50 1099.24 602.77 1213.24 659.88
00001937 DELETE   891.64 230.18 379.53 537.92 1118.14 394.03 1253.24 461.56 1241.99 514.25 1099.43 602.92 1213.32 659.89
00001938 00000010 886.97 220.21 376.11 557.21 1098.42 398.43 1247.02 458.74 1232.95 492.34 1087.93 603.14 1211.62 652.64
00001939 00000011 881.54 216.70 376.07 556.68 1092.60 396.64 1240.69 458.53 1228.14 488.99 1082.94 599.47 1206.49 650.33
00001940 00000012 874.19 207.20 377.71 555.56 1089.05 391.23 1241.58 456.43 1230.01 481.13 1076.91 589.20 1206.66 642.68
00001941 00000013 872.06 203.25 373.38 556.41 1079.17 390.50 1237.31 456.85 1222.31 473.33 1071.33 586.47 1205.35 640.95
00001942 00000014 871.34 203.17 374.14 556.36 1079.16 390.42 1236.93 456.19 1222.03 473.07 1071.55 586.39 1205.27 640.34
00001943 00000015 866.83 198.94 373.85 558.49 1070.69 390.64 1230.46 454.17 1213.74 469.39 1066.35 584.32 1201.28 636.45
00001944 00000016 857.73 192.26 375.89 559.76 1060.48 388.57 1221.31 445.72 1205.86 466.30 1061.18 581.06 1196.66 628.08
00001945 00000017 849.53 188.23 379.31 562.89 1049.41 383.95 1212.96 440.23 1194.98 461.64 1051.19 577.05 1188.18 623.04
00001946 00000018 845.60 182.69 379.74 560.47 1040.76 380.36 1205.96 433.83 1185.03 458.41 1044.44 571.90 1182.37 615.44
00001947 DELETE   845.25 182.42 379.84 560.56 1040.53 380.52 1205.97 433.89 1185.13 458.59 1044.46 571.96 1182.38 615.40
00001948 00000020 836.43 180.84 383.30 555.72 1032.54 376.91 1195.27 428.98 1175.21 454.20 1039.30 565.10 1173.42 606.83
00001949 00000021 827.02 178.76 386.45 549.15 1022.05 372.27 1187.25 424.17 1168.08 446.91 1034.65 559.54 1168.54 600.80
00001950 00000022 823.99 174.30 386.99 553.23 1016.12 367.55 1184.60 423.58 1162.32 439.62 1031.25 555.38 1167.29 599.78
00001951 DELETE   820.21 173.54 385.96 550.94 1012.46 361.36 1178.74 417.75 1157.33 437.40 1027.22 549.78 1161.86 594.51
00001952 00000024 820.25 173.34 385.81 551.81 1012.52 361.52 1178.60 417.78 1157.15 437.53 1027.23 550.10 1161.72 594.73
00001953 00000025 819.07 169.74 381.81 551.56 1009.46 357.13 1172.16 415.62 1150.63 433.43 1025.63 544.16 1155.92 590.70
00001954 00000026 820.92 160.60 372.48 560.48 1013.53 350.75 1174.15 397.98 1156.26 423.47 1016.98 548.69 1156.61 587.44
00001955 00000027 816.90 156.74 372.98 562.57 1006.29 350.14 1168.56 395.33 1150.18 421.45 1012.59 547.72 1153.36 584.55
00001956 00000028 812.95 154.18 372.62 563.34 1000.97 347.51 1164.18 394.87 1147.02 418.09 1009.37 545.20 1148.76 583.47
00001957 00000029 813.27 155.22 372.74 562.04 1000.75 347.61 1164.19 395.41 1146.94 418.25 1008.99 545.01 1148.44 583.68
00001958 00000030 810.15 155.19 373.37 560.40 994.95 345.79 1160.32 394.15 1143.54 415.32 1005.45 543.70 1145.82 582.66
00001959 00000031 807.32 156.91 374.87 554.48 989.20 346.12 1156.56 394.47 1138.52 412.67 1003.29 543.02 1143.89 581.77
00001960 00000032 807.02 156.18 373.70 553.49 985.74 345.12 1155.41 393.89 1135.78 410.75 1001.56 542.04 1143.05 581.12
00001961 00000033 807.95 155.53 372.39 552.59 985.93 343.65 1154.70 391.25 1134.73 409.49 1002.00 541.14 1142.39 579.26
00001962 00000034 807.89 155.93 372.08 552.21 986.07 343.35 1154.57 391.26 1134.81 409.20 1002.13 541.03 1142.27 579.40
00001963 00000035 808.57 154.29 371.06 551.29 986.11 341.93 1154.38 388.48 1133.94 407.72 1002.92 540.02 1142.28 577.32
00001964 00000036 806.31 155.31 371.68 548.35 985.94 341.64 1153.26 388.23 1132.97 408.24 1002.61 539.34 1140.39 576.69
00001965 00000037 802.16 152.95 374.74 547.29 984.44 340.49 1150.49 388.70 1131.72 406.50 1002.45 535.76 1138.72 574.44
00001966 00000038 798.43 153.20 374.38 540.88 982.96 338.17 1148.14 389.79 1128.94 404.07 1000.88 531.09 1134.35 572.80
00001967 00000039 798.40 153.41 374.23 540.32 982.75 338.19 1148.08 389.70 1128.94 404.19 1000.82 531.08 1134.25 572.72
00001968 00000040 792.57 149.43 376.24 541.91 981.17 336.72 1144.17 390.71 1126.13 401.17 1000.68 526.29 1132.39 570.00
00001969 00000041 788.31 143.10 378.78 545.70 978.25 334.96 1140.98 388.06 1121.54 400.10 999.38 523.70 1130.35 566.65
00001970 00000042 780.70 140.61 382.45 543.55 972.43 334.15 1132.84 385.22 1116.46 400.50 997.61 521.65 1124.94 562.96
00001971 00000043 776.45 141.30 384.66 544.58 968.52 333.70 1130.46 384.44 1114.63 402.63 994.37 523.19 1123.02 564.00
00001972 00000044 776.49 140.93 384.70 544.51 968.16 333.70 1130.39 384.17 1114.26 402.90 993.96 523.31 1122.83 563.89
00001973 00000045 773.96 140.72 384.46 543.80 965.11 330.39 1126.16 382.63 1110.96 400.99 989.97 520.42 1117.52 562.54
00001974 00000046 769.43 139.82 385.80 547.73 959.67 325.00 1118.57 380.80 1103.89 394.82 984.77 516.68 1110.69 561.20
00001975 00000047 770.01 138.80 383.73 550.04 957.26 319.49 1114.20 372.84 1098.59 391.96 979.06 514.47 1104.44 557.16
00001976 00000048 767.85 137.41 382.71 548.21 955.87 315.85 1111.08 369.20 1094.45 391.44 976.03 512.07 1099.09 554.84
00001977 00000049 767.78 137.22 382.69 548.37 955.80 315.93 1111.21 369.38 1094.84 391.46 976.16 512.11 1099.37 554.98
00001978 00000050 763.21 132.80 385.39 546.79 953.75 315.93 1111.43 369.28 1095.04 391.64 975.39 510.41 1099.70 553.24
00001979 00000051 761.62 125.07 387.25 547.13 951.85 321.92 1121.93 373.80 1094.88 394.14 965.94 509.37 1102.91 550.60
00001980 00000052 757.56 123.15 388.38 541.52 947.28 319.53 1120.76 371.11 1091.03 391.33 962.84 505.49 1102.19 546.37
00001981 00000053 757.37 121.52 388.30 541.41 945.94 318.64 1120.02 369.52 1088.91 389.51 961.78 503.82 1102.18 544.11
00001982 00000054 757.23 121.11 388.56 541.58 946.00 318.60 1120.14 369.50 1089.01 389.46 962.00 503.78 1102.29 544.07
00001983 00000055 757.71 118.96 388.18 539.25 945.80 316.15 1120.11 367.07 1087.61 385.94 961.94 500.52 1102.01 540.77
00001984 00000056 758.25 116.47 388.73 535.98 947.40 314.88 1120.45 365.74 1087.72 382.41 963.88 497.58 1102.70 537.74
00001985 00000057 756.91 112.54 392.31 542.13 945.40 311.81 1118.71 360.60 1085.86 377.89 963.26 495.99 1102.58 534.31
00001986 00000058 755.81 110.68 394.08 551.09 944.86 309.03 1114.10 357.25 1085.52 376.47 963.09 496.68 1099.46 534.51
00001987 00000059 755.76 110.29 393.90 551.54 945.17 308.74 1113.72 356.87 1085.53 376.20 963.22 496.38 1098.94 534.15
00001988 00000060 755.34 108.98 395.07 550.05 944.73 308.09 1113.70 353.73 1085.64 373.21 966.49 494.20 1103.10 529.58
00001989 00000061 757.36 107.58 394.67 547.66 946.41 308.46 1119.08 355.09 1090.06 371.57 969.61 493.82 1108.56 529.89
00001990 00000062 757.31 104.94 397.45 549.91 947.76 305.74 1119.75 352.91 1092.25 367.52 971.45 491.37 1110.90 527.71
00001991 00000063 759.32 104.41 395.26 547.44 949.15 304.00 1121.31 351.86 1095.10 366.49 973.58 490.27 1112.36 526.99
00001992 00000064 759.40 104.48 395.25 547.43 949.16 304.09 1121.36 351.88 1095.00 366.58 973.46 490.29 1112.34 526.97
00001993 00000065 763.76 106.95 392.33 535.62 952.88 304.19 1123.69 350.60 1098.31 365.01 978.72 487.20 1115.75 522.54
00001994 00000066 768.98 105.41 390.01 534.73 954.68 302.41 1127.58 350.73 1101.73 361.44 980.45 485.96 1118.95 523.08
00001995 00000067 771.12 105.67 389.04 536.91 955.06 302.94 1129.20 352.42 1100.87 362.06 977.70 486.28 1118.65 524.69
00001996 00000068 771.43 105.47 390.54 537.07 956.02 303.38 1130.78 354.10 1101.36 361.77 977.97 486.63 1119.69 526.00
00001997 00000069 770.96 105.77 390.47 537.20 955.34 303.54 1130.56 354.00 1100.97 362.69 976.75 486.48 1118.85 525.69
00001998 00000070 773.62 106.52 388.37 534.94 956.86 303.51 1131.55 355.38 1101.49 361.52 977.76 485.12 1119.42 525.58
00001999 00000071 774.37 107.30 388.14 531.48 956.03 302.48 1130.94 354.10 1100.46 360.10 977.50 483.40 1119.26 523.55
00002000 00000072 772.79 106.48 389.47 536.12 954.94 301.91 1128.00 353.28 1097.19 360.17 975.28 483.57 1116.04 523.60
00002001 00000073 770.90 106.02 390.08 539.84 950.75 301.18 1123.11 352.45 1092.01 359.73 971.77 484.57 1112.07 524.51
00002002 00000074 771.16 106.06 389.77 539.71 950.56 301.33 1123.15 352.42 1091.79 359.70 971.66 484.59 1112.23 524.43
00002003 00000075 768.41 106.47 391.48 537.63 947.45 300.75 1119.68 350.49 1087.44 357.74 970.63 482.68 1110.63 520.96
00002004 00000076 768.21 106.23 390.39 534.00 946.46 299.29 1118.18 348.41 1084.41 356.95 969.38 479.89 1108.73 517.51
00002005 00000077 768.77 106.42 387.62 536.01 945.47 296.67 1117.26 348.08 1084.94 356.99 966.02 479.62 1105.75 519.49
00002006 00000078 768.16 106.09 388.38 536.71 946.00 296.19 1117.25 348.59 1084.18 357.99 964.28 479.26 1103.91 519.97
00002007 00000079 768.11 107.06 388.55 536.39 946.03 296.05 1116.67 348.45 1083.83 357.99 963.76 479.19 1103.20 519.98
00002008 00000080 766.65 106.69 389.95 538.31 945.90 296.09 1116.39 348.79 1082.78 359.60 961.57 479.50 1101.32 520.60
00002009 00000081 768.34 105.89 390.03 538.60 946.02 295.44 1117.15 348.87 1083.14 357.80 961.79 479.46 1102.01 521.26
00002010 00000082 769.80 104.98 390.51 540.18 947.69 293.36 1118.79 348.96 1084.58 355.73 962.26 478.37 1102.55 521.94
00002011 00000083 769.59 106.64 389.68 530.99 949.96 293.27 1123.35 350.55 1090.71 355.48 965.48 478.44 1105.16 523.19
00002012 00000084 769.34 106.59 389.93 531.47 949.90 293.26 1123.35 350.63 1090.69 355.52 965.24 478.50 1105.03 523.31
00002013 00000085 769.54 106.09 389.63 524.75 952.52 294.11 1124.15 350.47 1090.76 354.45 969.80 474.75 1108.05 518.44
00002014 00000086 768.13 104.45 389.82 525.73 951.83 292.90 1121.80 348.24 1088.79 353.36 970.38 472.38 1107.56 515.11
00002015 00000087 762.63 101.47 395.26 534.60 947.37 292.50 1117.73 345.22 1083.12 352.32 966.66 472.99 1104.94 513.43
00002016 00000088 761.17 99.82 396.84 538.88 945.39 291.00 1116.09 343.66 1081.32 351.35 965.00 474.14 1102.90 514.63
00002017 00000089 760.70 100.12 396.95 539.17 945.25 291.46 1115.61 343.36 1081.08 352.18 964.61 474.38 1102.51 514.30
00002018 00000090 755.10 99.08 402.11 542.31 942.92 290.15 1114.01 344.20 1079.47 351.62 960.63 473.49 1098.58 515.27
00002019 00000091 750.55 97.22 402.83 544.15 938.60 289.40 1110.00 344.76 1074.92 350.20 957.06 471.90 1094.76 514.78
00002020 00000092 748.73 95.90 400.35 542.09 933.35 286.87 1107.79 342.98 1067.67 350.26 949.24 469.47 1089.38 513.30
00002021 00000093 746.36 94.77 398.67 542.70 928.80 284.34 1105.67 343.06 1064.46 351.77 940.51 468.60 1082.94 514.81
00002022 00000094 746.33 94.42 398.42 543.50 928.95 284.06 1105.83 343.13 1064.93 351.62 940.51 468.63 1083.02 515.17
00002023 00000095 744.90 93.99 392.84 548.76 922.15 280.96 1095.59 338.22 1055.09 352.66 933.63 468.96 1073.63 514.30
00002024 00000096 747.35 90.42 384.68 553.86 921.54 280.82 1093.65 327.39 1056.40 347.51 925.49 476.07 1071.55 513.91
00002025 00000097 742.47 90.44 386.69 552.97 915.88 281.16 1091.68 328.83 1052.86 348.23 921.06 476.66 1068.82 514.97
00002026 00000098 741.22 88.18 383.95 555.24 907.44 279.55 1087.37 325.10 1048.32 345.59 916.75 478.36 1066.35 515.09
00002027 00000099 741.27 88.21 383.94 555.29 907.46 279.51 1087.43 325.06 1048.32 345.53 916.67 478.39 1066.34 515.15
00002028 00000100 737.66 85.54 384.54 553.91 903.55 278.87 1085.22 324.29 1046.96 344.39 914.68 476.57 1064.86 513.14
00002029 00000101 734.19 83.57 383.29 542.33 901.23 277.24 1086.78 327.52 1044.43 342.99 913.24 471.79 1062.89 512.02
00002030 00000102 732.08 79.14 383.62 540.86 899.00 274.58 1083.17 321.86 1041.55 341.11 913.78 467.87 1062.54 505.31
00002031 00000103 728.35 75.67 385.96 544.85 894.87 272.22 1081.54 318.03 1038.94 338.07 910.83 467.41 1062.17 503.41
00002032 00000104 728.00 75.00 386.82 545.66 894.82 272.22 1081.55 317.90 1038.83 338.03 910.96 467.42 1062.14 503.26
00002033 00000105 726.61 76.62 389.96 555.95 892.28 270.74 1076.41 316.51 1037.69 332.73 908.19 467.87 1060.48 503.86
00002034 00000106 726.67 77.18 390.35 559.98 892.57 269.23 1074.52 315.38 1036.22 332.18 906.01 466.98 1058.83 503.32
00002035 00000107 728.50 77.82 390.04 556.95 894.14 268.21 1073.89 311.92 1036.85 329.10 910.48 465.99 1060.73 500.38
00002036 00000108 735.77 75.83 383.65 554.08 901.51 267.06 1081.22 309.94 1043.94 329.13 918.47 466.27 1066.71 500.10
00002037 00000109 735.91 75.89 383.32 554.12 901.50 267.17 1080.97 309.99 1043.69 329.28 918.31 466.21 1066.50 499.97
00002038 00000110 740.39 73.57 382.92 549.83 906.90 264.61 1087.66 308.01 1049.43 326.87 925.34 464.99 1071.35 499.49
00002039 00000111 744.52 73.62 383.71 553.50 908.68 263.07 1088.77 304.65 1050.71 323.11 928.45 465.07 1075.63 498.10
00002040 00000112 748.43 77.96 392.74 552.86 912.05 263.12 1087.94 310.08 1046.76 327.63 938.35 458.02 1078.62 494.44
00002041 00000113 749.99 77.28 396.29 548.39 919.23 263.78 1095.92 312.51 1055.02 326.07 945.41 455.98 1085.43 493.74
00002042 00000114 749.72 77.23 396.51 548.28 919.13 264.03 1095.90 312.68 1054.70 326.25 945.35 455.97 1085.32 493.63
00002043 00000115 753.52 77.93 400.30 543.35 927.44 264.57 1103.27 314.28 1067.61 323.62 959.01 456.24 1098.00 494.77
00002044 00000116 759.61 79.06 397.97 534.74 933.59 265.02 1106.79 314.79 1073.84 321.38 966.92 454.74 1103.64 493.33
00002045 00000117 767.27 83.17 394.40 530.85 937.38 266.19 1111.08 313.91 1076.69 322.17 969.42 456.21 1107.18 493.07
00002046 00000118 771.24 86.85 392.03 531.13 938.38 269.89 1112.20 316.81 1079.18 323.72 970.01 459.71 1109.02 496.09
00002047 00000119 771.20 87.02 392.15 530.93 938.33 270.04 1112.04 316.79 1079.03 323.67 970.13 459.78 1109.00 495.98
00002048 00000120 772.87 92.09 391.26 532.50 938.89 275.50 1113.99 322.13 1079.82 326.90 968.76 464.21 1110.75 500.23
00002049 00000121 775.04 97.49 391.09 529.75 942.98 280.11 1119.65 331.10 1084.68 331.06 968.41 466.61 1113.45 506.21
00002050 00000122 774.42 102.28 391.29 530.29 943.57 284.34 1121.02 337.40 1084.29 337.26 964.31 470.07 1111.40 511.54
00002051 00000123 776.10 103.21 392.44 528.25 945.18 286.03 1123.65 338.57 1085.23 338.19 965.62 471.92 1113.07 512.93
00002052 00000124 776.26 103.20 392.21 528.20 945.04 286.09 1123.21 338.05 1084.97 338.29 965.79 471.91 1113.00 512.48
00002053 00000125 776.25 105.74 393.00 525.55 944.80 288.40 1123.35 340.51 1083.90 339.26 964.55 472.16 1112.70 512.79
00002054 00000126 777.20 107.28 392.98 521.34 945.74 289.63 1123.41 340.89 1083.92 340.99 964.84 472.15 1111.82 512.13
00002055 00000127 777.60 107.58 392.82 520.83 946.02 289.94 1124.36 341.95 1083.98 340.35 964.83 472.15 1112.42 512.67
00002056 00000128 777.47 109.66 394.09 518.79 946.45 290.43 1125.57 343.07 1084.26 341.54 963.64 472.37 1112.00 513.29
00002057 00000129 777.83 109.32 393.74 519.04 946.64 290.63 1125.42 343.19 1084.06 341.48 963.85 472.17 1111.76 513.05
00002058 00000130 776.86 110.31 394.28 519.67 945.32 290.39 1124.02 343.00 1082.79 341.55 962.23 472.37 1110.63 513.30
00002059 00000131 774.85 108.35 396.01 521.55 943.66 290.26 1123.20 344.14 1081.33 339.28 960.81 471.88 1110.05 513.98
00002060 00000132 771.05 105.73 393.41 515.82 937.01 287.70 1117.27 339.90 1074.54 333.93 959.27 467.21 1108.38 507.82
00002061 00000133 762.60 96.70 395.74 520.92 930.63 279.06 1112.63 334.23 1069.83 326.54 953.45 458.72 1103.75 501.81
00002062 00000134 762.65 96.92 395.61 520.58 930.73 279.13 1112.59 334.20 1069.77 326.77 953.39 458.77 1103.60 501.82
00002063 00000135 756.62 89.97 396.24 523.59 926.20 272.79 1107.16 329.37 1061.31 325.99 946.94 453.47 1094.54 498.25
00002064 00000136 751.34 86.91 397.59 522.65 917.94 269.82 1100.21 323.40 1050.93 324.56 939.47 450.60 1087.28 493.04
00002065 00000137 747.20 85.47 395.69 520.09 911.08 267.35 1091.30 319.35 1042.28 324.54 932.06 447.36 1077.02 488.50
00002066 00000138 747.73 83.00 381.06 518.78 900.93 266.62 1089.14 309.75 1036.40 319.34 920.40 455.56 1075.13 490.11
00002067 00000139 747.72 83.32 381.00 518.50 900.92 266.65 1089.22 309.81 1036.42 319.45 920.25 455.55 1075.04 490.15
00002068 00000140 743.11 83.15 381.25 515.94 896.44 265.84 1085.69 310.23 1033.17 320.44 915.58 453.64 1071.86 489.11
00002069 00000141 737.85 81.58 382.91 520.44 892.37 265.22 1080.12 310.75 1028.66 319.26 910.92 451.32 1067.52 487.51
00002070 00000142 734.90 79.62 383.64 520.84 889.70 264.37 1078.42 310.82 1025.85 319.04 907.64 450.32 1065.25 487.27
00002071 00000143 732.72 80.18 382.67 523.95 888.02 264.79 1075.53 310.74 1023.91 319.39 904.87 450.67 1062.57 487.41
00002072 00000144 732.38 80.45 383.25 524.03 887.47 264.82 1075.15 310.57 1023.05 318.43 904.51 450.73 1062.67 487.29
00002073 00000145 730.48 78.86 383.49 524.96 886.37 265.03 1073.52 310.91 1022.55 319.52 904.93 453.02 1060.47 489.42
00002074 00000146 730.18 79.67 383.35 532.07 885.49 266.17 1073.21 312.82 1023.61 320.66 904.46 458.99 1058.92 495.63
00002075 00000147 731.04 83.19 383.29 536.36 887.30 265.26 1068.28 309.39 1025.55 319.99 907.82 461.77 1055.60 496.25
00002076 00000148 730.42 83.73 385.72 541.86 886.87 266.55 1065.60 308.60 1024.12 320.02 907.19 462.55 1055.22 495.49
00002077 00000149 730.57 84.26 385.60 540.91 886.80 266.49 1065.48 308.50 1024.10 319.84 907.27 462.58 1055.13 495.47
CROP_BBOX: 369 0 1619 1080
