Video ID: 	yLf6rVvUGsc
H: 	1080
W: 	1920
FPS: 	25.0

FRAME INDEX X0 Y0 W H [Landmarks (5 Points)]

00008691 00000000 432.69 127.79 447.92 628.50 591.58 375.98 779.07 331.10 753.61 470.45 665.35 607.14 825.37 566.85
00008692 00000001 435.31 125.77 446.91 629.21 593.77 374.39 781.43 329.88 754.03 470.89 669.37 606.87 825.95 566.83
00008693 00000002 436.58 126.81 446.62 628.44 595.45 373.88 783.16 331.06 754.91 473.48 672.47 608.97 825.97 570.46
00008694 00000003 439.36 129.36 445.73 630.76 597.40 378.53 784.71 337.03 756.33 478.13 674.83 614.61 825.64 577.57
00008695 00000004 442.51 134.04 445.16 627.09 602.10 386.89 788.93 346.30 758.72 483.80 679.70 618.46 826.31 582.63
00008696 00000005 449.41 133.95 442.04 626.20 607.10 392.35 793.90 351.43 760.82 487.43 685.57 620.35 829.38 584.35
00008697 00000006 457.91 136.66 438.63 621.26 612.04 386.67 800.37 344.96 764.66 487.11 689.37 620.80 833.03 583.98
00008698 00000007 466.21 136.87 435.95 614.12 617.12 386.90 807.34 343.66 770.19 483.83 694.20 617.55 840.78 579.05
00008699 00000008 471.68 133.41 434.46 613.34 624.12 388.67 815.49 345.35 779.10 482.29 699.28 615.86 849.23 577.19
00008700 00000009 472.87 133.61 435.17 612.01 627.42 391.09 818.85 347.01 784.18 483.37 701.26 614.86 853.77 575.61
00008701 00000010 471.90 136.22 436.68 608.79 627.72 392.84 816.00 347.24 784.05 482.05 703.46 613.76 853.45 573.20
00008702 00000011 473.17 134.81 435.99 606.97 627.62 391.27 813.50 342.77 782.65 478.50 706.15 611.28 854.04 568.12
00008703 00000012 474.93 125.91 435.86 605.30 627.10 389.95 812.24 331.62 784.28 471.04 711.13 606.03 859.35 554.17
00008704 00000013 473.48 117.83 438.66 602.05 626.56 384.50 812.59 321.56 786.11 462.14 711.15 597.52 862.77 541.69
00008705 00000014 468.86 111.61 442.91 601.43 623.57 381.76 808.44 316.62 783.77 454.68 711.08 593.89 861.34 535.91
00008706 00000015 471.08 114.40 442.01 593.91 627.68 382.66 812.15 316.13 789.30 454.36 715.61 593.99 863.20 535.10
00008707 00000016 472.92 115.17 440.48 592.49 628.91 382.91 812.74 316.29 790.53 452.95 718.59 593.90 865.12 534.81
00008708 00000017 466.43 106.90 442.30 600.78 620.34 376.28 809.44 317.75 780.66 458.65 709.74 588.98 860.82 538.81
00008709 00000018 463.27 107.60 442.43 599.40 616.37 375.86 804.72 317.13 775.89 460.39 707.26 589.36 856.87 539.17
00008710 00000019 464.32 111.40 440.85 598.48 617.98 378.12 799.17 311.09 775.32 449.70 710.44 593.72 854.45 533.74
00008711 DELETE   456.63 105.03 440.88 603.60 607.30 373.98 791.84 316.53 762.31 457.24 697.85 587.67 844.56 539.06
00008712 00000021 451.94 100.17 445.61 607.52 602.27 373.13 787.17 314.63 755.24 453.01 690.65 582.60 840.41 533.36
00008713 00000022 451.85 99.88 445.74 607.96 599.84 367.83 786.05 310.30 751.79 448.72 683.88 576.61 839.58 528.33
00008714 00000023 452.65 97.18 443.58 607.74 597.88 361.18 785.21 305.96 749.45 445.77 677.23 570.19 836.74 523.67
00008715 00000024 448.75 92.16 443.15 615.61 592.44 355.17 781.79 298.85 749.64 441.41 670.73 567.23 835.01 519.53
00008716 00000025 446.32 92.30 440.88 614.24 589.48 360.18 777.88 302.76 746.11 440.16 664.22 566.79 829.85 519.08
00008717 00000026 441.50 92.75 443.57 618.45 587.04 360.88 776.64 303.80 745.38 440.61 657.22 566.33 827.25 519.63
00008718 00000027 439.71 90.03 441.91 617.61 584.55 359.32 773.96 302.32 742.51 438.74 652.33 561.54 825.82 514.92
00008719 00000028 436.30 86.49 444.86 612.88 580.66 352.20 770.86 293.80 736.97 426.45 652.47 552.90 827.05 505.00
00008720 00000029 434.13 80.10 448.21 610.17 580.66 347.52 769.21 287.71 736.19 417.74 651.64 544.57 826.07 495.39
00008721 00000030 433.66 75.87 448.15 611.85 580.59 343.39 766.96 281.68 737.49 410.67 651.73 540.37 825.97 489.32
00008722 00000031 430.17 72.39 450.13 611.71 577.16 339.88 764.62 277.63 734.24 407.10 648.59 537.66 824.57 485.96
00008723 00000032 427.24 69.70 448.83 610.53 575.85 338.06 761.59 273.48 733.74 402.86 649.57 536.86 823.04 483.30
00008724 00000033 425.76 66.26 446.65 609.03 578.44 342.99 760.44 277.99 734.07 400.88 654.05 537.53 818.89 484.38
00008725 00000034 424.55 64.96 446.64 610.77 578.79 341.17 758.96 279.44 732.78 398.94 659.68 539.74 817.03 489.21
00008726 DELETE   429.67 63.55 445.20 612.71 582.26 333.46 762.86 272.77 737.12 395.74 665.58 539.48 820.26 489.00
00008727 00000036 432.76 62.52 441.87 614.99 583.41 326.67 766.17 269.05 739.74 397.49 666.79 538.29 823.87 489.31
00008728 00000037 429.90 61.96 443.14 612.14 581.51 326.09 765.14 266.99 739.61 397.18 666.16 537.50 825.13 487.09
00008729 00000038 430.24 62.10 443.86 620.20 580.97 327.02 766.07 268.60 739.38 399.53 663.98 540.72 824.77 490.67
00008730 00000039 433.29 63.03 445.31 625.54 583.33 328.06 767.58 271.54 739.84 402.49 667.68 544.13 825.71 495.38
00008731 00000040 433.13 66.87 448.12 623.32 584.47 331.82 769.53 271.66 744.24 403.37 664.73 543.06 829.42 491.70
00008732 00000041 432.19 67.04 447.92 620.67 583.41 334.17 769.78 272.36 744.07 404.31 665.18 544.04 829.58 491.40
00008733 00000042 432.99 67.84 449.37 618.23 584.56 336.67 772.00 272.80 746.23 406.88 665.89 543.79 831.26 489.61
00008734 00000043 434.03 69.07 450.21 616.75 586.54 337.30 775.05 273.57 749.33 408.41 667.35 543.99 833.33 490.22
00008735 00000044 432.95 69.97 452.34 615.40 585.56 337.63 774.21 271.67 749.39 407.16 666.73 543.49 834.46 487.85
00008736 00000045 436.09 68.31 450.55 619.58 588.87 339.36 775.94 273.22 752.20 408.97 668.78 545.03 835.63 489.39
00008737 00000046 437.21 73.23 450.31 614.67 590.45 341.52 778.15 276.49 754.22 412.54 668.76 544.83 837.18 490.37
00008738 00000047 436.72 78.07 450.47 610.03 590.22 342.34 778.69 277.80 755.22 417.73 666.44 544.36 837.44 490.23
00008739 00000048 440.40 79.33 448.00 612.65 591.84 345.87 780.11 280.53 756.99 421.99 665.80 546.57 838.98 491.69
00008740 00000049 442.38 83.50 446.89 610.41 592.78 348.63 784.16 284.45 758.44 434.05 668.34 552.94 840.60 498.72
00008741 00000050 442.23 89.50 446.01 609.78 592.30 353.42 783.92 289.40 759.39 441.67 663.84 557.65 839.80 504.22
00008742 00000051 443.85 92.86 444.36 612.60 593.17 359.73 785.18 295.36 761.17 448.99 663.57 564.38 842.04 510.81
00008743 00000052 444.26 96.79 442.37 614.66 593.26 365.00 786.10 301.16 761.49 457.66 662.14 570.99 841.96 518.19
00008744 00000053 444.04 98.92 442.18 614.76 592.55 366.73 785.80 302.20 761.71 460.67 660.63 573.85 841.31 520.58
00008745 00000054 441.51 99.43 442.76 612.86 591.88 367.95 785.08 303.37 761.31 461.08 658.37 572.69 839.98 519.51
00008746 00000055 438.21 98.95 442.89 612.38 589.51 367.28 781.27 302.18 759.31 458.97 658.11 571.90 837.53 518.08
00008747 00000056 435.24 96.88 442.71 619.66 585.81 365.15 775.87 301.22 754.70 455.83 656.38 573.48 832.88 520.33
00008748 00000057 433.52 96.32 440.99 628.04 582.72 364.25 771.77 302.05 751.17 454.54 652.93 576.52 828.20 525.07
00008749 00000058 430.37 95.71 443.00 630.61 578.91 362.18 767.83 303.78 744.69 453.82 651.71 578.49 824.73 530.17
00008750 00000059 428.65 94.16 440.96 628.52 577.96 362.53 769.99 308.98 740.58 458.42 651.33 581.00 820.31 536.43
00008751 00000060 426.63 91.12 441.21 620.66 576.06 359.36 768.58 307.88 735.43 452.41 653.87 575.56 820.11 532.16
00008752 00000061 425.72 88.45 441.60 623.73 575.78 356.83 765.06 304.44 735.34 446.63 657.99 574.91 819.96 530.98
00008753 00000062 426.63 88.09 442.54 630.49 577.50 351.24 762.43 302.49 736.67 442.29 663.40 578.91 815.30 538.07
00008754 00000063 427.40 87.48 442.58 621.64 580.71 350.00 764.34 301.41 738.61 440.49 667.26 573.34 816.84 532.57
00008755 00000064 424.36 87.86 443.88 615.24 578.35 351.90 762.97 299.98 737.59 440.76 667.78 572.02 818.20 528.63
00008756 00000065 422.86 88.74 444.99 611.96 576.58 354.53 760.91 300.07 734.34 443.47 667.02 571.22 818.81 525.75
00008757 00000066 420.91 93.35 447.84 608.11 573.53 358.74 760.41 302.27 731.44 443.40 663.47 573.15 819.40 526.19
00008758 00000067 419.24 96.10 448.22 609.13 570.76 364.55 757.95 308.25 728.62 448.01 657.19 575.15 817.53 528.45
00008759 00000068 418.15 96.56 447.80 615.98 568.47 366.06 754.19 310.13 726.36 448.69 656.22 578.64 816.92 532.08
00008760 00000069 416.67 106.93 447.32 614.74 566.30 368.41 752.39 312.84 726.55 448.52 655.83 583.40 816.69 537.07
00008761 00000070 414.87 105.02 447.93 620.47 563.78 370.82 750.67 315.65 723.76 452.01 652.84 585.90 814.46 539.68
00008762 00000071 412.82 104.26 447.30 622.55 562.12 374.25 750.08 318.50 723.24 456.02 649.65 586.61 813.86 539.98
00008763 00000072 402.91 119.29 452.95 606.41 558.54 379.21 751.52 312.62 726.45 457.93 642.74 594.13 808.26 535.35
00008764 00000073 401.14 122.82 453.15 607.09 557.61 380.65 750.04 312.92 725.64 460.20 642.60 597.01 808.08 537.24
00008765 00000074 400.49 122.90 453.41 605.25 556.49 380.89 748.95 311.28 725.18 459.81 641.96 595.90 808.09 534.57
00008766 00000075 397.82 113.79 452.41 610.17 554.82 377.30 746.22 306.87 723.29 456.55 638.69 590.51 804.85 528.38
00008767 00000076 397.98 114.73 451.79 606.78 553.95 376.70 744.47 303.71 723.03 455.45 638.16 589.19 805.52 525.21
00008768 00000077 396.97 115.49 452.92 603.80 554.24 376.13 744.37 302.69 723.19 454.73 638.26 588.45 804.78 524.17
00008769 00000078 397.34 112.72 451.66 603.03 553.30 371.30 743.47 298.29 721.28 452.73 633.54 583.71 801.86 520.12
00008770 00000079 394.54 110.75 452.81 605.37 551.55 370.26 741.66 295.53 719.71 452.04 630.94 583.79 799.81 518.86
00008771 00000080 394.41 111.47 452.34 608.16 550.59 372.94 741.94 299.34 719.05 455.42 632.20 588.25 800.89 523.84
00008772 00000081 393.96 111.71 453.85 608.70 549.85 375.06 742.42 301.44 718.27 457.41 632.77 591.12 800.58 526.38
00008773 00000082 395.87 113.61 452.14 606.94 551.50 377.46 743.83 303.72 720.14 459.44 633.94 592.02 802.64 527.35
00008774 00000083 398.37 116.25 451.26 602.71 553.21 377.49 748.05 306.28 723.22 460.99 635.23 591.31 805.49 528.83
00008775 00000084 400.47 114.62 452.39 601.49 556.21 376.93 749.65 305.77 726.13 459.85 637.23 589.44 805.41 527.16
00008776 00000085 401.89 114.29 452.96 599.46 559.11 377.77 753.40 305.82 730.98 460.48 639.61 589.22 808.18 526.42
00008777 00000086 414.73 103.87 446.10 612.01 565.75 376.11 755.44 317.35 729.66 464.46 654.76 584.16 818.92 534.56
00008778 00000087 419.72 105.22 444.81 609.21 573.17 376.07 760.68 317.06 735.85 465.29 662.47 586.22 821.28 536.66
00008779 00000088 421.88 103.30 447.32 612.48 579.20 375.60 765.24 315.68 743.24 467.42 673.59 591.14 825.28 541.06
00008780 00000089 424.77 104.81 445.58 609.82 582.79 376.01 768.76 315.78 746.25 470.21 678.96 592.34 827.89 542.20
00008781 00000090 428.67 107.36 445.23 604.27 586.41 374.61 772.82 315.78 749.31 469.99 683.30 592.14 830.20 543.06
00008782 00000091 432.75 106.67 444.93 602.52 588.42 370.42 774.48 312.53 750.73 464.72 688.46 591.69 831.76 543.12
00008783 00000092 431.08 102.45 444.80 608.05 587.19 364.03 771.09 310.30 747.27 456.98 685.58 588.77 826.77 543.80
00008784 00000093 428.46 96.87 449.96 625.18 584.07 360.94 767.35 304.61 743.28 451.92 678.64 588.32 826.22 540.90
00008785 00000094 428.43 99.99 447.68 621.00 581.44 362.76 767.31 306.26 743.38 453.66 669.37 585.43 824.54 537.78
00008786 00000095 429.05 100.22 447.24 617.06 582.03 363.80 769.04 306.34 743.47 454.92 667.26 582.87 825.51 534.53
00008787 00000096 429.29 99.28 447.40 617.26 582.80 360.96 769.57 305.07 743.45 451.87 669.33 581.08 825.62 534.08
00008788 00000097 430.86 98.44 446.43 616.87 586.24 360.01 770.05 304.18 745.46 449.43 674.26 580.77 826.40 533.95
00008789 00000098 434.74 98.18 448.07 622.40 590.35 358.94 771.45 301.85 748.93 447.91 683.83 585.41 831.72 537.44
00008790 00000099 437.00 92.69 449.96 628.51 593.87 359.39 776.04 303.21 751.65 446.99 686.93 586.46 834.46 539.36
00008791 00000100 439.23 95.02 449.08 622.09 594.18 361.45 778.83 304.49 752.91 450.80 686.12 586.27 835.19 538.54
00008792 00000101 441.05 92.99 448.25 624.08 594.71 361.87 781.16 305.37 754.36 453.17 685.97 586.65 836.09 539.08
00008793 00000102 441.59 97.32 449.08 623.94 595.30 367.64 785.08 308.98 755.53 460.74 685.21 592.68 837.68 543.38
00008794 00000103 442.73 97.76 448.08 628.75 595.74 372.30 787.04 312.25 757.31 466.62 685.43 597.37 839.64 546.69
00008795 00000104 440.98 103.70 448.44 629.55 595.20 377.48 787.06 316.17 758.01 471.86 684.17 602.26 839.59 550.68
00008796 00000105 443.01 111.64 449.17 629.96 601.33 373.18 786.96 313.87 761.30 460.93 686.60 602.21 835.89 549.13
00008797 00000106 442.64 103.76 446.08 632.01 595.34 376.46 786.23 315.05 758.25 470.06 680.59 599.83 838.57 548.08
00008798 00000107 444.28 100.58 443.57 625.41 596.16 373.04 786.90 313.05 757.45 467.93 677.77 592.09 836.66 541.54
00008799 00000108 445.99 101.41 443.26 620.68 596.74 374.52 787.71 312.71 758.23 468.23 678.46 590.64 838.54 538.46
00008800 00000109 447.54 102.15 441.42 615.64 598.39 375.43 789.00 312.56 759.74 468.01 678.28 587.86 838.90 534.90
00008801 00000110 448.75 101.40 439.96 613.00 597.66 373.18 788.03 309.35 760.69 465.43 674.72 582.24 839.74 528.64
00008802 00000111 450.19 101.23 440.10 612.93 597.54 373.22 788.35 307.42 761.56 465.79 673.05 580.68 842.56 525.63
00008803 00000112 451.20 104.14 439.91 609.70 598.04 375.63 788.46 309.05 761.75 466.42 672.68 580.66 842.86 525.13
00008804 00000113 451.29 102.15 441.06 608.77 598.43 372.46 788.65 307.06 761.03 463.80 671.18 576.49 842.80 521.96
00008805 00000114 452.90 101.34 439.35 607.58 599.04 369.45 787.79 304.34 761.64 459.06 671.97 571.94 844.61 517.52
00008806 00000115 452.91 100.25 439.55 605.45 599.43 365.40 787.34 298.84 762.93 454.54 672.28 566.59 846.31 511.00
00008807 00000116 453.59 98.60 440.31 606.48 600.84 364.46 788.62 297.72 764.09 452.97 674.19 565.87 847.96 510.00
00008808 00000117 453.80 100.52 440.02 607.06 601.44 365.63 790.01 298.26 765.79 454.91 673.48 567.60 848.85 511.31
00008809 00000118 454.94 103.11 438.56 606.35 602.22 369.71 791.27 303.47 765.25 459.14 672.67 570.86 848.44 515.67
00008810 00000119 456.25 107.37 436.77 605.97 602.82 378.33 791.33 310.78 765.74 467.21 670.32 576.31 847.36 520.28
00008811 00000120 450.20 116.79 447.09 606.51 603.63 379.45 789.36 306.84 767.06 461.78 670.99 582.34 844.90 519.99
00008812 00000121 448.07 118.79 447.52 606.42 601.04 379.14 787.71 306.50 766.45 462.30 666.34 582.39 844.02 520.35
00008813 00000122 446.42 121.11 448.09 605.80 599.32 380.93 785.61 308.44 764.66 464.68 664.68 584.31 842.87 522.48
00008814 00000123 442.98 121.91 448.18 609.12 597.35 378.29 782.41 307.65 762.98 464.28 660.97 583.67 838.77 523.65
00008815 00000124 437.83 119.05 449.52 614.15 594.28 373.65 776.06 303.49 761.13 458.51 660.00 583.55 834.21 523.95
00008816 00000125 434.10 116.52 450.58 615.29 591.57 369.72 772.58 298.56 758.06 453.79 657.20 579.31 832.17 518.89
00008817 00000126 427.30 117.41 454.08 612.42 584.55 368.53 766.44 300.04 748.95 450.98 653.80 578.92 829.02 520.29
00008818 00000127 424.24 116.50 450.98 615.84 578.46 368.26 758.82 301.08 741.51 448.10 645.80 581.31 820.64 523.53
00008819 00000128 425.87 108.46 439.45 616.86 564.71 372.52 749.01 308.91 727.22 453.93 644.54 579.87 817.45 527.28
00008820 00000129 419.54 102.06 439.39 621.09 559.12 370.14 742.95 307.57 720.65 451.84 637.35 576.76 812.97 524.60
00008821 00000130 416.14 99.74 440.49 620.46 555.73 366.48 738.62 303.79 715.72 450.55 631.94 572.76 809.08 520.36
00008822 00000131 407.64 115.90 443.02 603.73 552.34 373.39 738.42 294.14 718.55 453.45 623.50 575.25 802.38 507.28
00008823 00000132 402.65 115.17 445.35 611.19 549.16 370.36 732.86 289.70 713.85 449.47 620.07 573.79 798.82 504.36
00008824 00000133 400.24 110.54 446.59 617.48 546.81 366.60 729.76 286.15 710.51 446.90 616.54 570.99 795.67 501.90
00008825 00000134 399.36 110.26 445.97 623.87 543.84 363.86 724.82 281.30 708.45 444.85 612.52 570.10 792.57 499.51
00008826 00000135 395.45 109.15 447.25 614.27 543.78 364.33 724.40 282.48 709.32 444.73 613.37 568.48 789.73 498.46
00008827 00000136 394.23 104.92 448.27 597.90 538.35 361.94 730.41 291.50 702.49 449.39 616.29 563.76 792.90 504.53
00008828 00000137 395.46 107.86 447.29 589.77 539.85 367.19 730.72 293.72 704.11 453.14 626.80 568.40 794.61 506.11
00008829 00000138 397.50 108.71 444.46 587.77 544.55 364.42 729.98 296.35 703.44 448.99 638.16 573.31 788.54 514.79
00008830 00000139 398.80 107.83 442.47 593.17 552.10 367.91 722.28 294.92 708.42 436.21 647.05 578.85 783.94 514.81
00008831 00000140 401.87 106.68 441.36 597.68 553.27 364.84 724.94 290.67 710.10 432.83 645.78 577.45 785.86 512.55
00008832 00000141 407.93 105.01 438.14 586.06 556.52 359.33 733.03 287.61 715.71 428.48 640.75 566.91 788.39 504.68
00008833 00000142 410.58 101.37 438.72 589.33 558.99 358.40 736.81 285.32 721.42 425.79 640.08 564.02 792.05 500.99
00008834 00000143 412.67 102.26 438.85 592.31 560.57 357.77 738.82 282.82 724.28 421.81 641.06 561.53 796.08 496.99
00008835 00000144 422.13 93.58 432.35 602.48 560.39 346.81 735.07 285.69 716.87 415.06 650.85 555.14 809.84 503.45
00008836 00000145 410.60 101.70 441.56 594.54 553.28 350.41 737.70 283.78 715.35 418.71 639.99 554.96 801.85 497.42
00008837 00000146 407.25 101.76 441.48 589.58 550.84 349.75 732.16 280.66 711.02 417.46 640.66 552.14 798.03 492.50
00008838 00000147 401.14 99.83 445.42 589.81 547.14 348.68 726.53 278.23 707.07 413.63 639.66 550.16 794.86 489.32
00008839 00000148 395.01 93.06 448.47 593.03 542.92 346.89 721.11 276.85 701.58 410.78 641.46 551.96 790.16 491.21
00008840 00000149 392.72 89.95 445.85 594.52 542.10 348.70 717.76 279.44 698.54 413.18 642.62 554.77 784.94 494.94
00008841 00000150 391.42 88.96 446.94 599.49 540.53 348.81 715.54 281.59 696.83 412.17 642.27 557.54 784.00 499.31
00008842 00000151 390.26 90.90 444.47 599.59 538.08 350.21 714.79 284.74 694.65 416.06 639.34 561.02 781.29 504.34
00008843 00000152 390.23 96.05 441.74 597.06 536.04 349.24 712.71 285.56 692.46 419.22 635.55 562.57 778.41 507.51
00008844 00000153 387.98 97.74 441.58 600.90 531.91 350.05 710.09 287.02 688.75 420.62 628.93 564.50 775.59 510.11
00008845 00000154 386.45 95.90 442.80 601.58 529.01 346.68 706.68 284.29 685.73 411.95 626.55 560.40 774.70 506.79
00008846 00000155 384.95 91.17 444.98 604.79 528.44 344.28 704.21 282.08 684.26 407.48 626.59 558.32 773.05 505.03
00008847 00000156 383.86 90.87 443.99 601.83 527.56 341.04 704.12 279.73 683.69 406.13 622.67 553.99 771.10 501.57
00008848 00000157 384.67 90.99 442.28 595.52 525.52 339.73 703.65 275.50 681.82 405.64 617.54 547.36 771.73 492.19
00008849 00000158 382.24 87.54 441.66 597.98 522.73 338.01 701.99 270.90 681.65 404.47 608.91 540.96 772.73 483.46
00008850 00000159 379.66 84.27 443.64 602.77 520.35 338.43 699.88 268.76 681.47 402.65 606.67 541.50 772.31 482.20
00008851 00000160 378.82 85.43 443.95 597.88 518.67 335.25 698.00 262.21 682.92 400.31 605.06 539.20 773.25 477.14
00008852 00000161 380.10 81.70 442.00 596.81 519.79 332.27 699.47 259.12 683.51 399.36 605.20 535.37 773.37 473.17
00008853 00000162 378.86 81.87 442.23 596.17 519.53 334.74 698.95 260.92 684.02 400.92 603.61 535.17 773.66 472.59
00008854 00000163 378.69 81.20 440.97 596.11 519.80 335.79 698.94 260.69 684.80 400.23 602.52 533.87 773.90 470.41
00008855 00000164 376.37 78.97 442.49 596.51 519.36 336.90 697.69 261.21 683.92 401.13 599.09 531.23 772.24 467.56
00008856 00000165 374.50 81.74 445.08 593.84 518.87 340.59 698.70 263.45 684.55 403.43 597.78 531.81 774.13 467.20
00008857 00000166 374.81 85.35 444.46 591.24 518.42 342.33 698.93 265.64 684.00 405.81 596.21 532.22 774.09 468.13
00008858 00000167 374.50 84.53 444.35 592.30 518.59 343.50 699.01 265.75 684.57 405.84 595.35 532.00 774.47 467.12
00008859 00000168 374.63 86.96 442.66 588.78 518.18 342.44 698.88 268.06 683.14 406.51 595.31 531.64 773.02 469.31
00008860 00000169 374.82 87.69 442.25 587.87 518.75 343.50 700.33 270.19 683.47 407.42 594.47 531.42 773.61 470.02
00008861 00000170 375.69 87.78 441.55 588.48 519.53 341.74 699.41 269.64 682.67 405.79 596.02 531.19 771.80 470.59
00008862 00000171 375.39 85.94 442.56 585.88 519.71 335.84 699.03 263.73 683.19 401.18 598.25 528.06 770.85 467.16
