Video ID: 	G_5MJ6TfPCI
H: 	1080
W: 	1920
FPS: 	25.0

FRAME INDEX X0 Y0 W H [Landmarks (5 Points)]

00077430 00000000 976.15 226.22 427.42 640.15 1088.15 468.76 1283.18 461.13 1198.54 594.59 1125.96 714.50 1279.55 706.73
00077431 00000001 972.57 229.42 429.99 637.46 1084.71 470.79 1281.32 462.90 1195.27 596.38 1124.27 716.62 1277.54 708.86
00077432 00000002 971.98 233.05 431.38 634.02 1084.25 473.98 1280.85 466.44 1194.39 598.86 1124.27 718.32 1277.67 710.96
00077433 00000003 969.45 234.23 432.32 631.51 1082.63 476.50 1279.09 469.57 1192.71 600.64 1123.38 719.47 1275.36 713.04
00077434 00000004 972.12 236.95 428.94 634.16 1083.08 481.77 1277.95 474.77 1191.32 606.82 1122.79 723.76 1274.43 717.27
00077435 00000005 968.45 243.23 431.41 632.38 1082.12 486.60 1277.21 479.60 1192.18 612.60 1123.98 728.27 1272.16 722.31
00077436 DELETE   968.58 268.11 421.02 652.00 1080.43 512.39 1285.90 503.44 1196.02 632.85 1119.96 764.16 1272.14 755.08
00077437 00000007 965.96 301.01 431.89 636.69 1078.76 544.25 1276.07 535.35 1191.63 667.33 1119.56 789.45 1271.92 781.48
00077438 00000008 969.12 310.19 427.07 634.33 1078.41 555.77 1273.07 548.79 1187.87 675.32 1115.74 795.24 1270.14 789.16
00077439 00000009 968.09 314.32 425.44 639.85 1077.88 561.18 1268.25 553.73 1187.25 681.16 1116.31 799.93 1267.63 793.77
00077440 00000010 967.11 327.07 419.00 647.68 1071.19 569.98 1272.20 559.88 1190.23 694.18 1109.56 821.26 1264.50 811.85
00077441 00000011 968.12 335.87 418.91 640.45 1071.56 579.65 1273.50 569.61 1188.95 700.41 1110.00 824.60 1266.42 815.22
00077442 00000012 967.43 334.89 419.71 643.68 1069.86 580.54 1272.24 570.22 1185.94 701.78 1107.71 825.33 1266.71 815.57
00077443 00000013 966.89 336.34 419.94 641.51 1069.22 580.72 1272.00 569.85 1185.92 701.86 1108.01 826.17 1266.06 815.98
00077444 00000014 965.31 323.98 427.78 642.91 1074.84 571.65 1268.53 561.52 1184.08 691.62 1115.40 813.81 1265.67 805.87
00077445 00000015 965.47 319.17 425.63 644.08 1074.26 566.08 1265.39 556.33 1183.06 684.63 1113.73 806.64 1264.88 798.87
00077446 00000016 965.61 314.44 425.67 638.92 1072.36 560.65 1264.80 551.27 1180.68 677.88 1112.00 799.94 1264.12 792.28
00077447 00000017 960.71 307.49 430.05 640.40 1067.62 556.34 1264.14 545.87 1176.32 671.03 1106.29 794.96 1262.61 786.63
00077448 00000018 958.85 305.15 432.32 639.97 1066.38 552.81 1264.70 543.02 1175.45 668.90 1104.66 793.25 1261.15 785.40
00077449 00000019 956.46 304.35 432.86 642.02 1063.69 553.55 1263.16 542.99 1173.52 670.51 1102.51 794.07 1260.61 785.66
00077450 00000020 953.55 309.29 430.96 645.32 1060.87 559.98 1258.21 549.00 1170.45 675.47 1098.84 799.23 1256.50 790.84
00077451 00000021 953.27 312.72 428.86 643.94 1060.25 561.74 1254.12 550.93 1168.39 678.79 1099.40 800.73 1251.28 792.73
00077452 00000022 951.29 305.68 432.10 642.52 1055.37 552.17 1254.96 541.08 1164.24 669.61 1093.28 794.44 1250.07 786.08
00077453 00000023 948.68 297.57 434.75 643.58 1053.49 548.16 1254.17 536.30 1161.57 666.15 1092.24 789.66 1247.08 780.72
00077454 00000024 949.91 292.02 434.42 646.23 1055.17 543.79 1254.45 530.92 1162.64 663.15 1094.38 786.26 1246.29 776.24
00077455 00000025 951.34 292.69 434.90 644.30 1056.22 542.23 1256.62 528.97 1163.78 662.74 1096.12 786.22 1248.62 775.73
00077456 00000026 954.51 288.12 432.14 645.52 1057.43 537.69 1257.98 525.35 1163.55 660.26 1094.98 782.95 1247.95 773.11
00077457 00000027 958.42 286.95 428.46 641.32 1059.74 533.61 1261.36 522.49 1164.99 656.20 1096.24 778.23 1253.04 768.74
00077458 00000028 958.26 283.62 429.61 632.96 1061.11 527.91 1266.94 515.49 1169.19 645.52 1098.89 770.20 1259.14 758.96
00077459 00000029 963.00 279.84 426.23 622.93 1063.84 519.12 1269.05 505.77 1175.48 633.59 1103.18 759.21 1262.93 747.11
00077460 00000030 966.66 265.93 425.99 631.66 1066.74 508.50 1271.01 495.98 1179.83 626.22 1107.89 751.14 1266.42 739.66
00077461 00000031 972.90 257.98 424.94 630.75 1073.00 495.20 1271.64 485.34 1182.59 617.58 1114.04 740.40 1267.28 731.26
00077462 00000032 977.69 253.80 421.56 626.84 1076.90 491.66 1274.00 482.21 1184.57 612.90 1116.64 734.69 1268.39 725.77
00077463 00000033 980.29 250.44 423.11 630.88 1079.38 490.66 1278.57 481.27 1187.52 612.27 1118.68 735.42 1272.46 726.27
00077464 00000034 971.03 231.71 441.37 633.70 1081.53 475.62 1278.43 464.59 1183.80 598.41 1122.65 715.05 1271.56 705.76
00077465 00000035 979.79 214.45 429.46 643.54 1082.43 457.74 1276.86 445.56 1184.32 581.10 1122.79 705.24 1269.99 693.85
00077466 00000036 980.63 213.13 430.13 647.00 1083.53 455.53 1278.36 443.40 1185.30 578.71 1125.04 705.94 1271.17 694.42
00077467 00000037 980.19 217.53 433.63 644.29 1082.29 462.68 1279.27 448.60 1186.40 586.05 1125.39 709.91 1274.69 696.80
00077468 00000038 982.21 209.85 433.39 643.05 1083.28 455.63 1279.67 443.30 1183.35 580.81 1125.77 701.13 1273.22 689.28
00077469 00000039 984.42 205.27 433.03 648.75 1087.64 447.52 1284.21 435.85 1189.78 573.54 1129.69 698.88 1272.75 687.58
00077470 00000040 988.71 204.42 431.31 648.30 1088.77 449.78 1286.84 439.04 1187.04 575.50 1126.53 700.02 1275.05 689.40
00077471 00000041 995.98 200.16 431.44 644.95 1091.99 451.18 1293.76 443.10 1187.39 581.57 1126.42 698.09 1279.21 689.55
00077472 00000042 999.43 197.40 430.82 637.90 1095.99 451.21 1297.94 443.08 1190.94 580.35 1130.15 693.01 1283.07 685.06
00077473 00000043 1002.42 191.69 431.09 634.99 1099.41 446.52 1303.13 439.41 1196.59 571.58 1134.72 686.33 1288.28 679.21
00077474 00000044 1002.80 184.61 433.25 635.89 1100.60 439.77 1306.13 434.34 1201.01 568.78 1135.94 677.37 1294.14 671.71
00077475 00000045 1007.30 180.28 430.43 635.73 1102.97 436.52 1307.13 429.10 1203.05 563.67 1139.93 674.44 1295.56 667.17
00077476 00000046 1011.19 176.65 428.14 642.22 1110.77 431.99 1311.51 431.07 1207.02 559.47 1139.17 666.71 1291.83 668.02
00077477 00000047 1012.80 177.79 426.46 640.38 1112.12 432.57 1312.46 431.69 1208.17 559.94 1140.93 667.73 1292.03 669.01
00077478 00000048 1018.10 176.97 421.89 639.93 1113.69 430.77 1313.38 430.94 1208.67 558.87 1141.38 667.09 1292.55 669.06
00077479 00000049 1017.13 173.59 422.88 642.90 1114.39 426.62 1315.45 428.12 1210.90 556.86 1142.43 664.27 1292.87 667.40
00077480 00000050 1016.95 171.55 424.06 644.78 1114.77 421.48 1316.40 423.24 1211.64 552.79 1141.71 661.51 1291.01 665.10
00077481 00000051 1015.12 169.99 427.21 640.43 1112.58 414.98 1314.54 415.42 1210.57 545.71 1140.92 655.31 1293.31 657.50
00077482 00000052 1017.04 158.29 427.47 639.39 1109.10 408.27 1313.64 404.15 1209.43 533.34 1137.55 645.47 1299.62 643.17
00077483 00000053 1016.61 148.23 430.33 636.31 1109.35 400.23 1315.06 394.15 1211.26 528.02 1139.69 637.00 1298.99 632.93
00077484 00000054 1013.90 134.50 429.30 641.42 1112.33 392.08 1312.04 382.61 1208.49 518.24 1148.22 633.32 1297.61 623.70
00077485 00000055 1015.18 122.99 428.33 632.95 1111.44 383.62 1313.34 373.52 1209.27 506.39 1148.06 618.07 1303.23 608.55
00077486 00000056 1020.50 114.85 428.17 649.24 1117.57 378.05 1316.79 372.73 1213.26 503.77 1149.31 610.86 1304.18 607.63
00077487 00000057 1016.24 130.08 433.84 651.24 1116.72 388.30 1325.02 382.69 1219.74 521.79 1148.14 627.99 1307.15 623.86
00077488 00000058 1018.83 135.35 433.05 645.62 1116.85 388.82 1325.10 384.15 1218.78 522.79 1147.97 631.26 1304.03 627.90
00077489 00000059 1021.08 131.92 428.39 645.01 1116.64 383.73 1320.82 379.25 1214.81 515.07 1145.74 625.56 1300.31 622.24
00077490 00000060 1020.87 133.21 429.16 646.38 1117.12 386.36 1322.91 382.05 1217.06 519.29 1147.19 628.83 1302.84 625.88
00077491 00000061 1020.64 139.52 433.04 645.21 1119.20 391.81 1323.80 388.49 1219.42 525.08 1148.53 631.99 1303.40 630.02
00077492 00000062 1022.46 148.79 432.28 640.28 1120.97 398.64 1325.73 393.38 1224.41 530.25 1155.58 640.83 1307.91 637.52
00077493 00000063 1027.69 154.78 428.35 636.58 1122.67 404.19 1325.43 397.67 1224.41 535.29 1158.18 647.16 1310.16 642.82
00077494 00000064 1029.42 159.17 426.42 634.46 1123.70 406.42 1326.15 400.65 1224.29 537.61 1158.14 649.34 1309.66 645.72
00077495 00000065 1028.77 154.99 430.44 634.10 1124.51 402.03 1328.11 395.44 1226.06 532.29 1160.49 645.54 1312.26 640.99
00077496 00000066 1028.36 152.36 430.03 635.86 1126.00 399.44 1329.19 392.96 1229.21 530.23 1160.46 642.95 1311.73 638.56
00077497 00000067 1032.01 157.13 429.66 634.77 1129.07 402.76 1330.29 395.86 1229.36 532.87 1164.65 646.76 1316.37 641.93
00077498 00000068 1033.14 160.32 429.70 631.62 1132.31 406.65 1332.45 400.72 1233.04 536.24 1168.95 648.45 1321.19 644.12
00077499 00000069 1032.86 152.99 431.70 635.92 1136.11 396.99 1335.97 390.24 1240.55 526.05 1172.55 641.33 1322.18 636.22
00077500 00000070 1036.62 154.41 429.14 634.92 1144.22 401.79 1341.21 396.54 1250.09 526.73 1177.35 641.29 1330.54 637.15
00077501 DELETE   1040.55 155.52 426.13 632.48 1153.47 404.80 1344.30 402.90 1260.01 523.37 1182.80 638.36 1335.08 636.73
00077502 00000072 1042.87 151.59 427.10 637.00 1157.66 403.15 1350.38 398.67 1268.11 524.77 1189.75 639.74 1342.13 635.62
00077503 00000073 1045.66 150.55 427.03 638.91 1160.11 400.76 1353.91 393.61 1272.93 526.42 1196.59 641.57 1347.48 634.99
00077504 00000074 1045.10 148.71 425.83 640.97 1158.99 398.73 1353.53 390.89 1273.32 526.23 1195.13 640.27 1347.96 633.10
00077505 00000075 1044.16 150.17 426.26 639.13 1157.52 397.70 1353.19 388.66 1273.29 525.89 1194.11 640.49 1348.27 632.33
00077506 00000076 1045.32 152.47 423.18 638.01 1159.91 405.23 1349.68 401.00 1271.36 528.18 1190.02 640.54 1344.16 636.60
00077507 DELETE   1046.21 150.70 417.44 642.11 1157.35 408.05 1345.88 404.36 1267.65 529.49 1185.89 642.98 1338.91 639.95
00077508 DELETE   1042.41 152.27 422.10 639.85 1154.86 403.96 1346.11 399.68 1265.77 531.06 1187.95 644.11 1335.89 640.57
00077509 00000079 1038.69 149.02 424.72 643.41 1148.98 398.70 1342.57 391.33 1261.04 532.53 1184.56 643.85 1332.80 638.07
00077510 00000080 1039.17 147.52 422.44 643.37 1149.17 391.43 1342.35 384.61 1259.60 527.52 1182.37 639.06 1329.18 633.54
00077511 00000081 1035.68 138.03 423.31 638.90 1148.27 382.03 1346.86 375.75 1262.96 515.06 1182.03 628.58 1329.06 622.99
00077512 00000082 1034.02 127.58 419.19 635.80 1149.43 369.81 1347.75 362.69 1268.59 492.90 1185.48 617.48 1329.23 611.07
00077513 00000083 1036.09 118.49 414.75 639.66 1149.96 359.60 1347.12 351.36 1272.20 482.64 1189.35 607.72 1331.53 600.43
00077514 00000084 1039.43 102.14 417.91 647.21 1159.73 362.46 1348.90 356.74 1276.45 480.49 1196.26 597.00 1340.34 593.03
00077515 00000085 1037.33 98.91 417.87 648.91 1162.08 365.76 1350.71 357.25 1281.57 479.13 1199.68 597.10 1343.36 591.04
00077516 DELETE   1036.73 99.78 421.40 651.20 1164.40 366.29 1356.94 357.42 1286.45 484.57 1202.51 600.78 1348.53 594.43
00077517 00000087 1037.38 102.42 423.14 653.10 1168.18 370.69 1363.90 363.35 1293.53 491.99 1204.56 605.38 1355.01 600.16
00077518 00000088 1041.74 109.06 422.85 649.69 1172.49 373.17 1368.96 367.47 1298.83 498.84 1207.65 608.46 1359.08 604.36
00077519 00000089 1043.42 108.85 424.43 652.98 1178.47 372.83 1374.01 367.62 1304.95 502.83 1211.97 611.24 1362.11 607.59
00077520 00000090 1043.07 108.16 425.23 644.78 1181.37 366.37 1377.72 362.08 1309.79 493.74 1213.78 604.31 1366.42 601.17
00077521 00000091 1045.11 97.86 421.96 641.84 1188.25 354.26 1381.31 351.46 1315.53 484.28 1220.11 595.12 1369.09 593.02
00077522 00000092 1041.92 86.19 427.33 643.65 1189.37 344.92 1381.63 335.83 1322.17 467.84 1226.62 585.32 1378.05 577.45
00077523 00000093 1042.99 73.88 423.86 648.59 1187.50 335.46 1381.94 325.99 1325.52 454.14 1224.97 577.13 1380.97 568.53
00077524 00000094 1042.29 66.59 426.07 653.78 1189.92 330.55 1383.19 323.95 1329.34 447.18 1226.25 570.94 1380.91 564.46
00077525 00000095 1041.69 65.05 425.57 656.81 1196.10 328.01 1384.50 323.95 1334.30 444.15 1231.06 569.98 1380.51 565.59
00077526 00000096 1037.92 66.50 427.18 658.24 1196.28 329.23 1384.85 324.56 1336.14 447.53 1232.09 573.67 1380.53 568.87
00077527 00000097 1033.01 67.49 430.17 657.63 1197.26 330.67 1385.90 325.13 1338.26 449.59 1233.98 574.23 1382.45 568.51
00077528 00000098 1031.68 67.17 429.27 658.78 1199.13 333.47 1385.51 326.01 1340.54 453.27 1236.92 577.59 1382.24 570.51
00077529 00000099 1030.71 73.00 427.00 652.87 1197.24 336.14 1382.18 326.56 1339.76 456.74 1237.53 582.24 1380.31 573.87
00077530 00000100 1028.54 75.58 424.62 652.15 1192.17 337.97 1377.99 328.96 1335.90 458.23 1231.89 584.61 1374.81 577.17
00077531 00000101 1024.05 80.79 425.75 651.81 1184.32 342.52 1374.65 333.44 1331.09 460.03 1225.78 587.36 1374.42 579.85
00077532 00000102 1023.78 80.48 425.12 652.19 1182.15 345.15 1374.67 335.93 1329.41 461.19 1222.79 587.42 1374.34 579.94
00077533 00000103 1022.43 85.49 425.26 646.97 1180.18 347.43 1374.37 337.48 1328.67 462.52 1222.02 587.40 1375.96 579.32
00077534 00000104 1023.16 88.34 424.55 643.92 1181.50 350.22 1376.37 339.39 1330.42 464.79 1222.75 588.58 1377.74 579.84
00077535 00000105 1027.26 81.85 424.21 652.17 1192.58 359.13 1384.14 349.27 1337.31 467.51 1225.02 589.33 1379.05 581.40
00077536 DELETE   1034.30 87.94 422.41 652.76 1206.25 362.77 1390.53 353.48 1351.23 468.45 1238.62 592.95 1384.00 585.40
00077537 DELETE   1042.94 90.05 422.82 653.17 1214.74 361.50 1397.75 354.37 1357.68 465.21 1250.45 592.53 1393.50 586.24
00077538 00000108 1051.86 90.23 426.10 647.42 1223.97 352.75 1416.37 348.87 1375.59 462.20 1266.65 595.34 1409.65 590.09
00077539 DELETE   1058.15 94.69 422.98 643.08 1231.72 347.49 1421.31 344.81 1383.60 455.84 1270.15 590.90 1413.96 587.60
00077540 00000110 1062.90 96.13 422.18 639.33 1238.08 345.72 1428.32 345.55 1390.59 455.83 1273.40 589.31 1418.31 588.22
00077541 00000111 1068.55 97.51 422.69 630.43 1249.53 346.15 1433.82 342.96 1398.71 455.03 1277.72 583.16 1422.66 580.31
00077542 00000112 1071.08 98.12 423.98 631.06 1256.42 344.18 1438.05 343.66 1405.24 453.11 1282.56 581.52 1426.14 581.16
00077543 00000113 1073.54 99.41 425.43 644.66 1257.39 344.54 1435.89 352.47 1397.16 457.41 1286.27 583.42 1424.14 590.44
00077544 00000114 1077.07 99.09 425.64 647.44 1262.08 347.14 1439.27 355.76 1398.34 457.60 1293.48 587.98 1426.68 595.48
00077545 00000115 1076.37 100.15 429.81 648.04 1261.41 351.81 1445.53 360.25 1399.67 462.87 1291.52 590.25 1431.87 597.38
00077546 00000116 1079.20 110.40 430.21 644.17 1261.89 361.22 1449.75 371.41 1400.93 471.95 1289.61 597.85 1429.78 606.76
00077547 00000117 1083.84 119.97 431.09 638.19 1261.90 367.58 1454.86 378.85 1405.65 483.07 1286.74 604.60 1430.97 615.02
00077548 00000118 1082.60 122.47 436.81 643.36 1263.43 371.67 1459.68 384.31 1411.64 490.34 1285.06 611.04 1433.03 622.59
00077549 00000119 1082.37 124.66 433.00 650.36 1277.10 369.86 1463.04 393.09 1420.05 496.47 1289.14 615.10 1429.74 633.17
00077550 00000120 1088.00 126.94 431.25 655.46 1287.51 374.33 1467.77 398.26 1429.83 505.30 1294.25 620.09 1431.85 639.16
00077551 00000121 1090.39 135.10 433.16 651.36 1292.87 382.59 1469.83 401.56 1436.87 508.93 1303.21 623.01 1441.82 638.30
00077552 00000122 1092.11 137.48 434.49 646.84 1296.04 385.87 1474.11 403.02 1440.28 512.20 1308.07 622.98 1448.95 636.57
00077553 00000123 1100.18 139.71 429.84 649.00 1301.01 385.29 1475.59 402.14 1443.44 510.23 1312.10 623.96 1451.97 637.46
00077554 00000124 1103.52 153.42 432.42 633.77 1302.32 381.66 1486.80 404.56 1441.43 511.25 1312.04 628.90 1447.57 646.92
00077555 00000125 1109.99 142.47 425.91 644.81 1301.06 383.29 1479.71 399.75 1447.64 507.77 1306.04 624.22 1449.85 638.27
00077556 00000126 1112.96 142.16 424.38 643.14 1302.25 383.22 1482.07 399.88 1448.93 505.80 1308.61 622.58 1453.45 636.66
00077557 00000127 1110.70 138.66 426.21 640.86 1300.18 380.68 1484.41 397.92 1449.04 500.90 1309.70 616.64 1457.53 630.56
00077558 00000128 1111.89 138.36 424.63 637.21 1300.15 378.46 1483.15 395.94 1450.28 498.09 1309.29 612.35 1457.56 626.38
00077559 00000129 1111.26 134.28 425.52 636.71 1298.74 372.06 1483.52 390.75 1449.28 491.00 1306.78 607.66 1455.43 622.91
00077560 00000130 1108.79 128.98 426.71 633.95 1296.89 365.72 1482.89 389.84 1440.62 485.36 1308.43 602.71 1450.63 621.90
00077561 00000131 1109.15 134.88 422.33 623.82 1295.06 357.80 1480.20 386.89 1432.01 475.59 1302.83 594.03 1442.90 617.56
00077562 00000132 1103.85 128.63 425.00 627.00 1293.76 349.96 1481.42 384.11 1432.26 470.50 1299.70 588.79 1442.30 615.94
00077563 00000133 1101.29 127.78 424.24 627.30 1289.81 350.27 1477.79 385.41 1428.72 468.85 1298.19 588.23 1439.50 616.15
00077564 00000134 1095.22 127.08 428.13 628.40 1288.32 352.51 1472.58 388.48 1424.12 469.24 1293.88 586.03 1433.25 614.81
00077565 00000135 1093.53 129.31 429.40 626.93 1288.92 357.96 1470.70 396.84 1424.04 468.32 1294.46 586.12 1432.81 617.34
00077566 00000136 1092.23 129.26 434.71 626.86 1287.44 367.16 1467.27 397.82 1418.04 474.51 1288.34 591.01 1426.64 618.05
00077567 00000137 1091.86 129.68 434.73 630.11 1285.03 369.69 1466.98 400.24 1416.50 475.86 1284.70 592.48 1426.73 619.35
00077568 00000138 1089.87 134.35 432.36 633.71 1282.71 366.75 1469.01 410.11 1420.69 479.72 1279.13 594.57 1426.98 630.18
00077569 00000139 1089.05 135.24 432.39 636.85 1279.97 367.72 1466.50 407.76 1417.94 484.83 1277.36 599.85 1424.82 632.82
00077570 00000140 1087.04 137.48 434.79 635.26 1278.81 368.21 1466.05 407.07 1416.48 486.97 1277.41 601.48 1424.78 633.48
00077571 00000141 1086.01 138.54 438.49 640.09 1281.40 368.77 1466.80 404.23 1419.31 491.06 1280.00 604.97 1426.50 634.08
00077572 00000142 1087.15 138.32 438.40 643.08 1280.98 369.25 1467.61 404.67 1419.40 492.53 1279.43 606.83 1426.27 635.80
00077573 00000143 1088.58 135.74 436.31 646.97 1280.97 370.91 1469.61 405.98 1421.19 495.45 1279.75 609.78 1428.68 638.29
00077574 00000144 1088.13 138.99 438.65 647.13 1281.93 373.98 1471.01 405.91 1422.00 498.55 1280.80 610.54 1433.68 636.38
00077575 00000145 1089.29 140.01 438.40 646.00 1283.50 375.57 1469.98 405.68 1422.15 498.53 1284.50 610.64 1434.25 634.93
00077576 00000146 1087.86 141.42 440.61 652.88 1282.44 379.51 1469.46 409.74 1421.76 502.52 1285.63 617.17 1435.08 641.29
00077577 00000147 1089.30 141.10 439.37 655.51 1280.68 380.16 1469.03 411.08 1419.63 505.07 1284.02 620.67 1434.32 645.38
00077578 00000148 1089.70 143.13 436.71 649.77 1284.21 380.33 1462.88 411.54 1413.60 502.26 1286.02 619.19 1421.97 644.46
00077579 00000149 1088.89 145.01 435.47 642.95 1279.47 381.43 1461.53 410.17 1409.23 506.17 1282.66 619.51 1421.92 642.82
00077580 00000150 1089.36 144.16 433.04 638.98 1272.62 383.32 1458.04 411.36 1400.20 509.50 1275.81 618.99 1420.13 641.81
00077581 00000151 1087.28 148.41 431.11 636.77 1267.15 384.68 1452.01 411.92 1390.60 514.25 1265.68 621.73 1412.79 644.26
00077582 00000152 1077.58 144.87 437.54 646.24 1261.77 384.54 1446.87 411.85 1383.98 515.48 1259.25 623.42 1409.16 645.77
00077583 00000153 1072.10 144.29 437.20 649.16 1251.23 385.94 1438.86 409.66 1373.75 512.63 1250.50 621.61 1405.84 640.98
00077584 00000154 1074.18 146.48 429.43 650.58 1242.47 397.25 1427.88 411.66 1368.47 508.28 1250.03 630.30 1399.99 641.63
00077585 DELETE   1067.69 145.10 429.58 653.46 1233.63 394.49 1416.95 412.09 1352.83 506.70 1236.27 627.90 1384.91 641.71
00077586 00000156 1058.98 144.25 435.56 653.25 1221.20 392.69 1408.24 409.64 1339.75 505.97 1223.41 625.69 1376.90 638.69
00077587 00000157 1054.48 138.95 440.00 657.37 1208.95 392.91 1395.92 411.49 1320.13 508.92 1210.99 626.17 1361.61 640.56
00077588 00000158 1053.11 139.10 439.24 656.16 1202.66 393.25 1388.71 414.15 1306.92 512.88 1199.67 626.19 1349.81 643.24
00077589 00000159 1050.31 141.32 436.43 653.23 1189.72 399.87 1380.89 419.43 1296.04 520.88 1188.58 630.08 1345.84 646.21
00077590 00000160 1047.42 145.77 434.64 649.03 1182.36 401.81 1374.10 421.43 1287.42 523.66 1181.86 630.91 1339.08 647.41
00077591 00000161 1044.72 149.16 434.64 650.05 1177.45 405.10 1370.90 422.73 1283.39 525.56 1178.69 631.43 1340.57 646.00
00077592 00000162 1044.26 153.15 430.24 649.57 1172.99 408.22 1366.90 424.81 1278.82 529.56 1177.18 635.30 1338.17 649.20
