Video ID: 	MAB0jvvMUxg
H: 	1080
W: 	1920
FPS: 	25.0

FRAME INDEX X0 Y0 W H [Landmarks (5 Points)]

00004412 00000000 616.89 114.73 385.42 534.22 779.04 323.56 937.06 327.99 898.64 392.75 813.01 497.20 945.05 500.53
00004413 00000001 612.96 113.93 386.13 530.18 773.11 321.56 931.46 321.91 894.66 389.35 811.76 495.96 942.68 496.57
00004414 00000002 613.98 117.11 383.99 527.58 769.99 324.51 927.92 322.71 890.88 392.25 811.70 498.80 940.87 497.59
00004415 00000003 618.47 122.43 379.99 526.73 771.14 333.71 929.77 331.93 890.37 406.05 811.27 509.40 940.21 507.97
00004416 00000004 619.81 122.88 384.01 538.57 773.34 346.67 931.46 341.46 890.73 424.55 812.71 524.19 943.77 519.26
00004417 DELETE   619.81 144.16 385.06 537.81 778.09 360.40 933.79 348.35 897.74 440.41 816.98 545.33 939.74 535.62
00004418 DELETE   618.82 151.66 386.30 551.49 777.01 379.03 930.85 364.71 894.86 465.17 811.97 565.12 936.41 553.99
00004419 DELETE   617.00 160.27 383.63 558.43 772.22 391.01 925.70 378.42 888.55 486.11 805.71 580.63 930.36 570.84
00004420 00000008 616.00 163.09 383.71 566.04 766.16 404.27 919.45 393.51 877.83 500.51 797.96 589.30 928.48 580.81
00004421 00000009 611.16 174.90 383.63 554.77 759.63 405.86 916.45 397.76 870.40 508.18 789.88 592.50 922.14 586.86
00004422 00000010 605.82 175.40 385.50 553.80 746.84 406.18 906.64 399.17 856.33 506.43 777.99 591.24 912.51 586.88
00004423 00000011 599.37 174.96 385.78 545.53 735.22 403.59 897.79 398.80 846.50 502.68 762.78 586.43 898.50 582.54
00004424 00000012 594.08 168.23 385.15 542.39 724.23 393.78 886.19 391.53 830.89 492.05 749.02 576.14 883.67 574.54
00004425 00000013 589.63 159.50 388.21 547.01 712.86 382.75 875.22 380.20 814.73 476.78 735.92 565.55 873.97 563.32
00004426 00000014 588.19 147.72 387.66 551.07 705.57 372.57 870.09 368.86 805.51 462.52 730.58 559.98 866.30 556.07
00004427 00000015 588.90 142.36 385.97 552.23 704.69 367.82 868.80 368.10 801.19 460.80 726.67 554.25 862.46 553.66
00004428 00000016 588.19 141.95 388.26 553.47 701.66 366.33 867.37 369.00 795.87 460.77 722.20 553.75 858.64 554.83
00004429 00000017 587.74 144.93 389.43 555.01 700.17 370.81 867.19 374.83 793.23 465.83 718.85 558.54 856.98 560.90
00004430 00000018 585.35 150.45 388.72 559.81 699.05 378.21 863.92 384.45 789.67 477.80 715.54 566.46 853.99 570.90
00004431 00000019 584.88 163.51 387.08 555.70 697.64 392.58 859.82 398.13 785.97 491.72 716.42 579.78 851.70 583.97
00004432 DELETE   584.21 176.57 385.64 557.91 694.23 406.42 856.26 408.98 780.35 509.15 714.19 592.33 850.80 594.85
00004433 00000021 577.49 192.94 389.23 547.53 685.38 412.72 853.44 415.52 772.02 519.79 706.89 600.21 846.05 603.00
00004434 00000022 577.33 192.34 388.55 546.89 686.04 412.11 850.41 414.98 770.50 517.44 706.96 598.31 843.27 601.04
00004435 00000023 579.83 183.08 387.60 550.18 688.76 406.63 850.49 409.36 773.04 506.34 708.90 590.74 845.29 593.21
00004436 00000024 582.51 173.53 384.63 551.79 690.39 399.09 850.81 404.18 775.70 494.85 709.48 582.83 845.54 587.03
00004437 00000025 584.15 168.92 384.85 552.42 693.64 393.65 855.09 401.07 779.15 491.68 709.37 579.25 846.04 585.33
00004438 00000026 585.31 167.20 387.05 553.89 698.85 391.72 859.21 399.84 784.56 492.15 713.21 577.38 847.77 583.92
00004439 00000027 585.84 163.80 388.25 560.87 702.58 394.45 862.63 403.66 790.50 494.49 717.71 578.72 852.42 585.95
00004440 00000028 586.24 166.09 389.43 564.56 707.96 394.68 868.19 405.39 796.81 495.38 721.21 581.35 854.86 590.00
00004441 00000029 586.65 169.94 393.57 565.20 723.22 383.79 879.55 399.47 809.78 485.70 726.52 575.47 860.31 588.46
00004442 00000030 594.52 163.72 402.34 572.50 738.32 371.22 899.10 395.96 825.70 476.77 730.04 563.16 868.46 585.02
00004443 DELETE   608.37 158.64 404.02 571.17 761.26 356.82 919.88 388.49 847.68 462.85 745.92 555.06 879.79 581.69
00004444 00000032 621.11 159.16 403.95 564.18 780.24 348.15 939.30 385.29 867.39 461.66 760.98 546.51 896.08 577.39
00004445 00000033 627.86 157.30 401.00 557.01 788.37 347.58 946.43 382.58 875.14 461.70 770.07 543.78 900.24 572.99
00004446 00000034 631.24 157.06 398.69 560.47 792.83 355.22 948.68 390.94 880.67 467.13 776.07 550.45 902.80 580.15
00004447 00000035 627.48 165.89 402.41 558.31 795.87 366.84 952.02 401.75 888.43 476.83 778.54 555.56 912.51 584.93
00004448 00000036 626.54 165.25 399.29 565.47 798.89 375.92 951.73 408.26 894.92 485.51 785.53 567.42 913.59 594.48
00004449 00000037 631.68 164.23 395.66 568.41 806.23 385.06 956.11 412.28 906.87 491.72 800.05 572.19 925.95 595.00
00004450 DELETE   644.57 175.36 383.61 553.43 818.82 388.21 965.74 412.09 922.36 493.14 814.86 572.92 936.63 593.25
00004451 DELETE   652.40 178.14 380.54 548.50 828.02 386.61 976.64 410.48 935.26 488.34 822.72 571.73 946.73 592.35
00004452 00000040 659.96 171.65 377.88 549.49 835.65 381.63 986.29 406.40 946.50 485.58 832.97 571.63 955.21 592.80
00004453 00000041 666.10 172.47 371.86 544.22 840.30 380.34 992.09 405.85 953.20 482.54 838.46 568.73 964.25 590.34
00004454 00000042 668.42 171.82 370.62 549.22 847.49 383.71 998.61 405.43 964.73 485.49 846.32 573.82 972.17 592.45
00004455 00000043 670.66 169.86 369.57 553.54 855.41 388.03 1004.65 408.09 975.39 490.17 852.99 579.41 977.31 596.93
00004456 00000044 674.11 171.45 367.71 559.12 864.49 394.35 1013.07 408.10 987.30 497.87 864.49 592.23 985.65 604.54
00004457 00000045 678.31 174.98 365.46 556.07 872.74 397.98 1020.54 411.16 997.26 500.31 872.17 595.16 992.57 607.10
00004458 00000046 681.42 174.71 363.63 555.25 876.15 397.82 1025.49 410.82 1002.17 501.40 877.51 595.98 996.61 607.38
00004459 00000047 682.93 169.59 362.46 559.81 877.03 396.75 1024.29 409.72 1002.24 499.13 876.97 592.98 997.24 604.38
00004460 00000048 681.78 165.04 362.27 562.42 876.41 393.64 1024.60 408.36 1003.10 496.01 876.00 590.25 997.61 603.18
00004461 00000049 681.43 166.78 362.40 562.11 876.49 392.73 1024.34 407.75 1003.54 495.01 876.28 589.63 997.91 602.75
00004462 00000050 681.63 163.63 361.92 565.70 876.22 394.35 1023.20 408.09 1002.89 495.95 876.62 590.83 997.87 602.77
00004463 00000051 680.96 164.43 361.69 564.49 877.13 394.02 1023.33 407.74 1003.86 495.59 877.13 590.46 997.96 602.42
00004464 00000052 680.60 165.40 362.06 563.25 879.33 392.14 1023.66 407.30 1004.75 494.47 877.51 588.23 997.05 601.33
00004465 00000053 681.41 160.07 360.06 566.96 877.60 390.88 1024.06 405.28 1004.37 493.05 877.03 588.15 998.63 600.84
00004466 00000054 678.88 167.24 358.71 552.07 872.12 381.29 1021.43 401.73 997.69 483.05 868.84 577.11 992.95 594.92
00004467 DELETE   666.60 174.19 358.01 532.31 850.01 372.21 1001.04 395.42 969.78 467.28 851.18 561.84 974.08 581.96
00004468 DELETE   639.25 157.77 380.32 540.37 814.74 356.42 968.01 380.00 926.54 451.31 823.88 548.23 942.00 567.16
00004469 DELETE   615.38 150.83 388.51 539.66 788.01 344.90 939.50 369.90 884.48 448.57 786.20 537.24 898.65 558.21
00004470 00000058 602.79 154.00 391.64 544.47 758.07 338.76 911.22 365.23 849.22 440.86 752.99 530.01 875.39 552.57
00004471 00000059 594.09 140.73 390.27 557.73 746.22 340.43 902.11 366.05 845.22 442.45 740.56 537.27 874.09 558.71
00004472 00000060 587.46 133.96 389.51 560.46 740.74 344.42 896.98 366.63 842.58 449.55 738.94 540.02 871.18 558.69
00004473 00000061 579.41 142.24 388.93 553.61 733.85 345.41 886.66 367.62 829.96 447.47 734.73 541.24 858.24 559.57
00004474 00000062 563.52 144.91 393.07 554.61 716.24 351.88 872.87 373.06 811.01 453.04 718.02 544.81 844.18 562.60
00004475 00000063 553.08 151.52 389.01 549.83 702.36 355.09 859.97 374.13 796.93 459.72 700.09 547.34 831.12 564.37
00004476 00000064 542.21 154.93 390.50 554.43 690.16 368.36 848.81 380.23 789.64 469.15 695.91 557.64 826.92 568.78
00004477 00000065 537.06 166.55 388.07 557.65 684.94 381.08 843.62 390.52 788.04 486.27 695.22 574.14 828.00 583.43
00004478 00000066 532.71 167.90 388.74 572.78 680.37 397.58 835.93 410.22 778.32 506.84 690.80 593.89 818.32 605.58
00004479 00000067 527.78 194.53 393.06 558.84 676.84 412.59 839.64 419.52 777.15 531.91 687.12 609.94 818.67 617.40
00004480 00000068 528.38 201.83 390.78 557.20 685.08 421.80 843.42 427.27 788.29 537.96 696.15 615.96 824.43 622.28
00004481 00000069 534.45 197.69 386.34 557.24 694.60 425.05 851.00 428.71 799.57 539.13 708.33 618.77 832.63 623.42
00004482 00000070 535.47 195.57 387.05 558.01 696.17 423.62 851.83 427.57 799.90 539.05 709.10 617.80 832.71 622.65
00004483 00000071 535.97 195.09 385.47 559.12 696.27 422.87 851.93 427.58 800.25 538.34 709.35 617.97 833.06 623.37
00004484 00000072 538.21 189.20 382.66 565.34 703.55 424.63 854.09 426.40 807.03 542.04 717.08 621.01 836.31 623.88
00004485 00000073 540.59 186.88 381.51 570.63 708.17 429.86 859.20 431.82 814.59 543.56 721.90 625.06 841.64 627.63
00004486 00000074 539.12 191.84 380.94 567.89 707.63 431.34 859.88 433.42 814.74 545.23 720.29 626.57 839.80 629.52
00004487 00000075 537.59 191.54 380.11 566.13 705.86 430.49 858.64 434.31 812.89 544.73 716.92 623.92 837.98 628.31
00004488 00000076 537.65 189.87 380.37 564.30 707.27 427.13 856.04 429.91 811.87 542.30 717.88 619.88 835.93 623.41
00004489 00000077 538.34 186.45 379.57 565.10 709.00 423.82 855.14 425.94 812.42 540.02 719.08 617.14 834.90 620.15
00004490 00000078 537.88 187.28 379.85 562.55 710.03 419.70 855.95 422.04 813.30 539.25 720.05 615.45 835.41 618.62
00004491 00000079 536.92 186.00 380.14 564.58 710.35 417.58 855.68 420.93 813.38 537.84 718.75 612.71 835.60 616.64
00004492 00000080 536.05 185.02 379.78 566.28 709.85 416.82 854.07 420.17 812.27 537.89 717.43 613.52 833.08 617.58
00004493 00000081 534.90 184.89 380.18 570.28 708.20 416.84 853.21 420.52 811.04 538.57 715.38 614.58 832.61 618.88
00004494 00000082 534.53 189.40 380.40 567.09 704.30 425.33 851.50 429.17 806.58 539.28 711.05 615.60 829.84 620.21
00004495 00000083 530.28 198.75 384.64 555.37 695.32 423.31 847.13 427.85 797.43 535.65 704.84 612.55 825.81 617.99
00004496 DELETE   525.10 205.66 384.72 550.68 675.67 420.91 831.62 425.41 784.37 529.31 688.37 616.49 815.51 620.49
00004497 DELETE   515.87 196.41 390.74 559.05 659.35 417.38 821.17 422.87 767.74 531.23 673.08 614.69 803.86 619.08
00004498 00000086 512.33 185.66 392.01 567.94 652.77 410.48 815.61 415.83 756.76 521.57 668.20 611.18 795.25 614.96
00004499 00000087 513.82 171.60 391.33 576.25 655.87 406.70 810.57 415.11 752.69 510.11 670.41 602.09 796.77 609.22
00004500 00000088 515.80 169.92 389.02 574.48 654.64 404.75 810.68 413.43 752.48 505.98 668.60 597.60 797.52 605.19
00004501 00000089 513.71 171.88 390.28 568.45 650.51 403.20 807.87 411.36 748.07 503.58 664.96 593.99 795.32 601.19
00004502 00000090 511.64 170.30 388.80 571.52 645.36 404.19 802.29 412.22 740.90 503.75 660.43 596.75 789.30 603.74
00004503 00000091 512.01 173.07 387.12 569.78 644.92 407.93 803.35 413.00 741.91 510.24 664.42 602.19 792.33 606.54
00004504 00000092 511.85 180.30 387.46 567.90 650.81 409.63 809.99 413.83 752.07 514.98 670.92 607.24 799.14 610.67
00004505 00000093 512.60 185.41 387.50 569.06 653.73 409.05 817.14 411.81 762.50 519.65 673.41 614.33 798.59 616.11
00004506 00000094 519.03 181.39 381.37 562.88 666.22 407.30 819.29 411.67 769.67 511.84 680.58 601.43 805.17 605.65
00004507 00000095 518.74 171.37 382.04 549.31 664.39 390.25 818.52 399.41 767.48 491.67 676.66 576.53 804.53 584.93
00004508 00000096 516.33 165.57 383.36 540.13 655.53 375.85 815.70 381.65 761.87 475.90 668.83 562.19 805.68 567.36
00004509 00000097 515.69 146.42 384.82 546.75 652.21 361.42 812.18 367.21 758.16 456.59 668.80 549.66 803.61 554.02
00004510 00000098 513.92 135.77 383.23 549.80 650.31 353.38 809.90 357.28 757.34 446.28 671.50 541.51 805.33 544.12
00004511 00000099 512.16 129.41 383.71 553.59 651.26 351.27 809.75 356.10 758.43 444.05 672.14 538.08 805.05 541.47
00004512 00000100 512.09 133.68 383.22 551.60 650.79 354.44 809.71 356.16 760.34 446.48 674.17 542.98 806.86 543.77
00004513 00000101 513.40 132.84 383.64 560.14 652.03 361.28 810.68 363.17 761.75 454.37 674.32 549.95 808.54 550.72
00004514 00000102 514.55 153.04 381.39 546.05 656.75 373.64 814.77 374.41 765.50 471.61 681.81 564.44 806.42 564.41
00004515 00000103 516.65 162.98 379.29 560.26 667.66 388.86 816.74 392.68 773.30 494.69 685.97 581.65 803.82 585.23
00004516 00000104 519.24 181.32 376.97 557.08 665.98 408.61 820.26 408.54 773.67 513.61 684.27 602.29 807.81 603.18
00004517 00000105 516.42 188.16 383.48 560.93 665.06 415.87 823.02 415.13 773.21 524.45 684.15 610.93 812.19 610.44
00004518 00000106 517.09 187.64 381.50 557.20 667.01 416.17 823.70 416.45 774.11 522.54 685.08 608.52 811.47 608.94
00004519 00000107 518.98 186.03 378.18 553.44 667.56 414.94 822.77 414.25 775.19 516.90 685.65 603.66 812.69 603.60
00004520 00000108 521.27 182.27 376.43 553.63 671.96 409.76 822.12 409.29 778.20 509.04 688.47 595.39 814.25 595.87
00004521 00000109 522.24 173.18 376.65 560.04 675.38 399.13 822.97 405.44 782.07 494.54 686.73 582.63 816.30 588.79
00004522 00000110 525.22 168.80 376.62 534.94 673.00 384.27 829.49 385.16 785.12 476.84 691.92 566.95 822.91 567.98
00004523 00000111 529.68 152.45 374.75 530.77 676.68 368.77 831.66 367.25 789.87 451.28 699.48 550.37 826.89 549.00
00004524 00000112 532.25 145.89 373.45 522.93 685.40 349.74 842.74 354.35 801.30 432.49 705.65 531.29 835.50 534.73
00004525 DELETE   528.37 125.79 384.09 525.41 687.11 334.78 844.70 340.19 799.43 409.33 715.19 507.57 843.40 512.56
00004526 00000114 533.16 123.10 380.38 522.78 689.98 321.75 844.71 327.86 801.21 397.75 719.54 496.29 847.86 501.98
00004527 00000115 534.17 120.16 383.04 526.38 692.23 314.75 849.12 326.16 805.32 386.58 715.39 491.71 848.42 501.83
00004528 00000116 535.36 120.42 384.41 532.58 696.75 314.49 851.80 327.16 806.74 387.38 715.43 493.29 848.43 504.34
00004529 00000117 538.46 121.25 384.16 539.40 700.77 316.77 856.21 331.12 809.46 398.39 716.21 500.35 850.25 512.48
00004530 00000118 541.51 111.92 386.73 558.95 704.02 330.66 858.84 343.22 812.59 412.13 718.42 511.95 852.30 521.92
00004531 00000119 542.92 124.88 386.39 552.09 707.14 340.54 863.01 353.47 815.95 428.97 720.38 523.47 852.12 534.03
00004532 00000120 548.03 138.03 392.47 556.74 713.69 347.81 867.47 355.52 823.09 442.67 731.34 539.25 858.85 545.90
00004533 00000121 552.11 136.36 394.22 571.83 720.29 356.87 871.57 366.59 831.69 451.03 737.45 548.04 863.09 555.71
00004534 00000122 557.44 137.48 392.79 576.48 725.25 362.68 875.34 371.06 837.78 456.26 742.85 554.99 865.08 561.39
00004535 00000123 566.63 142.35 387.02 576.93 730.32 366.49 880.91 375.54 843.46 460.81 745.45 559.14 870.33 566.37
00004536 00000124 570.54 141.83 383.98 580.61 734.73 368.52 884.17 378.43 847.08 465.92 747.55 561.24 873.33 569.11
00004537 00000125 571.20 146.57 382.01 576.75 736.27 372.22 886.44 382.89 848.88 473.34 746.97 564.31 873.81 572.90
00004538 00000126 569.74 148.04 383.62 581.11 737.73 380.08 885.89 391.00 848.49 483.37 743.75 569.14 870.61 578.13
00004539 00000127 570.54 157.81 380.31 577.86 740.60 386.89 886.69 400.83 849.33 493.42 741.19 572.57 870.62 584.34
00004540 00000128 567.11 162.53 378.83 579.31 743.41 392.71 885.85 406.24 852.55 498.59 743.05 577.89 869.48 589.14
CROP_BBOX: 265 0 1289 989
