Video ID: 	EoadWiM3FAw
H: 	2160
W: 	3840
FPS: 	25.0

FRAME INDEX X0 Y0 W H [Landmarks (5 Points)]

00017882 00000000 1646.35 326.80 657.39 945.01 1723.81 702.34 1958.13 655.87 1752.55 836.40 1771.61 1047.11 1933.23 1012.69
00017883 00000001 1641.01 341.63 645.50 941.80 1718.63 714.99 1943.72 664.86 1745.44 852.34 1769.39 1058.16 1923.23 1022.44
00017884 00000002 1635.43 344.26 649.96 941.88 1718.11 721.30 1948.27 667.48 1756.90 855.10 1777.47 1059.87 1931.81 1022.74
00017885 00000003 1639.87 342.91 651.62 944.33 1722.19 720.46 1956.93 660.61 1768.13 850.75 1789.89 1058.85 1947.02 1017.43
00017886 00000004 1648.82 332.10 648.17 960.61 1734.23 720.69 1975.37 648.45 1788.81 835.08 1807.10 1064.29 1985.74 1011.80
00017887 DELETE   1660.09 321.10 661.16 958.05 1745.87 706.96 2000.28 645.01 1803.12 831.68 1823.99 1050.84 2004.75 1002.38
00017888 DELETE   1672.86 332.83 654.27 946.95 1766.87 700.43 2017.47 642.84 1823.45 831.58 1839.38 1040.69 2039.40 996.88
00017889 00000007 1683.92 333.06 652.19 943.69 1780.70 707.92 2033.18 644.57 1838.31 830.71 1853.44 1041.44 2058.60 992.47
00017890 00000008 1694.04 327.65 656.46 947.17 1789.88 715.04 2046.06 644.87 1860.12 833.72 1869.72 1046.71 2067.43 994.06
00017891 00000009 1707.45 327.74 661.64 947.93 1808.35 721.83 2064.58 647.18 1886.38 839.03 1893.36 1051.79 2082.30 997.30
00017892 DELETE   1735.06 333.30 659.95 920.43 1829.32 711.73 2087.15 648.77 1912.41 833.60 1917.64 1035.40 2088.47 986.31
00017893 DELETE   1765.53 323.66 661.01 936.88 1871.78 704.98 2111.26 627.37 1935.71 798.53 1945.30 1031.08 2120.02 974.06
00017894 DELETE   1793.86 318.54 666.17 908.69 1893.45 688.43 2148.29 630.56 1966.22 797.14 1964.65 1002.90 2133.35 958.46
00017895 00000013 1813.60 307.54 661.28 902.92 1908.22 671.13 2167.48 621.55 1984.40 787.66 1977.13 986.24 2153.32 947.23
00017896 00000014 1825.84 295.91 653.17 926.65 1928.25 667.87 2198.93 606.32 1999.05 776.74 1986.39 994.70 2191.98 950.66
00017897 00000015 1838.22 299.56 652.31 945.92 1940.08 666.85 2211.24 604.13 2007.34 775.09 1997.31 998.37 2215.81 951.49
00017898 00000016 1845.56 295.19 659.62 953.30 1948.02 664.75 2219.37 603.68 2012.69 776.90 2003.77 996.72 2228.43 950.45
00017899 00000017 1850.48 294.79 659.58 960.60 1953.76 663.63 2227.12 605.29 2018.86 777.03 2005.58 998.52 2233.78 954.24
00017900 00000018 1852.40 292.95 660.79 955.78 1955.05 664.82 2228.21 605.72 2020.42 777.61 2007.36 996.31 2236.06 951.61
00017901 00000019 1852.62 290.54 663.21 946.23 1955.68 664.51 2227.74 608.18 2024.02 780.45 2009.59 991.14 2233.71 949.47
00017902 00000020 1850.62 292.62 662.27 937.63 1951.46 665.90 2225.51 610.89 2020.58 786.59 2002.71 990.06 2232.65 949.26
00017903 00000021 1847.17 291.74 659.35 924.56 1949.29 666.18 2221.58 612.67 2018.65 786.10 2000.77 984.58 2227.22 945.63
00017904 00000022 1842.50 293.48 656.53 922.70 1947.13 670.31 2217.15 616.36 2018.54 788.04 1998.38 983.84 2223.22 944.93
00017905 00000023 1838.34 309.47 653.17 913.11 1937.35 676.76 2206.25 622.86 2008.40 793.57 1990.18 989.14 2215.93 948.85
00017906 00000024 1828.44 323.91 650.10 904.59 1929.51 679.41 2194.15 629.98 2000.92 809.74 1985.49 994.04 2210.43 956.26
00017907 00000025 1817.07 314.98 662.56 910.07 1908.76 679.48 2172.10 633.78 1989.49 813.64 1972.02 997.77 2186.83 960.27
00017908 00000026 1808.71 313.58 660.37 908.08 1899.11 682.15 2155.59 633.63 1972.61 815.73 1960.24 996.44 2174.98 956.52
00017909 00000027 1800.09 309.28 663.57 910.56 1887.99 689.34 2143.22 630.51 1958.31 807.71 1950.83 997.49 2165.21 949.38
00017910 00000028 1790.94 304.04 672.28 930.08 1878.70 698.72 2132.18 623.59 1942.51 800.70 1949.82 1006.25 2157.26 944.47
00017911 00000029 1789.02 310.76 672.48 934.06 1876.91 699.09 2126.60 620.25 1935.53 799.29 1955.01 1016.38 2154.11 951.00
00017912 00000030 1790.08 312.31 672.29 932.92 1876.16 700.82 2123.00 623.77 1934.98 809.75 1954.96 1012.62 2156.98 949.10
00017913 00000031 1789.11 312.78 670.85 931.73 1876.06 700.41 2127.57 629.73 1939.96 814.77 1953.26 1011.59 2160.51 953.66
00017914 00000032 1791.54 311.04 670.98 934.93 1880.17 702.67 2132.08 632.76 1943.28 817.37 1959.77 1017.42 2160.88 960.34
00017915 00000033 1794.29 309.67 674.89 938.85 1882.55 705.94 2136.83 632.37 1945.46 817.60 1962.62 1024.88 2161.96 964.89
00017916 00000034 1797.33 310.47 668.32 942.33 1887.57 698.39 2144.88 632.52 1953.94 815.94 1965.98 1022.72 2166.10 968.81
00017917 00000035 1803.97 309.65 662.82 954.07 1895.62 689.57 2154.76 633.05 1964.91 816.20 1974.91 1022.67 2174.05 975.71
00017918 00000036 1808.15 314.52 662.39 950.57 1903.94 686.81 2166.43 638.41 1975.55 820.49 1980.60 1025.22 2179.61 985.21
00017919 00000037 1814.57 314.76 657.32 942.02 1911.29 679.89 2178.42 646.26 1987.12 826.74 1975.68 1017.38 2178.87 990.50
00017920 00000038 1828.97 306.44 646.71 940.63 1929.41 677.78 2194.98 659.80 1992.87 829.76 1964.43 1002.94 2185.67 990.62
00017921 00000039 1835.08 298.19 661.10 956.84 1943.30 671.78 2212.59 670.50 1999.66 842.82 1962.24 1002.07 2182.76 1004.28
00017922 00000040 1855.58 298.54 653.34 965.10 1965.15 668.10 2229.43 682.89 2011.20 846.24 1966.69 1005.87 2180.36 1019.80
00017923 00000041 1875.80 293.15 656.35 966.10 1984.40 667.60 2252.27 688.92 2023.59 846.42 1981.35 1011.21 2190.43 1029.20
00017924 DELETE   1892.17 294.22 658.00 947.87 2009.74 662.66 2275.22 689.50 2047.14 841.98 1990.42 1003.93 2194.09 1027.29
00017925 DELETE   1908.01 293.57 670.13 958.29 2032.20 666.48 2303.91 693.31 2078.54 845.01 2011.86 1015.20 2211.25 1038.33
00017926 DELETE   1934.09 292.11 653.42 973.20 2050.55 669.17 2323.46 701.46 2102.46 862.14 2036.84 1028.77 2229.86 1054.59
00017927 00000045 1951.48 304.02 649.48 961.35 2064.01 669.83 2340.37 711.55 2113.09 873.34 2048.12 1028.23 2249.72 1060.58
00017928 00000046 1968.21 314.71 647.10 952.55 2080.48 673.27 2362.23 719.56 2131.95 877.88 2053.46 1037.95 2265.84 1075.11
00017929 00000047 1978.42 310.95 649.09 984.81 2089.01 681.45 2364.84 725.14 2139.60 891.08 2070.26 1054.48 2271.21 1088.77
00017930 00000048 1979.29 325.83 658.46 991.97 2092.82 693.79 2371.73 732.86 2148.92 904.97 2083.69 1071.02 2288.10 1102.78
00017931 00000049 1983.48 340.89 658.86 982.85 2098.27 702.39 2374.25 745.64 2148.47 919.89 2087.33 1077.38 2290.60 1111.74
00017932 00000050 1981.93 351.03 661.07 975.65 2097.63 706.95 2376.28 753.15 2147.86 930.91 2083.83 1076.93 2293.91 1113.62
00017933 00000051 1979.11 359.08 663.90 968.56 2095.79 708.82 2374.47 757.49 2144.23 935.97 2078.49 1074.19 2293.34 1113.02
00017934 00000052 1976.38 355.43 664.16 973.82 2093.55 708.83 2373.52 758.33 2143.19 938.85 2076.48 1077.33 2291.83 1116.78
00017935 00000053 1973.92 357.88 661.15 976.00 2089.68 708.38 2369.81 753.07 2141.34 934.51 2079.62 1084.30 2290.14 1119.91
00017936 00000054 1970.23 352.33 658.62 981.97 2085.90 707.46 2366.31 749.90 2138.92 933.59 2078.53 1082.96 2293.04 1117.07
00017937 00000055 1963.66 353.78 659.96 982.90 2079.98 709.66 2361.54 748.17 2135.85 932.61 2077.16 1083.61 2294.82 1114.61
00017938 00000056 1958.55 353.64 662.96 984.76 2076.60 710.32 2359.40 746.40 2134.12 932.07 2076.81 1084.72 2293.87 1113.93
00017939 00000057 1954.91 352.89 662.43 977.60 2070.40 711.21 2354.64 745.38 2131.83 927.63 2075.69 1086.11 2284.32 1113.76
00017940 00000058 1957.91 348.56 660.02 982.68 2068.57 711.66 2340.85 739.99 2120.34 922.32 2071.58 1096.75 2260.35 1120.12
00017941 00000059 1956.01 347.08 662.00 977.16 2067.11 709.12 2341.37 742.39 2117.56 923.09 2063.23 1092.56 2253.81 1119.09
00017942 00000060 1953.83 349.75 664.12 969.43 2069.82 707.74 2351.00 748.70 2125.85 924.55 2060.02 1081.97 2259.32 1115.38
00017943 00000061 1956.40 351.70 662.51 965.25 2074.54 706.45 2357.26 752.02 2132.50 928.57 2060.25 1077.80 2266.71 1114.53
00017944 00000062 1961.19 356.03 658.53 961.44 2079.97 706.84 2359.84 756.13 2135.61 931.96 2062.78 1077.72 2265.88 1117.12
00017945 00000063 1963.36 362.40 659.68 959.59 2081.89 711.01 2364.22 763.48 2135.19 935.64 2060.05 1081.57 2265.83 1123.39
00017946 00000064 1962.36 367.03 661.00 968.93 2082.85 715.84 2367.40 768.82 2135.65 941.66 2058.79 1093.06 2266.62 1135.10
00017947 00000065 1961.31 366.18 662.44 998.21 2081.28 724.07 2370.61 778.41 2138.10 956.22 2061.84 1111.18 2273.57 1153.83
00017948 00000066 1955.66 376.39 665.20 1008.98 2078.72 741.62 2368.97 791.00 2136.94 977.00 2064.76 1125.46 2289.72 1163.98
00017949 00000067 1951.12 387.96 669.11 992.16 2075.02 751.25 2364.13 797.79 2137.46 986.83 2064.20 1124.06 2293.76 1160.39
00017950 00000068 1951.16 393.39 667.61 973.84 2074.63 747.75 2365.88 794.90 2138.82 983.48 2064.02 1117.44 2294.22 1154.22
00017951 00000069 1957.35 383.19 666.08 975.34 2078.20 738.36 2372.90 787.20 2142.85 970.77 2065.57 1110.29 2292.98 1148.61
00017952 00000070 1964.62 376.45 665.31 984.68 2086.72 725.73 2378.03 774.24 2146.54 954.72 2072.87 1108.98 2290.08 1147.34
00017953 00000071 1979.24 368.23 656.73 971.55 2099.28 724.54 2387.92 770.20 2163.34 947.32 2087.16 1106.49 2286.11 1142.95
00017954 00000072 1990.35 365.70 658.33 970.45 2111.16 729.39 2403.68 771.47 2191.18 957.63 2110.43 1118.42 2305.92 1151.71
00017955 00000073 1995.98 369.33 663.50 981.56 2127.20 737.59 2424.90 784.76 2206.08 972.46 2120.69 1120.17 2338.82 1156.10
00017956 00000074 2007.87 366.14 662.22 988.62 2143.47 751.23 2437.61 794.14 2228.01 984.56 2137.64 1127.33 2360.23 1160.52
00017957 00000075 2014.63 366.56 665.82 999.23 2153.99 759.42 2442.83 801.47 2238.13 991.77 2152.39 1142.48 2360.55 1174.79
00017958 00000076 2017.67 368.34 663.90 1000.60 2153.97 758.09 2442.39 802.99 2235.72 991.94 2148.74 1140.49 2360.77 1174.87
00017959 00000077 2015.56 370.29 664.27 1007.60 2150.29 755.15 2437.76 804.11 2226.08 989.64 2138.28 1132.39 2355.60 1170.58
00017960 00000078 2013.80 374.88 663.32 1004.06 2144.77 752.92 2432.76 804.27 2216.75 989.70 2130.71 1127.98 2351.65 1168.12
00017961 00000079 2011.22 379.34 664.54 985.60 2140.98 751.99 2429.73 805.26 2212.11 993.55 2121.72 1117.64 2351.29 1159.52
00017962 00000080 2010.89 379.00 663.02 983.77 2139.80 753.22 2429.38 804.53 2213.66 993.38 2122.01 1118.16 2354.26 1158.44
00017963 00000081 2011.39 375.94 666.05 982.24 2141.42 754.13 2431.44 802.83 2219.08 991.08 2131.55 1122.44 2351.59 1160.10
00017964 00000082 2015.72 372.87 663.33 982.90 2143.38 749.26 2432.95 795.72 2218.98 984.53 2135.22 1120.34 2352.47 1156.38
00017965 00000083 2016.66 368.33 661.94 976.36 2142.92 742.48 2434.81 789.50 2219.31 976.24 2139.28 1116.31 2353.87 1152.37
00017966 00000084 2015.27 367.78 661.26 974.59 2141.27 733.66 2434.77 781.97 2216.93 968.65 2136.95 1111.50 2353.05 1148.79
00017967 00000085 2012.57 368.58 659.66 970.36 2139.57 729.00 2432.93 778.42 2216.12 964.64 2133.28 1107.69 2348.80 1146.04
00017968 00000086 2009.47 371.09 658.87 965.09 2136.38 723.08 2432.07 774.68 2209.14 964.58 2122.23 1100.59 2349.14 1140.86
00017969 00000087 2008.34 365.70 659.24 968.50 2133.53 720.29 2428.69 769.09 2207.61 956.98 2120.67 1098.94 2346.95 1136.90
00017970 00000088 2012.45 360.51 654.44 977.16 2132.75 718.46 2424.95 763.13 2208.43 946.19 2125.71 1100.06 2338.62 1135.22
00017971 00000089 2013.98 356.89 650.32 971.89 2133.83 711.85 2419.80 749.62 2210.31 934.42 2135.78 1093.83 2340.28 1124.55
00017972 00000090 2013.79 347.20 651.13 976.90 2135.27 705.82 2418.01 742.33 2211.40 925.82 2137.84 1084.17 2340.70 1114.75
00017973 00000091 2016.14 329.99 648.15 991.69 2135.56 697.76 2419.76 734.93 2211.77 915.74 2137.02 1077.29 2342.00 1108.88
00017974 00000092 2012.70 311.98 650.60 983.36 2133.01 690.01 2417.57 727.46 2210.45 902.58 2137.83 1057.21 2344.43 1086.15
00017975 00000093 2013.33 302.66 650.79 980.94 2134.08 680.76 2424.83 719.14 2212.02 896.32 2131.62 1052.08 2349.10 1081.61
00017976 00000094 2014.21 305.05 650.33 978.30 2135.71 677.54 2423.73 713.68 2215.25 881.84 2138.28 1046.21 2343.85 1074.99
00017977 00000095 2014.10 301.99 651.39 984.87 2138.46 671.01 2425.65 712.70 2213.10 876.94 2134.00 1042.61 2342.12 1075.34
00017978 00000096 2014.89 299.74 650.41 985.33 2139.32 665.74 2426.65 710.10 2212.64 873.26 2131.47 1039.10 2341.64 1073.85
00017979 00000097 2014.61 299.69 650.31 983.02 2139.64 664.13 2427.32 710.20 2211.83 872.16 2129.16 1036.49 2341.05 1072.49
00017980 00000098 2014.96 300.56 652.59 977.88 2142.68 663.13 2429.73 711.88 2213.55 872.74 2128.44 1034.14 2341.98 1072.11
00017981 00000099 2015.83 301.38 656.40 973.08 2145.98 663.48 2434.38 715.16 2215.04 872.51 2126.90 1030.85 2342.62 1071.19
00017982 00000100 2016.49 303.04 658.84 976.50 2150.17 664.02 2438.22 717.49 2218.07 872.45 2127.72 1029.68 2347.77 1071.59
00017983 00000101 2017.31 302.95 662.19 995.26 2153.92 666.11 2443.35 720.48 2222.50 870.71 2130.66 1034.77 2350.40 1078.07
00017984 00000102 2011.45 294.66 675.58 1034.68 2151.35 666.78 2455.94 728.94 2227.09 875.44 2130.99 1047.45 2351.62 1098.26
00017985 00000103 2026.21 308.22 663.66 992.53 2166.96 673.80 2455.18 728.19 2235.91 879.51 2133.95 1035.68 2358.83 1079.76
00017986 00000104 2030.11 319.09 664.73 976.93 2172.64 674.04 2461.32 735.33 2242.23 891.59 2136.13 1030.10 2365.17 1078.99
00017987 00000105 2032.35 328.36 665.33 964.52 2176.59 676.56 2465.40 744.86 2242.92 899.39 2134.98 1031.33 2363.14 1085.58
00017988 00000106 2035.02 333.44 662.69 967.67 2177.58 677.42 2466.11 750.03 2242.27 906.46 2133.24 1035.67 2356.05 1093.12
00017989 00000107 2037.26 336.33 661.57 964.67 2177.08 679.38 2465.73 752.57 2239.50 907.54 2132.46 1042.51 2344.50 1100.44
00017990 00000108 2038.17 334.17 659.53 964.40 2175.67 679.66 2465.11 753.04 2239.33 906.56 2129.96 1043.02 2339.70 1101.22
00017991 00000109 2037.95 329.86 658.91 968.85 2175.38 678.63 2464.33 751.88 2238.02 903.36 2129.56 1042.31 2338.63 1100.45
00017992 00000110 2037.82 328.08 659.05 968.27 2174.64 676.46 2463.90 747.54 2237.45 895.34 2129.06 1039.57 2337.90 1096.21
00017993 00000111 2034.99 321.60 659.47 976.21 2172.49 675.73 2461.34 745.05 2232.24 889.01 2125.21 1038.67 2338.24 1093.99
00017994 00000112 2033.15 316.65 657.65 980.04 2168.86 672.23 2454.62 737.30 2224.60 877.28 2121.60 1035.92 2334.60 1087.87
00017995 00000113 2032.22 311.93 651.86 977.78 2163.58 667.79 2445.12 731.95 2213.15 875.47 2119.35 1033.95 2334.62 1084.62
00017996 00000114 2030.34 305.88 652.85 977.42 2158.61 664.88 2438.23 725.20 2206.95 865.11 2116.77 1029.54 2331.13 1077.50
00017997 00000115 2026.35 310.00 655.61 973.35 2156.16 660.63 2436.41 721.03 2201.78 861.68 2114.95 1024.61 2333.19 1072.63
00017998 00000116 2026.56 303.90 654.74 973.52 2156.72 656.21 2437.66 717.39 2201.64 857.33 2114.42 1021.23 2333.97 1069.92
00017999 00000117 2026.39 302.04 655.30 967.53 2157.36 654.56 2437.22 717.11 2201.96 855.12 2113.32 1014.75 2334.64 1064.44
00018000 00000118 2027.92 299.60 656.08 966.04 2156.43 652.72 2435.74 715.17 2200.53 852.13 2111.72 1010.34 2332.45 1060.15
00018001 00000119 2025.21 296.80 659.26 961.97 2156.57 650.95 2438.19 713.98 2201.62 849.05 2110.75 1009.08 2329.13 1059.67
00018002 00000120 2023.05 293.52 660.02 957.69 2156.40 649.14 2437.84 712.16 2200.78 845.61 2109.37 1006.48 2329.28 1057.23
00018003 00000121 2021.90 292.55 662.04 957.05 2153.75 646.96 2436.31 709.59 2198.66 844.67 2108.53 1004.77 2328.92 1055.22
00018004 00000122 2022.99 291.59 661.32 956.48 2155.56 645.05 2436.62 707.44 2198.12 840.39 2109.39 1001.67 2329.61 1051.93
00018005 00000123 2023.96 289.80 669.35 960.40 2151.02 642.60 2435.86 709.87 2190.13 839.01 2111.77 996.73 2327.52 1049.23
00018006 00000124 2023.96 294.15 665.16 959.45 2153.87 641.12 2433.61 710.36 2190.03 839.28 2108.56 1001.34 2326.81 1055.43
00018007 00000125 2024.62 291.50 668.16 968.96 2148.28 644.24 2431.77 708.27 2186.02 840.88 2113.12 1001.05 2326.07 1050.84
00018008 00000126 2024.44 291.88 666.68 970.83 2145.24 645.26 2429.06 707.29 2184.20 842.98 2111.64 1003.19 2324.46 1051.42
00018009 00000127 2023.03 291.14 664.52 975.01 2143.68 654.24 2425.45 713.96 2181.22 844.79 2110.92 1006.42 2322.53 1052.85
00018010 00000128 2021.25 304.77 659.89 965.77 2140.14 667.08 2416.31 721.01 2181.00 849.15 2108.87 1008.86 2317.98 1051.44
00018011 00000129 2020.04 306.00 657.92 963.60 2138.07 666.66 2413.62 719.34 2177.99 850.51 2108.46 1009.48 2316.30 1050.98
00018012 00000130 2019.74 302.27 659.27 967.97 2138.00 661.44 2413.49 715.49 2175.79 849.72 2109.63 1009.46 2315.59 1051.62
00018013 00000131 2016.94 297.94 661.30 974.44 2134.69 660.42 2411.13 712.47 2172.77 849.45 2107.43 1010.06 2315.01 1050.77
00018014 00000132 2016.50 297.76 658.32 975.75 2129.61 658.49 2408.57 707.05 2169.73 850.64 2105.79 1012.93 2314.23 1050.80
CROP_BBOX: 1400 0 2934 1604
