Video ID: 	b4hhZTcTYeU
H: 	1080
W: 	1920
FPS: 	25.0

FRAME INDEX X0 Y0 W H [Landmarks (5 Points)]

00018217 00000000 1017.79 199.59 475.78 599.14 1073.06 451.40 1278.43 426.24 1123.29 535.11 1095.16 658.47 1267.28 636.80
00018218 DELETE   1020.26 194.51 473.07 601.63 1074.93 446.91 1278.05 422.79 1122.74 532.33 1094.99 654.31 1264.16 633.68
00018219 00000002 1020.14 189.21 474.47 605.23 1074.96 444.45 1277.63 419.66 1122.12 529.51 1096.45 652.61 1263.33 631.38
00018220 00000003 1021.85 188.92 473.61 604.42 1075.76 443.94 1277.13 416.03 1122.30 527.16 1099.13 651.80 1264.92 627.96
00018221 00000004 1021.92 188.65 474.37 605.42 1076.80 443.96 1276.45 412.62 1121.86 524.63 1101.79 651.33 1266.57 624.60
00018222 00000005 1022.95 182.24 478.66 605.98 1076.49 447.92 1267.12 413.81 1122.19 518.42 1106.96 645.85 1265.11 618.54
00018223 00000006 1024.29 179.84 479.37 604.04 1077.18 446.95 1267.48 410.60 1123.48 514.77 1111.26 645.06 1266.49 615.95
00018224 00000007 1026.15 175.37 480.89 603.05 1079.02 444.70 1268.72 406.97 1124.08 510.33 1114.19 643.74 1266.37 613.68
00018225 00000008 1028.53 170.86 478.79 601.20 1081.27 438.99 1268.86 402.49 1125.03 507.90 1116.66 640.25 1265.02 611.42
00018226 00000009 1033.11 169.11 478.06 596.38 1084.13 434.18 1271.96 400.71 1126.14 504.80 1117.47 636.05 1267.14 609.47
00018227 00000010 1036.50 165.51 477.91 597.13 1086.04 432.76 1274.50 398.61 1129.09 502.92 1120.09 634.68 1270.13 607.55
00018228 00000011 1038.99 164.59 476.83 592.62 1088.00 434.51 1278.29 395.72 1134.02 500.31 1124.57 634.72 1276.93 604.14
00018229 00000012 1043.22 163.33 478.32 591.23 1092.73 433.56 1281.12 394.58 1137.33 497.38 1129.56 631.94 1281.99 601.00
00018230 00000013 1045.75 165.02 480.38 588.74 1095.07 435.46 1284.69 395.22 1140.80 496.91 1132.85 632.30 1286.27 600.02
00018231 00000014 1047.26 163.19 479.77 591.23 1097.44 436.74 1286.15 394.32 1143.76 497.01 1137.30 632.73 1289.24 598.70
00018232 00000015 1047.90 161.83 481.52 593.02 1098.82 437.76 1286.48 392.06 1144.58 495.46 1140.91 633.77 1290.55 597.21
00018233 00000016 1042.52 160.35 477.85 592.66 1092.66 436.22 1293.13 386.20 1147.32 502.09 1139.78 638.10 1294.38 598.55
00018234 00000017 1043.41 161.92 477.24 593.04 1094.12 437.04 1293.08 386.06 1148.55 502.44 1142.98 639.41 1295.10 598.66
00018235 00000018 1043.81 162.58 477.46 593.70 1094.63 436.88 1292.53 387.12 1147.91 503.05 1142.87 640.04 1294.58 600.43
00018236 00000019 1042.52 168.27 479.83 591.83 1094.25 436.73 1291.07 388.46 1146.77 504.40 1141.95 640.46 1294.87 601.66
00018237 00000020 1047.27 170.15 483.57 594.20 1097.37 441.85 1282.72 392.99 1142.29 500.22 1143.95 639.84 1290.63 599.66
00018238 00000021 1046.02 171.45 483.85 596.25 1096.42 443.78 1280.05 394.91 1141.94 505.13 1145.14 642.06 1289.67 602.15
00018239 00000022 1047.02 175.27 485.31 598.37 1096.88 447.08 1278.85 396.41 1141.72 508.61 1147.54 644.73 1289.05 603.37
00018240 00000023 1049.12 178.58 482.58 597.25 1099.33 448.36 1280.80 398.72 1145.14 513.42 1150.83 646.88 1289.63 606.38
00018241 00000024 1042.58 188.50 484.72 590.94 1098.54 449.96 1288.48 399.21 1155.34 516.87 1155.51 653.22 1296.94 612.04
00018242 00000025 1045.34 191.11 485.85 589.80 1100.54 450.84 1289.21 400.74 1155.87 519.40 1158.49 654.40 1298.21 613.84
00018243 00000026 1046.83 189.71 485.68 592.88 1102.78 453.26 1288.98 402.21 1156.77 522.55 1161.18 656.69 1300.57 615.34
00018244 00000027 1049.48 196.23 483.78 590.27 1104.62 455.41 1290.42 405.16 1158.05 527.32 1163.74 660.39 1301.79 619.57
00018245 00000028 1051.47 199.62 483.50 587.67 1105.08 456.75 1291.68 406.59 1157.49 531.62 1163.41 661.97 1303.22 621.16
00018246 00000029 1050.75 201.18 486.50 583.33 1102.03 460.39 1291.26 409.15 1155.87 535.44 1160.93 663.12 1306.91 621.07
00018247 00000030 1052.05 200.65 487.50 584.29 1103.84 460.34 1292.60 409.30 1157.37 535.00 1162.06 663.01 1307.83 621.22
00018248 00000031 1052.71 200.92 488.64 584.66 1104.09 459.62 1293.83 408.73 1158.61 535.64 1162.49 664.08 1309.39 622.50
00018249 00000032 1052.24 203.87 492.43 584.91 1105.35 461.20 1295.22 407.34 1160.95 536.25 1166.87 667.05 1311.98 623.02
00018250 00000033 1053.04 205.83 490.04 593.42 1108.18 465.23 1297.36 407.10 1163.67 535.17 1171.67 674.03 1315.56 626.13
00018251 00000034 1052.95 206.20 490.28 601.53 1110.66 467.08 1298.90 405.61 1167.11 533.89 1178.14 679.19 1320.28 628.30
00018252 00000035 1052.08 204.84 489.51 604.66 1109.91 469.85 1299.10 405.21 1167.63 535.89 1178.71 679.55 1326.36 625.49
00018253 00000036 1050.96 207.14 491.00 606.82 1108.31 471.84 1297.61 404.94 1165.53 536.84 1179.51 682.73 1328.50 626.44
00018254 00000037 1048.53 207.37 490.81 609.13 1106.60 472.59 1296.86 405.51 1165.09 539.58 1177.92 683.01 1331.13 626.29
00018255 00000038 1046.44 207.88 492.30 602.50 1102.07 474.69 1294.69 407.91 1163.09 542.03 1172.11 687.42 1322.52 631.69
00018256 00000039 1045.57 211.65 492.42 593.55 1098.37 477.66 1290.82 409.94 1157.51 542.83 1167.66 689.10 1313.97 632.98
00018257 00000040 1039.83 210.15 489.83 601.03 1095.49 487.26 1283.27 418.16 1151.21 548.93 1164.82 695.65 1311.45 637.78
00018258 00000041 1033.87 213.43 492.17 605.10 1093.94 490.04 1279.13 423.32 1150.60 555.17 1167.68 701.51 1308.96 645.15
00018259 00000042 1042.39 216.03 490.18 606.74 1099.45 490.64 1269.51 433.57 1145.57 566.62 1170.19 693.40 1304.39 644.81
00018260 00000043 1035.64 217.01 484.79 603.24 1091.40 495.79 1266.37 441.06 1140.66 567.83 1162.62 697.57 1304.92 651.95
00018261 00000044 1031.86 217.35 488.14 601.46 1086.83 495.29 1266.10 439.47 1137.85 567.92 1156.39 697.52 1301.84 651.83
00018262 00000045 1029.87 218.12 486.80 597.39 1083.29 494.27 1264.05 439.09 1135.07 566.88 1148.97 696.24 1295.21 652.16
00018263 00000046 1026.88 218.47 484.52 595.81 1078.82 492.61 1260.93 438.05 1132.30 566.06 1144.76 695.25 1290.00 652.17
00018264 00000047 1023.87 219.93 483.53 593.67 1075.63 491.68 1256.76 438.03 1129.37 567.17 1142.18 694.50 1285.68 652.13
00018265 00000048 1019.31 217.38 483.23 596.15 1072.16 487.63 1252.13 437.04 1126.86 568.12 1139.73 693.45 1281.48 653.37
00018266 00000049 1015.58 215.80 484.17 599.89 1068.85 488.59 1248.69 435.56 1124.86 566.49 1138.34 694.72 1278.77 652.45
00018267 00000050 1012.44 216.15 485.27 602.69 1066.40 487.53 1245.37 434.95 1122.42 566.50 1138.21 696.14 1276.60 653.78
00018268 00000051 1009.41 217.04 484.83 599.96 1062.67 487.92 1243.27 436.58 1120.02 569.87 1132.53 692.99 1278.09 651.31
00018269 00000052 1005.29 218.45 485.84 593.41 1056.91 488.77 1241.64 439.43 1116.85 577.07 1124.77 691.06 1280.30 651.40
00018270 00000053 1003.27 225.53 484.43 586.87 1055.10 491.00 1241.35 442.16 1118.27 581.86 1123.82 692.38 1281.75 653.22
00018271 00000054 1002.11 226.83 484.69 589.16 1055.09 492.54 1241.53 445.00 1117.88 580.14 1122.16 694.04 1276.25 656.24
00018272 00000055 999.54 229.80 485.29 587.26 1052.92 493.73 1241.40 448.02 1117.29 583.97 1119.52 696.97 1272.90 660.83
00018273 00000056 998.86 230.37 485.09 587.56 1053.14 494.71 1240.99 449.46 1118.02 585.89 1119.74 698.05 1272.66 662.35
00018274 00000057 998.45 230.23 486.72 590.18 1053.91 494.05 1241.31 448.68 1118.21 584.83 1121.15 698.94 1273.45 662.95
00018275 00000058 997.93 228.61 489.15 594.11 1055.85 494.30 1240.87 448.05 1118.14 582.22 1124.33 699.79 1273.79 662.75
00018276 00000059 998.23 227.81 489.82 592.42 1055.25 491.97 1240.24 445.75 1117.01 580.90 1124.36 698.48 1272.61 661.52
00018277 00000060 997.98 226.78 488.49 591.68 1055.18 489.92 1240.73 443.49 1117.38 577.78 1124.10 695.06 1272.18 657.97
00018278 00000061 996.88 227.46 489.14 590.24 1053.72 488.82 1239.61 441.54 1115.60 575.94 1122.31 694.42 1272.52 656.44
00018279 00000062 996.67 225.46 488.01 589.63 1051.52 488.05 1238.63 439.72 1113.85 576.09 1119.79 693.89 1271.56 655.27
00018280 00000063 997.53 223.79 487.02 590.35 1050.27 488.34 1237.96 438.32 1112.03 576.74 1118.07 694.36 1275.19 654.27
00018281 00000064 996.58 223.43 487.05 589.41 1049.42 486.92 1237.67 437.03 1111.37 574.23 1116.86 693.06 1275.13 653.07
00018282 00000065 997.47 221.44 486.84 591.33 1050.72 485.94 1238.78 437.04 1112.91 571.88 1117.29 691.42 1272.88 652.50
00018283 00000066 998.83 223.27 492.62 587.00 1052.39 480.91 1242.09 429.14 1112.62 571.56 1120.74 690.63 1268.04 646.54
00018284 00000067 999.99 222.09 491.67 586.66 1054.06 480.59 1242.60 429.64 1114.37 570.59 1121.75 690.13 1267.07 646.87
00018285 00000068 1001.29 220.98 490.33 586.86 1055.10 479.78 1242.02 429.42 1114.59 570.05 1122.80 689.99 1265.52 647.40
00018286 00000069 1003.33 216.09 483.54 592.67 1055.41 483.99 1240.72 433.21 1115.54 564.86 1121.77 690.72 1269.95 650.36
00018287 00000070 1005.04 215.96 482.16 589.82 1056.05 481.56 1242.54 431.36 1115.84 562.59 1121.00 689.02 1269.73 649.38
00018288 00000071 1006.46 213.68 481.54 591.95 1058.37 477.92 1245.54 429.26 1118.65 560.29 1121.29 686.09 1271.06 648.16
00018289 00000072 1008.51 215.55 481.80 587.42 1061.09 476.24 1246.88 428.22 1119.19 557.77 1123.96 682.59 1271.97 644.78
00018290 00000073 1010.55 214.95 481.87 585.99 1062.91 475.60 1246.56 424.89 1118.38 552.31 1126.34 681.14 1271.64 640.90
00018291 00000074 1012.80 212.99 481.10 588.15 1065.83 469.36 1255.04 418.34 1120.31 549.84 1124.64 677.05 1275.00 637.23
00018292 00000075 1012.15 201.61 494.46 592.91 1068.07 467.97 1251.75 415.06 1123.66 542.56 1132.37 669.96 1270.72 626.11
00018293 00000076 1019.38 193.72 493.29 594.99 1074.74 463.24 1257.00 410.42 1126.61 534.73 1134.90 663.07 1273.98 619.53
00018294 00000077 1024.82 188.20 490.59 593.91 1078.75 459.71 1260.71 406.12 1130.75 526.26 1137.57 656.27 1276.35 612.38
00018295 00000078 1029.93 180.59 489.91 596.53 1082.13 457.47 1263.48 401.46 1132.18 519.31 1139.28 652.42 1277.98 606.81
00018296 00000079 1033.20 171.45 488.30 601.30 1084.43 453.54 1267.39 397.56 1134.82 512.13 1140.54 648.44 1281.22 602.79
00018297 00000080 1036.06 175.04 486.70 593.78 1087.79 447.77 1271.28 394.56 1137.88 508.73 1146.05 644.20 1286.40 600.50
00018298 00000081 1039.23 172.81 485.96 592.47 1092.66 445.93 1275.57 392.85 1140.99 503.74 1148.61 642.32 1286.94 598.73
00018299 00000082 1042.99 171.40 484.01 592.83 1096.74 445.32 1279.07 391.81 1142.73 500.19 1150.42 641.37 1289.18 597.28
00018300 00000083 1036.51 172.56 481.56 590.63 1092.84 443.38 1286.04 387.93 1148.04 504.48 1147.51 644.95 1294.20 600.18
00018301 00000084 1037.53 168.90 481.61 591.98 1094.34 443.26 1286.82 386.97 1150.28 503.79 1150.22 643.80 1295.16 598.30
00018302 00000085 1038.24 171.39 483.29 589.07 1094.52 442.90 1287.65 386.32 1150.99 502.89 1151.07 643.34 1296.07 597.59
00018303 00000086 1039.95 170.90 483.25 588.62 1096.12 442.54 1289.14 386.05 1152.63 502.59 1152.66 642.74 1297.84 597.18
00018304 00000087 1040.68 170.77 484.41 590.38 1096.87 443.72 1289.35 386.85 1154.04 503.95 1153.39 643.16 1299.08 597.29
00018305 00000088 1041.84 170.84 484.07 590.39 1098.00 444.42 1289.59 386.69 1154.98 504.47 1155.00 643.46 1300.13 596.99
00018306 00000089 1042.40 172.16 484.14 590.15 1098.43 444.66 1289.82 387.24 1155.42 505.81 1156.76 644.32 1300.93 598.03
00018307 00000090 1043.17 173.75 484.76 588.62 1099.14 446.16 1290.02 388.43 1156.40 505.85 1157.33 644.85 1302.00 598.21
00018308 00000091 1043.88 173.38 485.57 589.25 1099.85 446.08 1290.62 388.74 1156.99 506.06 1158.46 644.98 1302.70 598.65
00018309 00000092 1044.16 173.96 486.00 589.09 1099.93 445.83 1290.99 388.01 1157.49 506.09 1159.10 645.46 1303.50 598.70
00018310 00000093 1044.85 171.18 486.23 591.48 1100.26 446.26 1291.28 388.17 1157.65 505.90 1159.34 645.44 1303.77 598.50
00018311 00000094 1044.34 169.78 487.00 593.36 1100.30 446.96 1291.30 387.96 1158.44 505.41 1159.74 645.61 1304.21 597.89
00018312 00000095 1044.47 169.88 487.18 592.21 1100.41 446.73 1292.05 387.68 1159.49 504.93 1159.76 645.37 1304.71 597.63
00018313 00000096 1045.24 167.47 485.72 593.06 1101.68 445.35 1292.45 386.17 1160.13 504.33 1161.00 644.46 1305.29 596.62
00018314 00000097 1045.25 165.39 484.18 592.36 1101.89 444.84 1293.17 385.85 1160.50 503.53 1160.55 643.62 1304.84 595.99
00018315 00000098 1046.00 164.84 483.81 591.46 1101.98 444.09 1293.37 385.01 1159.80 502.32 1159.91 642.61 1304.09 594.97
00018316 00000099 1045.90 164.80 483.48 590.77 1101.94 443.24 1293.45 384.22 1159.22 501.19 1160.06 641.93 1303.91 594.33
00018317 00000100 1045.79 165.15 483.50 590.01 1101.95 443.10 1293.49 383.99 1159.03 500.74 1159.92 641.50 1303.77 593.84
00018318 00000101 1045.73 164.29 482.80 590.27 1101.84 442.88 1293.43 383.90 1158.81 500.04 1159.55 640.87 1303.14 593.29
00018319 00000102 1045.66 163.41 483.17 591.42 1101.26 442.18 1293.65 383.24 1158.56 499.85 1158.43 640.45 1303.35 592.95
00018320 00000103 1045.66 162.85 482.12 591.68 1101.25 441.82 1293.60 382.91 1158.99 499.51 1158.67 639.95 1303.04 592.45
00018321 00000104 1045.43 162.58 481.57 590.67 1100.88 442.06 1293.77 382.64 1159.04 498.54 1158.54 639.89 1302.36 592.03
00018322 00000105 1045.68 162.50 480.77 589.40 1100.62 441.44 1294.56 382.54 1158.76 497.79 1157.71 639.05 1302.25 591.65
00018323 00000106 1045.10 161.24 482.48 590.78 1100.09 441.14 1294.70 380.21 1159.39 496.50 1158.53 639.80 1303.33 590.89
00018324 00000107 1045.22 158.56 482.97 594.00 1099.94 440.11 1294.74 379.18 1159.09 494.94 1158.09 639.65 1302.45 590.68
00018325 00000108 1045.32 159.92 483.07 591.04 1099.68 439.38 1295.07 377.31 1159.83 493.57 1158.48 638.83 1302.76 589.13
00018326 00000109 1044.78 158.39 483.85 592.47 1099.30 435.58 1295.31 374.46 1159.34 491.92 1157.38 636.68 1303.34 587.74
00018327 00000110 1045.08 158.07 484.12 593.17 1099.82 435.18 1296.14 373.59 1160.17 490.26 1157.67 636.36 1303.55 587.05
00018328 00000111 1046.25 157.53 482.59 592.66 1100.98 435.11 1296.76 373.18 1161.03 488.49 1158.17 635.54 1303.40 586.20
00018329 00000112 1046.34 158.33 484.75 591.00 1101.26 434.40 1297.98 373.08 1162.28 487.86 1159.20 634.68 1305.53 585.98
00018330 00000113 1047.23 156.01 484.52 593.29 1102.20 436.42 1299.75 373.99 1164.42 487.37 1159.10 635.74 1307.36 586.43
00018331 00000114 1048.07 156.01 485.77 592.12 1103.03 436.55 1301.76 373.78 1166.54 487.01 1160.26 635.52 1309.58 586.03
00018332 00000115 1049.98 155.34 485.16 593.50 1105.48 437.65 1303.49 375.56 1168.97 487.48 1162.38 634.82 1312.07 585.87
00018333 00000116 1051.41 156.32 484.71 591.63 1106.87 438.11 1305.32 376.07 1171.38 487.83 1164.50 634.95 1314.18 585.92
00018334 00000117 1052.62 158.48 484.61 588.55 1108.11 438.77 1306.79 376.53 1173.14 487.40 1165.70 634.29 1315.99 584.94
00018335 00000118 1053.94 157.28 485.24 590.65 1110.08 438.76 1307.98 376.07 1175.01 486.43 1167.74 634.17 1318.32 584.49
00018336 00000119 1054.60 156.48 487.03 593.08 1113.30 438.18 1309.53 375.73 1177.72 484.22 1170.38 634.55 1318.60 584.86
00018337 00000120 1055.93 157.02 487.47 592.14 1115.62 436.85 1310.39 374.58 1179.70 483.22 1172.59 634.38 1318.96 584.76
00018338 00000121 1056.58 153.20 487.49 596.74 1117.61 435.58 1311.05 373.84 1182.10 481.20 1174.87 633.51 1319.72 584.11
00018339 00000122 1056.45 153.47 489.47 598.56 1118.95 433.86 1312.41 371.27 1184.02 477.60 1176.38 632.96 1320.03 582.65
00018340 00000123 1057.59 152.69 490.41 600.53 1120.36 429.76 1313.41 367.67 1184.34 473.99 1177.38 631.32 1319.23 581.22
00018341 00000124 1060.82 154.86 483.16 598.22 1125.78 420.82 1318.70 363.84 1184.85 469.98 1177.10 629.90 1316.18 583.45
00018342 00000125 1063.97 151.00 482.39 601.57 1127.60 419.59 1320.10 361.76 1184.19 465.27 1178.29 628.71 1317.07 581.68
00018343 00000126 1066.78 150.76 480.49 599.54 1129.94 416.60 1321.83 359.13 1185.39 461.11 1179.30 625.00 1317.52 578.44
00018344 00000127 1068.49 145.90 487.81 603.07 1130.95 421.77 1319.24 357.80 1189.93 459.52 1186.61 624.50 1321.53 573.45
00018345 00000128 1072.38 143.38 485.78 603.28 1133.96 421.40 1320.22 355.58 1191.28 457.31 1189.74 623.59 1322.56 571.24
00018346 00000129 1075.45 144.89 484.85 599.97 1136.88 422.31 1323.45 355.18 1193.25 454.29 1191.70 623.05 1325.41 569.68
00018347 00000130 1076.37 140.68 480.02 602.41 1139.38 417.89 1326.64 357.79 1190.95 450.37 1187.33 618.75 1324.44 569.76
00018348 00000131 1078.18 140.86 479.43 602.98 1140.96 417.55 1329.31 356.97 1192.18 445.38 1187.91 617.32 1326.30 568.03
00018349 00000132 1079.25 138.18 479.26 601.85 1141.72 414.37 1329.98 355.76 1191.71 442.16 1187.32 613.32 1325.00 565.64
00018350 00000133 1081.66 136.88 480.88 597.45 1143.16 415.09 1334.69 356.28 1193.26 441.95 1185.93 608.84 1330.09 560.89
CROP_BBOX: 706 0 1900 1080
