Video ID: 	9EIcc8ap1SY
H: 	1080
W: 	1920
FPS: 	25.0

FRAME INDEX X0 Y0 W H [Landmarks (5 Points)]

00006001 00000000 420.03 91.10 459.24 645.88 589.81 289.16 795.99 267.30 768.05 361.21 667.12 554.39 835.00 531.16
00006002 DELETE   419.93 75.09 460.75 647.65 583.14 288.70 791.77 266.25 755.82 368.80 664.36 549.70 833.23 528.15
00006003 00000002 416.90 76.99 460.68 642.33 580.27 290.39 786.02 268.97 751.37 369.91 661.63 549.55 827.76 528.88
00006004 00000003 411.88 78.59 463.19 644.23 576.72 290.00 782.13 268.18 747.22 367.89 662.54 552.59 824.76 531.62
00006005 00000004 405.92 78.03 464.82 655.17 575.38 291.27 771.68 266.27 740.23 365.81 662.90 555.02 815.46 531.60
00006006 00000005 402.35 79.08 465.73 658.67 573.97 291.84 767.75 266.94 740.61 364.19 666.02 557.57 815.46 534.10
00006007 00000006 401.98 80.16 463.80 659.07 573.52 292.91 764.41 266.01 739.10 364.06 669.27 559.36 814.86 534.16
00006008 00000007 400.25 82.03 462.93 660.22 570.16 291.88 760.75 263.90 736.94 363.65 668.97 560.78 814.40 534.61
00006009 00000008 394.96 82.35 466.58 660.45 568.46 290.85 756.75 262.85 734.89 362.65 666.47 559.59 810.95 533.28
00006010 00000009 395.45 95.36 462.47 643.18 558.73 299.54 754.59 267.24 729.63 370.79 649.57 561.83 801.41 531.64
00006011 00000010 393.28 95.51 460.95 634.11 555.45 298.61 749.71 265.97 726.01 367.14 647.14 557.75 798.20 527.42
00006012 00000011 389.99 91.88 459.85 638.08 550.33 300.00 746.56 266.47 723.67 365.33 642.80 556.65 795.89 525.30
00006013 00000012 385.12 93.23 461.15 634.37 546.94 299.59 741.40 265.63 718.03 366.05 640.54 556.57 790.06 524.81
00006014 00000013 379.18 92.18 464.88 635.96 541.75 302.63 737.95 268.66 711.48 367.62 635.82 559.91 785.34 527.92
00006015 00000014 373.63 93.08 466.86 643.34 531.96 302.96 731.01 265.59 703.05 368.67 629.82 564.92 781.34 529.31
00006016 DELETE   371.43 93.74 465.06 640.43 527.74 305.05 723.99 262.24 696.34 372.61 631.03 567.80 776.14 527.62
00006017 00000016 367.86 95.71 465.54 643.44 520.86 305.48 718.63 261.01 689.89 371.77 625.51 570.55 774.14 529.05
00006018 DELETE   363.27 97.27 467.80 647.76 515.21 304.34 713.63 260.50 684.94 372.26 622.35 573.50 771.02 532.75
00006019 DELETE   359.36 99.00 468.68 655.21 510.02 304.65 704.96 260.17 679.33 369.05 617.94 575.20 767.11 534.18
00006020 00000019 354.67 98.93 471.54 655.30 506.78 305.99 701.07 259.09 675.54 370.00 616.41 576.89 765.51 533.90
00006021 00000020 352.73 103.12 470.14 651.49 503.69 307.87 697.93 260.12 672.44 371.67 612.50 577.77 762.63 534.15
00006022 00000021 349.13 105.19 471.24 656.83 500.29 308.13 694.68 260.84 669.43 371.25 607.80 581.38 759.34 537.80
00006023 DELETE   347.38 106.71 469.65 652.35 499.19 310.00 694.39 262.55 667.48 373.72 603.65 581.23 757.31 537.66
00006024 00000023 345.66 106.42 467.80 650.13 497.48 312.89 695.56 263.92 664.95 375.94 598.31 580.51 757.36 535.42
00006025 00000024 345.34 105.07 467.47 650.41 496.48 315.54 695.91 265.73 663.99 377.66 597.18 582.04 757.97 536.21
00006026 00000025 346.15 106.67 466.59 645.69 496.85 318.64 696.25 267.15 663.47 380.61 596.86 582.03 757.60 534.74
00006027 00000026 346.24 108.83 466.55 646.34 496.11 319.57 696.09 267.88 664.14 383.75 596.66 583.82 757.48 536.28
00006028 00000027 346.02 108.94 467.76 648.87 495.54 321.20 695.92 267.98 663.25 384.92 595.25 585.06 757.14 536.40
00006029 00000028 346.57 108.56 469.24 647.27 498.34 319.69 697.16 268.38 665.33 385.82 599.58 584.32 757.54 537.47
00006030 00000029 349.16 108.35 470.23 648.47 499.42 318.95 695.40 266.44 663.65 385.78 604.71 585.64 757.43 538.33
00006031 00000030 352.11 110.04 469.68 645.64 500.50 318.61 695.74 265.47 666.16 387.39 609.41 587.51 760.38 539.83
00006032 00000031 353.31 109.23 470.97 647.00 503.75 319.32 701.37 267.62 670.79 391.49 608.75 586.86 762.23 540.11
00006033 00000032 353.75 109.83 471.12 649.89 505.63 321.02 702.68 269.37 674.32 394.12 609.33 587.88 763.76 540.96
00006034 00000033 352.98 111.39 473.18 648.72 507.17 320.63 704.23 270.33 675.89 396.11 609.90 588.35 763.43 542.43
00006035 00000034 354.60 111.46 472.12 648.56 507.07 320.83 705.06 269.81 675.62 396.54 610.40 588.98 763.86 542.36
00006036 00000035 355.80 112.08 470.35 645.10 506.10 321.78 705.58 271.13 673.89 396.52 607.99 588.71 762.93 542.31
00006037 00000036 356.07 111.60 469.76 646.77 505.61 320.56 707.21 270.61 674.74 396.16 606.84 589.88 762.45 544.01
00006038 00000037 354.92 112.29 471.24 648.05 505.70 319.77 705.34 270.58 673.42 395.44 608.09 590.90 761.94 545.92
00006039 00000038 354.58 112.32 472.86 653.70 503.57 318.59 703.89 270.73 669.97 394.38 608.11 594.87 757.64 551.27
00006040 00000039 352.66 112.27 473.53 652.80 504.35 319.26 706.05 271.55 670.25 396.53 604.51 593.74 757.69 549.77
00006041 00000040 352.24 113.91 474.38 652.22 503.31 320.45 703.72 271.06 668.17 397.07 602.29 592.04 755.52 546.95
00006042 00000041 351.27 116.52 475.03 647.94 502.69 322.32 701.97 272.42 665.93 399.53 600.52 590.86 753.79 545.53
00006043 00000042 350.31 114.70 475.50 653.92 501.68 321.07 703.45 270.40 666.51 401.02 601.13 592.91 754.58 546.84
00006044 00000043 352.48 115.64 470.41 645.82 502.01 322.16 708.16 272.07 668.62 405.23 600.52 594.67 756.01 548.65
00006045 00000044 352.03 114.19 470.16 648.34 499.40 322.41 709.96 272.76 666.00 409.30 592.99 594.54 752.74 548.87
00006046 00000045 350.57 118.40 470.56 644.29 496.66 320.26 708.18 273.79 662.69 408.96 585.89 593.52 750.32 550.51
00006047 00000046 350.57 121.33 471.99 649.56 495.62 321.10 707.28 275.80 660.92 411.96 584.56 597.16 747.44 555.30
00006048 00000047 348.43 122.37 473.76 650.18 495.61 323.18 705.82 275.67 659.24 413.43 586.24 599.52 747.28 555.84
00006049 00000048 347.29 122.20 473.44 647.25 495.18 324.48 702.89 275.89 655.96 417.22 587.46 597.90 746.57 553.33
00006050 00000049 346.50 123.14 470.93 640.93 492.88 324.59 699.58 276.95 650.25 418.73 584.00 595.07 743.23 551.37
00006051 00000050 347.18 121.92 467.47 638.87 490.85 326.38 700.74 278.44 646.08 420.46 579.69 595.67 739.53 552.03
00006052 00000051 341.98 116.93 472.35 640.89 480.54 333.46 691.27 294.83 637.06 423.82 570.39 594.53 732.44 562.18
00006053 00000052 345.08 124.76 468.72 644.27 487.37 324.99 698.50 279.72 640.35 416.36 574.16 598.23 733.62 556.72
00006054 00000053 343.38 126.26 468.26 648.09 484.36 324.97 695.77 280.98 638.36 415.90 571.49 601.63 730.53 561.00
00006055 00000054 338.44 122.55 472.48 650.50 478.23 333.34 686.04 300.23 632.48 421.38 568.09 601.22 723.66 573.33
00006056 00000055 338.77 122.63 468.47 649.70 476.17 333.96 684.60 300.99 629.37 422.85 564.01 601.75 719.80 574.13
00006057 00000056 341.12 126.43 464.29 643.02 479.37 327.64 692.34 285.80 628.70 423.03 561.31 599.81 720.07 561.37
00006058 00000057 340.55 125.39 463.82 643.65 478.11 328.88 691.27 287.54 625.90 422.50 559.46 600.24 716.00 562.58
00006059 00000058 339.42 127.97 467.49 637.78 472.91 334.21 689.36 289.32 625.12 427.37 556.49 606.41 709.54 566.56
00006060 00000059 339.38 128.66 466.72 635.47 472.26 334.83 689.01 291.08 624.49 427.19 555.06 606.25 708.37 567.42
00006061 00000060 340.14 131.12 464.92 634.12 471.56 335.58 688.22 291.72 623.03 427.99 553.85 607.65 707.22 568.75
00006062 00000061 340.18 134.85 461.47 628.63 473.55 344.23 685.91 302.74 622.62 428.47 553.48 608.87 706.36 572.40
00006063 00000062 340.48 135.67 461.49 627.76 473.10 351.38 685.47 310.15 620.34 429.92 550.43 609.88 705.18 573.94
00006064 00000063 340.64 137.04 461.38 628.41 471.20 348.35 685.36 307.05 617.01 430.11 547.34 610.35 703.63 573.99
00006065 00000064 340.56 135.76 461.11 634.52 469.31 343.61 686.77 302.38 617.82 431.42 547.48 613.08 704.18 576.76
00006066 00000065 340.38 135.19 462.43 638.34 467.56 341.19 688.41 298.87 616.52 432.35 546.74 615.16 704.21 577.82
00006067 00000066 338.42 133.69 463.59 641.23 466.19 337.24 687.36 294.66 615.62 433.63 546.30 615.05 702.34 577.35
00006068 00000067 338.36 132.87 463.64 643.58 465.06 335.20 687.61 292.34 614.78 433.14 545.86 615.29 701.66 577.35
00006069 00000068 338.97 132.30 464.92 643.64 465.90 332.77 688.12 290.76 615.37 432.31 545.43 613.29 701.18 575.83
00006070 00000069 340.78 133.69 464.97 642.57 467.39 332.53 689.71 288.83 617.53 430.10 547.49 612.29 704.51 573.45
00006071 00000070 343.85 137.39 466.05 648.69 477.38 334.09 699.24 298.50 621.91 415.01 542.85 611.17 704.13 578.02
00006072 00000071 344.64 137.86 466.46 647.97 478.92 333.61 701.18 298.36 623.67 414.44 546.02 613.62 703.51 581.22
00006073 00000072 345.46 136.92 466.45 646.87 479.91 334.19 702.37 299.63 625.24 414.28 545.87 613.32 705.99 581.30
00006074 00000073 343.35 132.22 465.24 639.07 475.64 328.94 696.48 293.44 621.44 427.68 551.52 603.89 713.35 571.45
00006075 00000074 343.45 131.78 465.83 639.03 476.26 329.17 697.97 293.16 622.41 428.57 551.80 602.79 717.03 569.72
00006076 00000075 348.07 130.93 465.48 646.80 481.05 334.47 703.99 298.99 627.04 416.53 545.42 607.51 714.12 573.88
00006077 00000076 348.32 131.88 464.80 643.89 480.48 334.22 703.01 298.56 626.45 415.86 544.28 608.12 711.92 574.34
00006078 00000077 345.46 133.43 466.83 648.01 480.77 333.49 702.75 299.33 626.68 413.91 544.66 609.41 709.19 577.32
00006079 00000078 345.87 134.72 466.50 646.10 481.50 332.89 703.67 298.76 626.52 413.73 545.71 609.63 708.38 577.74
00006080 00000079 347.03 133.77 466.10 647.51 482.21 332.82 704.17 298.75 627.02 413.94 546.35 610.64 709.04 578.87
00006081 00000080 348.26 135.91 465.24 645.54 482.57 332.64 704.92 298.54 627.25 415.10 546.35 610.67 709.41 578.90
00006082 00000081 349.33 133.40 464.93 647.61 482.83 332.96 705.78 299.13 627.49 416.25 547.01 611.59 709.85 580.07
00006083 00000082 349.59 134.59 464.58 647.84 483.20 333.56 706.03 299.90 628.32 417.12 546.84 611.61 710.90 580.25
00006084 00000083 352.08 132.13 463.12 644.25 483.10 333.34 706.88 300.23 628.08 419.02 546.09 609.42 712.96 578.12
00006085 00000084 342.76 126.67 466.85 632.78 470.67 335.61 691.93 306.41 618.82 435.18 549.01 599.57 715.74 576.13
00006086 00000085 341.88 125.30 467.52 634.13 470.09 335.92 691.25 306.78 617.90 435.22 548.16 599.49 714.89 576.10
00006087 00000086 340.57 127.60 469.74 634.95 470.16 335.96 690.33 307.64 617.84 434.52 549.50 602.09 712.96 579.30
00006088 00000087 350.15 130.85 465.27 648.25 481.03 335.62 704.08 303.33 623.73 419.63 544.38 610.80 708.72 580.56
00006089 00000088 348.36 132.92 465.97 649.99 479.58 335.02 702.99 302.96 622.57 419.83 542.68 612.29 706.49 582.33
00006090 00000089 348.58 134.06 466.45 647.67 479.69 335.13 702.74 303.13 622.08 419.50 542.74 612.15 705.61 582.39
00006091 00000090 347.75 134.46 466.69 646.14 479.88 334.63 702.11 303.37 621.44 418.97 542.40 610.90 704.62 581.81
00006092 00000091 347.01 133.09 467.20 650.72 479.14 334.33 702.10 302.56 620.90 418.12 541.73 611.25 704.39 581.70
00006093 00000092 345.36 131.65 468.03 651.78 477.80 334.14 700.53 301.93 618.91 416.10 540.22 611.58 703.28 581.59
00006094 00000093 343.32 132.38 468.56 649.40 476.72 333.78 699.66 301.95 618.23 414.84 538.22 611.08 701.02 581.38
00006095 00000094 336.45 127.30 468.28 640.16 466.55 333.99 682.56 308.02 609.71 430.53 543.39 603.32 699.22 582.40
00006096 00000095 343.40 133.38 466.59 647.56 474.90 332.73 698.00 301.54 615.91 418.03 537.33 610.51 699.91 581.24
00006097 00000096 342.34 133.42 468.14 651.74 476.01 332.15 698.44 302.09 616.26 417.75 536.74 610.68 699.34 582.50
00006098 00000097 341.49 134.55 469.21 653.67 476.89 331.20 698.24 302.27 616.92 417.52 536.75 610.58 699.11 583.54
00006099 00000098 341.99 135.29 468.52 651.75 477.01 331.57 697.96 302.99 615.77 418.35 535.31 608.40 698.15 581.64
00006100 00000099 342.07 135.35 469.04 650.11 477.66 330.42 697.79 302.92 616.10 419.70 536.42 606.28 697.17 580.59
00006101 00000100 342.27 134.08 468.81 650.28 475.97 330.96 696.75 301.97 614.36 418.67 535.74 606.78 698.55 579.69
00006102 00000101 335.78 125.56 469.42 637.09 466.34 332.78 683.19 307.62 607.99 433.89 542.29 598.28 699.78 578.09
00006103 00000102 341.14 130.39 468.46 631.24 469.15 333.53 691.28 294.72 613.54 434.05 542.88 605.36 699.74 570.71
00006104 00000103 336.58 126.12 468.76 632.50 466.08 333.28 684.65 307.12 607.37 434.24 541.80 597.31 700.57 576.33
00006105 00000104 336.46 124.54 469.80 636.16 467.22 332.51 684.69 307.38 608.35 433.21 541.97 596.68 700.91 576.38
00006106 00000105 336.98 127.05 469.15 635.69 467.98 334.21 685.89 309.92 609.55 435.85 542.59 598.95 701.18 579.23
00006107 00000106 337.45 128.93 468.75 634.83 468.50 334.80 685.32 310.95 610.39 435.66 543.71 601.01 700.06 581.68
00006108 00000107 345.86 135.29 467.14 649.09 477.88 331.61 700.58 303.37 618.16 421.01 538.51 611.92 699.90 585.63
00006109 00000108 345.93 135.94 467.54 654.33 479.01 331.30 700.91 303.26 617.45 420.06 539.25 613.89 698.45 588.23
00006110 00000109 345.53 136.95 467.35 651.64 479.42 331.03 701.39 303.73 618.32 419.56 538.45 612.96 698.30 587.91
00006111 00000110 345.55 136.05 467.30 650.74 478.09 331.96 700.15 303.70 616.38 419.72 537.38 611.58 698.70 585.45
00006112 00000111 340.14 128.91 467.22 628.04 467.79 333.52 686.95 309.55 610.53 436.33 541.33 598.06 703.13 578.99
00006113 00000112 343.17 131.15 467.57 627.42 471.08 335.32 693.46 298.40 616.29 436.51 541.06 603.10 701.41 569.87
00006114 00000113 340.70 127.76 467.15 629.54 467.61 333.43 688.62 309.45 611.16 437.16 539.65 596.50 705.85 577.34
00006115 00000114 347.80 133.44 466.60 645.28 479.40 332.58 702.27 305.50 619.49 426.24 538.94 605.96 701.52 580.66
00006116 00000115 342.66 130.06 468.67 642.24 479.43 333.34 697.34 307.69 614.59 439.44 543.40 600.39 697.91 577.10
00006117 00000116 345.19 135.43 464.20 630.23 480.18 334.25 699.34 310.82 614.55 444.72 543.46 599.01 696.87 577.49
00006118 00000117 345.04 138.10 464.84 630.07 479.37 335.14 698.93 311.53 614.21 446.93 541.74 601.07 697.66 579.45
00006119 00000118 345.05 139.58 463.37 628.77 478.79 334.88 698.40 311.12 614.25 447.03 541.35 603.05 696.68 581.39
00006120 00000119 342.69 140.27 464.07 631.36 478.04 334.47 696.74 310.06 613.99 444.37 543.10 605.66 696.00 583.46
00006121 00000120 342.64 141.07 464.12 632.44 477.11 334.69 696.25 309.70 613.54 444.12 542.60 606.06 697.20 583.43
00006122 00000121 340.49 137.32 466.80 637.91 478.29 334.29 696.40 309.24 615.30 442.89 542.69 604.90 697.23 582.18
00006123 00000122 339.34 136.30 466.43 640.51 477.74 332.75 695.57 307.72 616.16 440.77 542.60 603.65 697.44 580.83
00006124 00000123 340.77 139.52 464.02 632.74 472.24 336.05 692.45 302.81 616.75 442.32 544.06 611.23 698.85 581.33
00006125 00000124 339.96 142.16 463.65 631.39 470.51 337.17 690.49 303.18 615.23 443.91 543.37 613.44 697.40 582.97
00006126 00000125 339.76 142.31 462.88 631.49 470.42 337.37 690.38 303.83 615.10 443.12 543.98 614.14 697.34 584.11
00006127 00000126 339.57 143.15 462.58 629.33 471.01 336.56 690.27 303.08 616.73 442.86 544.81 613.37 697.68 583.34
00006128 00000127 340.07 140.41 463.13 630.43 472.15 335.58 690.91 302.56 617.53 441.57 544.37 609.94 697.43 580.24
00006129 00000128 339.61 137.97 464.68 626.72 471.84 334.98 690.82 299.99 618.24 440.10 546.07 607.08 698.93 575.55
00006130 00000129 340.12 137.45 464.55 625.56 472.44 334.31 690.96 298.63 620.21 437.05 547.84 605.85 700.91 573.76
00006131 00000130 341.76 135.71 464.61 628.59 473.41 334.16 692.74 297.98 621.62 434.82 548.40 606.16 702.50 573.78
00006132 00000131 343.11 137.37 465.50 626.83 474.25 334.58 694.85 298.97 622.06 435.57 548.80 606.90 703.42 575.04
00006133 00000132 341.37 133.77 466.94 636.05 481.07 331.40 699.93 305.31 622.61 435.94 547.89 600.92 703.74 576.76
00006134 00000133 343.56 133.88 466.04 638.78 483.29 332.85 701.10 307.71 625.11 438.30 550.14 603.02 706.85 579.49
00006135 00000134 345.35 136.26 464.74 635.56 484.99 333.02 703.79 307.92 627.98 441.20 552.26 603.91 708.81 580.43
00006136 00000135 347.36 136.24 463.57 635.63 485.81 333.26 704.83 307.33 629.72 443.08 554.46 604.61 711.94 580.38
00006137 00000136 347.91 134.84 464.06 637.65 487.26 333.86 706.31 307.40 632.00 444.68 556.96 605.69 713.83 580.98
00006138 00000137 348.46 137.13 464.04 634.52 487.97 334.25 707.54 308.15 633.63 445.26 558.52 605.58 715.45 581.03
00006139 00000138 348.95 138.41 463.55 632.64 487.65 334.46 707.39 307.53 634.00 446.99 559.00 606.53 716.81 581.22
00006140 00000139 349.19 139.34 463.49 631.62 488.44 335.27 708.09 308.51 634.98 447.36 559.50 607.13 718.24 582.00
00006141 00000140 349.91 143.27 463.26 627.43 488.32 335.73 708.14 308.42 635.55 448.53 561.14 608.74 719.21 583.18
00006142 00000141 352.10 145.34 460.92 626.23 487.67 336.63 707.62 309.23 635.29 450.27 560.91 610.65 719.28 585.13
00006143 00000142 352.37 147.64 460.73 623.72 487.98 337.53 708.15 310.61 635.67 452.58 561.20 611.50 719.70 586.40
00006144 00000143 355.35 158.70 458.43 620.14 493.25 342.09 712.14 312.95 637.47 448.27 556.30 618.48 714.23 591.50
00006145 00000144 353.25 149.13 458.79 617.30 488.45 336.93 709.74 311.18 636.51 452.82 560.33 611.09 719.91 586.88
00006146 00000145 353.80 147.39 458.81 620.26 489.36 336.87 711.29 311.30 637.26 452.73 560.76 611.21 720.96 587.13
00006147 00000146 352.50 148.13 460.02 620.52 488.54 335.82 711.19 309.31 637.62 450.48 561.74 612.37 721.30 587.55
00006148 00000147 355.63 157.18 459.00 624.45 495.44 339.38 715.83 312.38 641.39 442.86 557.79 620.32 715.63 595.24
00006149 00000148 355.30 155.40 460.71 631.75 497.64 339.00 717.32 313.52 644.52 443.02 560.74 622.12 717.26 598.54
00006150 00000149 356.96 154.81 461.47 631.82 499.76 339.66 719.29 314.75 647.11 444.53 563.49 622.17 719.13 599.19
00006151 00000150 360.12 159.24 459.47 628.04 502.71 341.61 721.39 316.04 649.76 446.82 566.87 624.50 722.07 600.97
00006152 00000151 362.11 159.97 459.74 630.44 504.73 342.67 723.42 317.11 652.07 447.95 570.67 626.82 725.14 603.45
00006153 00000152 362.44 162.52 461.36 629.23 506.74 344.67 724.96 318.28 653.56 451.24 573.60 629.26 727.15 605.33
00006154 00000153 363.08 161.99 464.77 634.20 507.14 345.22 725.93 318.36 652.91 452.86 574.72 630.73 728.74 606.32
00006155 00000154 362.72 160.78 466.87 637.39 508.41 345.91 727.02 319.13 655.66 453.00 577.27 631.29 730.64 606.78
00006156 00000155 362.42 160.89 468.18 639.82 508.90 346.26 727.91 319.53 657.69 452.97 578.38 632.32 732.21 607.80
00006157 00000156 363.48 159.60 467.50 640.77 508.99 347.21 727.72 319.77 657.23 452.87 579.60 632.69 732.57 607.56
00006158 00000157 362.91 160.87 468.45 642.81 508.60 348.18 727.64 320.78 656.73 455.89 579.60 633.93 732.94 608.84
00006159 00000158 363.78 162.29 467.90 641.40 508.28 348.89 727.53 321.59 655.97 457.67 579.41 635.76 732.06 610.74
00006160 00000159 364.66 161.80 466.45 642.01 507.91 349.54 726.65 321.49 654.48 456.75 578.81 636.36 731.20 610.84
00006161 00000160 363.52 163.31 465.52 639.67 506.79 349.46 724.48 320.70 653.04 457.98 578.00 636.00 729.64 609.97
00006162 00000161 362.38 164.78 464.96 640.09 504.97 349.60 723.12 319.81 650.70 458.72 576.32 636.92 728.21 610.11
00006163 00000162 362.04 167.87 462.89 635.03 503.51 348.46 721.56 318.55 649.52 458.51 575.12 636.80 726.23 609.92
00006164 00000163 361.53 166.32 461.39 635.89 501.24 348.33 718.89 317.99 646.01 457.90 573.16 636.33 722.73 609.34
00006165 00000164 359.59 169.16 461.46 634.18 498.05 349.59 715.54 319.07 640.20 462.15 569.29 637.37 718.13 610.39
00006166 00000165 354.75 171.39 463.88 634.38 492.38 351.81 711.41 320.90 632.79 467.49 563.32 638.14 712.62 610.88
00006167 00000166 352.95 168.46 463.37 638.60 489.10 353.67 709.12 325.12 626.57 468.65 556.41 640.02 705.37 614.99
00006168 00000167 348.70 167.83 464.51 641.97 482.38 356.15 704.66 325.83 620.05 465.85 551.27 641.52 700.95 614.88
00006169 00000168 345.92 169.54 465.16 640.98 478.85 357.26 701.38 325.13 616.64 464.83 548.57 642.96 700.55 614.56
00006170 00000169 344.58 168.19 465.53 642.56 476.15 357.75 699.25 324.20 614.49 466.11 548.52 643.70 699.60 613.94
00006171 00000170 342.15 168.57 466.32 641.66 473.77 357.83 697.51 323.70 612.60 466.10 546.49 642.89 699.24 612.34
