Video ID: 	HtyOjJdA194
H: 	1080
W: 	1920
FPS: 	29.97002997002997

FRAME INDEX X0 Y0 W H [Landmarks (5 Points)]

00028460 00000000 870.62 178.96 388.77 540.68 939.91 400.59 1096.23 376.99 1004.69 484.02 981.05 586.70 1119.22 567.88
00028461 DELETE   869.88 176.92 387.74 538.51 937.92 399.08 1096.64 378.42 1003.00 482.95 976.84 584.62 1116.46 568.30
00028462 DELETE   869.49 178.15 386.85 535.95 937.10 399.36 1096.82 379.63 1002.48 484.37 976.17 585.78 1115.66 570.26
00028463 DELETE   867.84 181.17 388.88 535.59 937.00 402.76 1097.41 382.57 1003.51 487.62 976.65 589.55 1116.33 573.60
00028464 00000004 864.77 185.75 391.99 533.50 936.00 405.84 1099.67 385.91 1005.83 494.80 977.22 592.57 1119.42 576.72
00028465 00000005 862.13 190.82 393.28 530.26 934.62 412.59 1100.73 392.84 1007.04 503.48 978.33 598.25 1121.47 581.95
00028466 00000006 858.85 196.15 395.20 529.27 934.08 417.92 1099.12 399.66 1006.63 511.96 981.04 603.57 1120.21 587.65
00028467 00000007 858.49 199.19 392.46 532.56 931.69 422.38 1096.73 405.37 1002.36 519.95 978.43 609.38 1117.69 594.39
00028468 00000008 855.65 200.79 391.28 535.75 928.31 426.75 1093.92 410.90 1000.07 524.81 976.14 614.53 1113.70 600.46
00028469 00000009 851.90 205.02 390.30 532.73 924.17 429.55 1089.72 414.77 996.32 528.59 971.38 616.67 1109.10 603.34
00028470 00000010 847.09 206.59 392.03 531.05 918.51 431.23 1084.84 416.08 991.15 531.40 966.46 618.52 1104.09 604.83
00028471 00000011 839.26 208.31 395.84 531.05 911.85 432.89 1079.42 416.20 986.48 535.21 963.05 621.33 1101.02 606.37
00028472 DELETE   834.53 212.33 394.94 529.29 906.37 435.21 1073.86 416.16 981.44 536.88 961.42 626.55 1095.81 609.68
00028473 00000013 829.40 218.42 390.67 527.07 899.45 437.22 1065.45 419.02 972.27 541.10 955.50 631.34 1087.18 615.46
00028474 DELETE   825.37 219.33 385.94 532.77 895.77 441.01 1056.40 425.59 965.94 547.80 951.27 635.17 1077.65 621.96
00028475 00000015 819.33 216.40 385.39 539.39 885.84 452.99 1047.34 430.69 964.65 553.38 943.43 644.94 1072.61 625.07
00028476 00000016 812.43 217.43 386.65 549.51 879.17 454.53 1039.19 427.62 955.22 549.78 935.52 645.98 1071.27 622.52
00028477 00000017 810.17 222.54 384.96 552.65 873.71 454.57 1026.60 421.67 943.12 542.05 926.17 637.57 1069.23 609.14
00028478 00000018 804.17 222.73 387.54 552.35 868.20 450.05 1016.39 415.94 933.79 537.73 921.98 633.73 1063.56 604.64
00028479 00000019 792.40 213.57 395.17 553.95 859.12 446.10 1013.79 416.14 927.16 539.45 918.13 630.39 1052.90 604.38
00028480 00000020 788.13 215.62 397.05 544.08 856.77 448.39 1013.77 416.83 927.07 538.65 916.35 630.12 1049.84 603.06
00028481 00000021 786.02 219.08 396.49 531.82 856.72 450.07 1014.79 419.33 929.90 538.65 916.10 629.48 1045.84 603.62
00028482 00000022 784.67 221.39 397.85 524.86 858.45 454.01 1017.93 421.33 937.64 542.78 921.69 630.91 1047.72 603.68
00028483 00000023 784.21 225.54 400.30 524.02 863.43 460.76 1023.59 424.68 946.19 545.75 928.50 636.15 1054.27 606.34
00028484 DELETE   787.99 230.83 400.95 525.38 871.08 465.40 1030.82 429.84 955.60 553.09 939.76 641.45 1062.99 612.00
00028485 00000025 802.74 235.75 395.31 528.52 879.29 468.41 1036.73 430.93 967.19 561.07 950.03 655.60 1075.71 624.37
00028486 DELETE   801.66 240.31 401.68 529.97 883.19 475.68 1044.07 436.56 975.02 573.13 958.27 664.40 1085.20 630.61
00028487 DELETE   803.26 249.74 404.39 527.45 888.30 484.14 1047.99 445.78 980.28 585.86 964.26 672.70 1088.60 639.47
00028488 00000028 805.92 252.92 405.11 530.79 889.99 488.55 1052.34 452.67 982.37 594.47 967.52 678.99 1090.96 647.77
00028489 00000029 807.92 258.91 409.04 533.48 892.07 493.01 1054.31 456.83 982.58 598.78 969.01 682.49 1092.51 651.29
00028490 00000030 812.10 253.34 407.24 538.02 895.85 487.42 1061.20 456.96 990.03 597.90 971.54 682.38 1100.23 654.84
00028491 00000031 816.14 254.58 405.28 534.92 897.45 486.39 1062.30 456.93 990.17 597.69 973.37 681.35 1101.06 654.68
00028492 00000032 820.17 259.25 404.26 530.49 901.44 481.59 1065.01 452.92 985.77 591.55 971.66 674.60 1101.58 650.11
00028493 00000033 824.57 257.34 400.77 528.78 904.36 478.57 1066.96 450.70 988.26 589.13 972.65 673.15 1100.38 649.76
00028494 00000034 827.73 255.62 400.47 528.84 906.51 475.14 1069.64 446.57 991.05 586.98 973.74 671.12 1101.92 647.73
00028495 00000035 829.40 256.21 402.71 527.34 908.88 474.85 1075.42 445.21 995.37 585.23 976.60 670.20 1107.58 646.25
00028496 00000036 830.34 257.18 403.67 527.64 911.48 475.53 1078.41 445.98 998.83 587.49 979.39 670.59 1111.65 646.59
00028497 00000037 832.42 257.22 402.46 526.96 914.00 478.03 1081.73 448.40 1001.95 590.30 981.20 672.58 1114.96 648.35
00028498 00000038 833.23 258.12 401.56 525.30 914.82 480.00 1083.09 450.09 1003.35 591.39 981.26 673.01 1115.70 648.65
00028499 00000039 833.57 257.29 402.63 526.39 915.02 478.33 1082.68 449.13 1002.74 590.21 980.75 671.95 1114.14 648.18
00028500 00000040 833.33 256.52 403.55 526.45 914.82 475.94 1083.15 447.35 1002.13 586.29 980.78 670.42 1111.89 647.64
00028501 00000041 834.48 255.60 403.07 525.95 914.01 474.01 1082.41 445.22 1000.78 583.14 980.79 669.13 1110.52 646.40
00028502 00000042 834.49 254.28 403.15 528.81 912.48 472.71 1079.05 443.09 998.49 578.44 980.37 667.64 1108.34 644.53
00028503 00000043 835.48 252.15 402.02 530.50 911.82 470.65 1076.79 440.33 997.36 575.28 981.22 666.66 1107.07 643.28
00028504 00000044 835.76 250.80 402.56 532.82 911.99 469.81 1077.37 438.98 997.83 575.50 982.85 667.36 1109.45 643.48
00028505 00000045 831.77 247.55 404.76 530.77 909.24 469.60 1078.73 435.75 996.79 575.42 986.38 659.44 1116.28 631.10
00028506 00000046 832.23 247.04 405.40 530.13 909.23 469.11 1080.02 436.12 996.65 574.67 985.47 658.27 1117.48 630.61
00028507 00000047 834.21 241.74 404.50 533.75 910.93 466.71 1079.28 433.75 997.82 569.65 985.86 654.39 1118.14 626.70
00028508 00000048 833.72 236.88 404.99 536.67 912.31 462.65 1079.35 429.62 999.17 563.34 986.85 650.76 1118.33 623.12
00028509 00000049 834.17 233.59 405.90 537.80 913.42 459.55 1080.87 427.73 1000.57 558.42 986.10 647.78 1118.82 621.06
00028510 00000050 835.57 230.64 405.77 540.43 914.72 458.68 1082.85 427.49 1002.29 558.44 988.42 647.91 1121.25 621.65
00028511 00000051 837.62 235.15 404.21 533.50 916.81 464.75 1084.10 432.12 1004.58 562.44 989.99 649.66 1122.94 622.20
00028512 00000052 842.49 238.32 399.00 527.01 920.22 471.37 1085.59 437.56 1009.47 566.34 992.67 650.23 1126.03 621.80
00028513 DELETE   844.26 238.72 399.60 527.13 922.14 473.19 1089.05 439.90 1011.70 568.83 994.30 652.27 1128.77 624.30
00028514 00000054 844.73 237.44 402.08 534.52 922.41 470.94 1086.94 438.48 1010.32 569.61 995.32 654.19 1126.56 627.03
00028515 00000055 844.62 236.16 403.47 540.33 922.25 468.91 1085.43 434.64 1009.01 565.74 996.31 654.08 1127.32 625.35
00028516 00000056 845.03 236.05 402.20 538.63 921.90 467.27 1085.32 432.87 1008.58 563.93 995.94 652.76 1127.02 623.94
00028517 00000057 849.67 237.71 399.64 536.17 924.90 469.04 1089.05 435.11 1011.08 566.39 997.35 653.57 1129.24 625.07
00028518 00000058 855.37 241.22 397.98 535.85 928.26 470.64 1093.15 439.34 1014.65 572.01 1001.07 656.76 1132.90 630.29
00028519 00000059 867.75 240.84 393.61 540.29 934.90 472.28 1095.74 436.93 1016.99 573.26 1005.22 667.89 1138.41 639.08
00028520 00000060 869.69 243.41 397.11 539.65 939.93 471.27 1101.69 438.68 1023.22 575.91 1010.12 667.80 1143.04 640.63
00028521 00000061 874.86 239.65 394.61 540.95 944.48 469.33 1108.68 437.93 1030.19 575.01 1011.69 665.93 1145.92 639.65
00028522 00000062 877.92 234.91 393.00 541.15 945.62 468.62 1112.76 437.58 1033.39 576.12 1013.36 665.69 1149.50 639.42
00028523 00000063 879.59 235.27 391.37 537.55 947.08 467.26 1114.01 438.12 1034.29 574.82 1010.99 661.76 1148.83 636.89
00028524 00000064 880.02 235.03 391.64 538.70 947.20 467.08 1112.54 438.68 1032.43 574.96 1011.05 661.82 1147.11 637.58
00028525 00000065 879.93 234.31 392.77 544.78 945.65 468.11 1109.83 437.34 1028.83 572.48 1009.99 662.45 1148.84 636.11
00028526 00000066 879.88 235.77 390.97 545.47 943.81 467.35 1105.82 435.05 1024.51 570.32 1009.30 662.93 1146.15 635.72
00028527 00000067 878.42 237.51 389.84 540.75 940.84 466.11 1102.26 435.28 1019.35 568.88 1005.81 661.59 1141.66 635.86
00028528 00000068 876.17 238.63 389.80 537.03 938.53 466.02 1100.93 437.80 1017.16 569.69 999.71 659.43 1137.06 636.13
00028529 00000069 874.46 240.14 391.12 535.13 938.06 465.88 1100.17 439.32 1016.34 571.66 998.57 659.22 1135.45 637.24
00028530 00000070 874.59 240.24 392.25 534.67 938.51 467.46 1100.98 439.55 1018.12 571.87 999.57 659.37 1137.28 636.10
00028531 00000071 876.65 238.91 392.30 534.48 941.15 467.38 1104.92 438.91 1023.44 571.78 1002.95 658.72 1141.10 634.63
00028532 00000072 880.03 236.11 390.76 535.09 944.44 466.28 1110.33 438.06 1029.48 572.59 1006.46 657.98 1145.51 634.07
00028533 00000073 880.68 233.53 392.20 535.53 945.48 464.38 1112.39 437.35 1032.19 572.76 1009.30 657.10 1148.25 633.85
00028534 00000074 883.14 230.26 390.64 534.77 947.12 462.94 1113.99 435.70 1033.40 571.84 1012.62 656.16 1150.47 632.68
00028535 00000075 886.70 228.08 389.44 534.97 949.04 461.77 1116.55 434.10 1034.51 570.06 1015.52 656.49 1152.61 632.22
00028536 00000076 885.54 224.25 394.25 536.86 949.33 454.72 1119.30 429.07 1031.76 571.09 1015.81 652.30 1153.79 630.54
00028537 00000077 887.63 223.16 394.34 536.84 951.74 453.10 1121.16 428.35 1034.01 571.01 1017.38 650.81 1154.58 629.81
00028538 00000078 889.99 223.66 393.66 536.82 953.88 452.24 1123.48 427.62 1036.45 571.20 1019.44 651.31 1156.56 630.43
00028539 00000079 891.80 221.63 394.93 538.82 956.22 451.79 1125.57 426.07 1039.43 570.94 1022.51 651.06 1158.88 629.23
00028540 00000080 892.72 220.78 395.83 537.65 957.44 450.87 1126.74 423.96 1040.88 568.94 1023.54 649.78 1160.20 627.13
00028541 00000081 893.82 220.28 396.87 539.22 960.61 451.61 1129.93 423.92 1045.04 567.93 1026.70 649.01 1163.09 625.68
00028542 00000082 895.59 228.97 393.16 532.91 967.22 450.86 1134.41 429.57 1047.82 561.47 1030.23 638.66 1165.84 620.38
00028543 00000083 896.13 225.79 393.56 535.36 969.55 450.57 1136.72 428.28 1051.34 558.78 1032.48 636.78 1169.22 617.72
00028544 00000084 898.21 224.67 393.07 533.65 972.01 449.23 1141.23 426.81 1055.47 556.54 1033.15 634.77 1173.33 615.51
00028545 00000085 897.46 221.40 394.11 534.77 971.61 447.91 1142.69 424.10 1056.70 554.40 1032.86 634.10 1174.14 613.60
00028546 00000086 897.76 219.55 394.44 534.52 972.62 446.62 1144.09 421.75 1058.94 552.21 1034.14 633.21 1175.60 611.80
00028547 00000087 898.14 219.68 393.64 532.53 971.15 441.81 1141.38 416.32 1057.09 549.03 1033.93 631.34 1173.74 609.42
00028548 00000088 895.88 218.65 394.14 531.37 968.39 436.96 1136.39 410.89 1051.61 542.92 1031.12 628.41 1168.43 606.01
00028549 00000089 894.50 209.68 395.28 540.62 968.65 432.52 1131.65 407.65 1047.22 537.22 1028.42 625.02 1161.12 603.56
00028550 00000090 892.01 213.46 394.85 538.08 967.34 431.65 1128.08 408.29 1042.91 535.79 1027.40 624.06 1157.78 603.63
00028551 00000091 891.45 212.16 394.68 542.12 965.43 432.81 1126.54 409.09 1041.48 537.99 1026.13 626.20 1158.00 605.60
00028552 00000092 891.36 212.76 397.89 535.74 959.00 432.72 1130.26 410.54 1044.60 546.84 1027.91 627.86 1158.50 608.19
00028553 00000093 892.02 212.62 396.48 533.96 958.11 433.45 1129.75 412.36 1044.49 549.91 1026.91 628.74 1157.30 609.90
00028554 00000094 892.50 214.54 397.22 531.51 958.15 433.61 1130.47 412.99 1045.38 551.93 1027.24 629.47 1157.64 611.00
00028555 00000095 893.69 219.26 396.08 526.36 958.73 435.40 1129.42 414.33 1045.12 553.06 1029.09 631.85 1156.05 612.96
00028556 00000096 895.12 220.84 394.15 523.02 959.56 435.61 1130.04 414.22 1045.56 553.48 1028.84 632.12 1156.43 613.01
00028557 00000097 897.42 219.48 391.63 523.23 961.10 436.23 1130.59 413.51 1046.81 552.84 1029.17 632.42 1156.59 612.31
00028558 00000098 898.74 216.51 391.46 524.33 962.69 434.58 1133.20 412.48 1048.28 551.03 1029.10 630.70 1157.44 611.10
00028559 00000099 899.78 214.03 390.68 525.10 964.49 433.97 1134.00 412.37 1049.02 549.17 1029.07 629.77 1157.30 610.64
00028560 00000100 899.52 219.66 388.41 525.16 969.27 434.88 1131.80 413.17 1045.05 542.15 1029.28 630.64 1155.87 611.84
00028561 00000101 902.07 221.67 390.86 525.49 972.11 435.74 1134.11 416.14 1047.47 544.71 1032.80 631.15 1158.39 613.90
00028562 00000102 902.69 223.22 390.98 525.15 971.80 437.36 1135.85 417.57 1048.61 546.93 1033.25 632.56 1160.65 615.03
00028563 00000103 903.65 222.34 390.90 526.22 972.05 439.36 1136.83 419.71 1049.27 549.22 1033.39 633.05 1162.30 615.71
00028564 00000104 906.20 222.26 388.38 522.82 975.24 447.32 1140.35 429.28 1051.74 551.66 1034.19 631.73 1164.21 615.72
00028565 DELETE   905.11 220.78 390.62 522.93 975.38 446.37 1139.72 426.39 1051.94 548.57 1035.74 630.64 1163.89 612.99
00028566 00000106 906.38 214.06 390.67 528.74 975.15 438.32 1136.46 418.88 1049.29 543.63 1036.39 629.13 1160.36 611.95
00028567 00000107 903.90 207.82 393.40 532.94 974.35 432.04 1135.10 413.61 1047.48 538.29 1035.03 626.42 1159.18 610.02
00028568 00000108 902.44 208.77 394.06 531.58 973.95 429.18 1135.26 410.75 1047.21 536.30 1034.12 625.58 1158.90 609.24
00028569 00000109 903.51 208.86 393.60 531.14 975.32 430.03 1136.55 410.77 1049.30 537.59 1036.75 625.97 1161.10 608.94
00028570 00000110 904.68 211.85 393.25 530.66 976.60 432.20 1138.34 413.74 1050.74 540.12 1037.09 627.97 1160.96 611.60
00028571 00000111 906.20 214.61 392.54 530.92 978.63 432.71 1138.02 415.62 1050.49 539.62 1036.80 627.44 1158.96 612.27
00028572 00000112 905.94 212.77 392.67 531.11 979.32 430.54 1138.75 414.31 1050.42 537.96 1036.46 625.52 1159.02 611.00
00028573 00000113 906.96 213.13 392.42 528.22 980.56 428.72 1139.36 412.43 1050.96 534.91 1036.28 622.98 1157.72 608.43
00028574 00000114 907.52 213.36 392.64 525.79 981.29 429.00 1141.29 413.11 1052.09 536.12 1036.77 621.94 1159.48 607.65
00028575 00000115 907.10 213.96 396.73 532.56 983.11 431.12 1141.42 415.50 1053.31 539.57 1040.54 625.50 1161.80 611.39
00028576 00000116 907.50 214.61 400.51 543.03 984.09 433.67 1140.34 413.98 1055.06 538.04 1044.68 631.16 1166.95 613.79
00028577 00000117 910.18 212.46 399.61 546.82 985.34 433.21 1140.07 413.09 1055.12 536.68 1046.12 631.38 1168.56 613.70
00028578 00000118 911.47 210.88 397.57 541.77 985.91 432.75 1142.77 413.78 1056.43 535.58 1045.18 628.61 1167.81 611.82
00028579 00000119 915.81 211.17 395.71 536.65 988.37 437.53 1148.36 417.79 1059.52 535.75 1045.54 627.28 1171.18 609.84
00028580 00000120 919.34 210.06 393.70 536.72 990.86 441.90 1152.59 420.94 1062.69 539.89 1047.29 628.83 1175.20 610.58
00028581 00000121 920.60 211.58 394.59 536.33 993.53 443.46 1156.40 423.26 1066.91 543.74 1050.92 629.39 1180.20 611.91
00028582 00000122 923.07 212.74 393.55 536.88 995.82 445.72 1159.42 424.99 1070.82 546.81 1054.78 630.98 1185.55 613.02
00028583 00000123 925.39 213.46 391.84 534.58 998.24 445.61 1162.16 425.43 1074.05 547.91 1056.48 630.88 1186.93 613.47
00028584 00000124 926.72 214.28 391.53 532.98 999.32 445.09 1163.55 426.03 1074.16 549.55 1056.30 630.26 1187.07 613.83
00028585 00000125 928.60 214.92 390.87 532.40 1000.31 445.56 1164.79 425.41 1075.98 548.71 1056.91 630.00 1189.07 612.69
00028586 00000126 931.30 215.09 389.59 533.61 1003.31 446.17 1167.98 425.67 1080.53 548.81 1058.74 630.57 1190.94 613.20
00028587 00000127 932.80 216.97 390.18 533.09 1007.01 446.82 1172.97 426.52 1085.35 549.50 1063.27 632.23 1194.34 615.20
00028588 00000128 935.99 220.41 388.31 532.07 1009.26 448.62 1175.78 426.20 1088.81 549.82 1065.77 632.94 1198.28 614.13
00028589 00000129 939.66 220.88 385.50 531.30 1011.74 448.24 1180.33 426.64 1092.70 549.65 1067.74 632.62 1202.66 614.34
00028590 00000130 941.81 221.65 385.05 529.69 1015.00 448.66 1183.31 427.75 1095.67 551.01 1070.89 632.72 1204.58 615.07
00028591 00000131 954.28 218.59 377.78 532.66 1015.80 445.00 1185.90 421.80 1100.43 548.82 1067.40 640.96 1205.58 622.03
00028592 00000132 954.72 217.50 378.85 533.37 1017.21 445.87 1187.19 422.41 1102.29 548.56 1069.07 639.82 1208.31 620.09
00028593 00000133 957.19 217.64 377.34 531.50 1018.34 445.50 1187.60 422.43 1103.04 548.24 1070.20 639.02 1209.39 619.65
00028594 00000134 949.15 221.25 383.40 523.86 1021.73 447.47 1188.87 428.99 1102.33 551.62 1076.55 628.41 1209.78 612.71
00028595 00000135 950.97 219.81 381.99 524.19 1022.92 447.66 1190.42 428.28 1103.63 551.24 1077.56 627.81 1211.89 611.37
00028596 00000136 951.83 220.37 382.44 523.12 1023.92 448.64 1191.58 428.75 1104.92 552.10 1079.28 628.50 1212.85 611.70
00028597 00000137 952.94 222.16 380.97 521.62 1024.64 449.74 1192.58 430.27 1105.27 553.19 1079.67 629.20 1214.06 612.79
00028598 00000138 962.35 215.92 374.25 532.21 1022.51 446.89 1190.07 424.77 1104.98 550.86 1075.52 640.33 1214.06 621.58
00028599 00000139 964.34 218.12 373.52 537.28 1027.91 451.16 1189.56 430.67 1107.01 550.74 1078.53 641.73 1213.18 624.42
00028600 00000140 964.82 219.76 375.13 538.81 1029.01 454.55 1191.59 432.15 1108.06 551.54 1080.81 643.56 1217.58 624.59
00028601 00000141 963.42 222.07 375.25 536.21 1029.58 456.59 1190.28 433.26 1108.62 551.44 1079.25 640.20 1217.17 620.33
00028602 00000142 963.79 220.97 374.82 535.72 1028.33 455.24 1190.61 432.36 1107.69 552.73 1076.37 635.15 1220.36 615.58
00028603 00000143 960.81 222.21 378.89 526.54 1027.38 452.82 1199.32 435.04 1115.95 557.10 1075.05 627.01 1221.16 611.20
00028604 00000144 961.56 222.96 378.09 524.96 1027.98 451.82 1199.35 434.70 1115.90 557.18 1075.54 626.74 1220.61 611.43
00028605 00000145 960.68 222.59 379.04 523.84 1027.28 454.24 1199.94 436.48 1116.02 557.47 1075.59 628.33 1221.41 612.47
00028606 DELETE   960.28 221.77 380.02 523.91 1026.55 455.80 1200.41 437.82 1115.96 558.29 1074.73 629.16 1221.58 613.25
00028607 DELETE   960.76 220.07 380.32 525.88 1027.00 457.04 1202.41 438.28 1117.86 559.69 1075.65 630.37 1224.87 613.88
00028608 DELETE   961.74 221.12 380.61 524.81 1027.00 456.50 1201.55 437.50 1116.68 560.04 1076.98 631.56 1224.18 614.87
00028609 00000149 962.38 223.11 379.74 522.43 1027.30 454.90 1200.53 437.04 1115.79 561.13 1076.60 631.59 1224.12 615.79
00028610 00000150 963.44 222.47 378.68 521.52 1028.45 453.29 1199.17 437.22 1114.99 561.48 1076.20 630.71 1223.37 616.40
00028611 00000151 963.35 222.49 379.48 522.46 1028.79 452.25 1200.21 436.34 1115.74 561.32 1076.38 631.05 1224.64 616.89
00028612 00000152 962.49 222.38 380.81 525.12 1028.04 452.14 1200.41 435.88 1115.91 560.89 1075.89 632.09 1224.64 617.60
00028613 00000153 962.14 221.15 381.89 527.03 1028.11 451.50 1200.22 435.04 1116.02 560.84 1078.11 633.53 1224.99 618.85
00028614 00000154 963.10 218.89 382.49 529.86 1026.95 448.05 1197.51 426.47 1109.36 557.16 1081.10 641.25 1225.01 623.45
00028615 00000155 961.66 224.26 381.24 524.05 1027.73 449.31 1200.81 433.36 1116.60 561.38 1081.45 635.96 1223.19 621.56
00028616 00000156 961.54 224.42 381.23 524.53 1027.59 449.80 1200.83 434.03 1116.36 562.57 1082.29 637.47 1222.70 623.21
00028617 00000157 961.30 225.85 381.30 525.47 1027.29 451.37 1200.36 435.34 1116.20 563.73 1082.14 638.93 1221.02 624.43
00028618 00000158 962.05 227.49 380.00 522.23 1028.38 451.28 1200.30 436.00 1116.25 564.20 1082.92 639.08 1219.56 625.20
00028619 00000159 962.22 228.04 378.71 521.78 1028.77 451.70 1199.72 437.23 1115.75 564.66 1083.39 640.11 1216.42 626.85
00028620 00000160 961.32 228.05 380.77 524.83 1027.71 451.68 1200.02 436.30 1115.57 564.30 1083.79 641.14 1218.21 627.09
00028621 00000161 966.25 222.09 375.78 535.99 1029.39 454.55 1194.74 432.79 1111.40 557.74 1081.98 647.34 1218.62 629.53
00028622 00000162 966.67 222.00 375.26 535.76 1029.01 454.37 1195.67 432.45 1111.15 556.90 1081.00 646.05 1220.77 627.97
00028623 00000163 966.99 220.49 374.91 536.07 1028.67 453.61 1195.62 431.69 1110.75 556.18 1081.18 645.29 1220.83 627.09
00028624 00000164 959.81 223.62 381.78 528.03 1028.46 447.95 1201.59 433.15 1117.69 562.21 1080.52 636.74 1222.84 623.35
00028625 00000165 959.97 223.58 380.78 525.88 1028.27 447.24 1201.29 432.94 1117.28 561.97 1080.13 635.24 1222.35 622.23
