Video ID: 	mQl3XRDYuaU
H: 	1080
W: 	1920
FPS: 	25.0

FRAME INDEX X0 Y0 W H [Landmarks (5 Points)]

00000273 00000000 560.18 148.29 541.24 762.62 759.22 416.83 986.19 443.00 902.60 515.82 788.42 693.07 962.64 714.16
00000274 00000001 563.63 152.76 537.97 765.29 765.71 418.09 983.33 441.37 895.84 512.57 786.62 692.42 952.34 710.90
00000275 DELETE   563.57 127.54 546.34 792.98 753.60 414.01 989.82 429.12 899.12 515.09 785.30 705.42 967.41 715.33
00000276 00000003 571.98 148.84 544.15 777.59 777.23 409.48 996.14 444.00 903.59 500.92 788.06 684.81 957.51 712.45
00000277 00000004 569.04 153.68 552.23 790.44 774.01 401.01 995.84 435.81 905.54 497.76 784.29 687.61 961.86 715.30
00000278 00000005 569.01 139.10 554.40 809.17 770.44 407.83 1004.71 432.75 912.99 504.11 783.05 694.36 980.19 713.04
00000279 00000006 566.24 150.30 557.21 789.18 769.92 399.74 1001.08 435.25 909.95 499.66 776.49 686.45 971.77 714.58
00000280 00000007 568.94 140.00 555.53 806.65 769.62 407.32 1009.21 432.45 915.54 504.74 782.01 695.50 985.80 714.06
00000281 00000008 568.74 144.31 558.59 780.10 757.24 403.35 1007.72 427.50 916.33 509.20 778.75 699.98 990.69 717.50
00000282 00000009 567.66 145.89 557.78 772.84 754.19 406.36 1004.67 426.77 911.65 511.78 780.22 702.74 987.46 717.30
00000283 00000010 565.07 144.88 558.25 771.24 754.87 407.67 1001.76 428.25 910.03 509.65 780.77 699.36 985.01 714.15
00000284 00000011 562.98 145.50 559.77 778.74 753.96 409.43 1000.48 429.58 909.24 511.88 779.21 703.15 983.66 717.50
00000285 00000012 562.75 145.70 559.34 772.71 750.63 408.70 1002.95 430.30 909.05 511.86 775.33 704.32 983.73 719.49
00000286 00000013 563.68 144.70 559.43 768.58 750.59 406.34 1003.24 426.70 910.50 510.76 777.52 704.06 985.63 718.36
00000287 00000014 561.51 149.26 563.69 787.72 763.24 399.87 1002.57 430.29 910.10 499.10 780.52 693.15 977.67 716.83
00000288 00000015 561.83 147.77 564.28 790.19 763.43 396.70 1003.44 429.62 909.23 500.89 777.53 689.61 978.63 715.31
00000289 00000016 563.26 143.23 565.70 791.56 765.01 396.09 1005.07 428.91 909.29 499.85 777.74 686.95 978.07 712.46
00000290 00000017 572.22 127.85 561.39 809.18 769.87 403.87 1013.33 425.80 915.88 501.51 784.05 692.32 991.97 708.01
00000291 00000018 580.73 123.84 560.63 813.12 779.52 400.04 1023.62 420.86 928.57 496.12 792.76 689.62 1000.24 704.77
00000292 00000019 591.63 129.09 561.13 811.97 789.77 402.29 1035.49 425.44 938.15 495.08 797.42 689.40 1008.92 706.64
00000293 00000020 597.94 124.86 570.12 802.47 801.67 393.26 1040.32 424.58 943.66 490.00 815.68 677.78 1017.19 702.09
00000294 00000021 610.03 124.63 564.89 795.80 810.27 390.53 1050.38 419.60 953.52 490.14 825.58 674.61 1029.98 697.20
00000295 00000022 619.69 128.22 565.01 784.19 820.37 386.04 1059.95 417.91 962.85 487.16 831.36 670.87 1034.89 695.71
00000296 00000023 621.80 129.55 568.32 780.82 823.80 384.56 1063.90 418.30 966.24 485.25 833.94 667.24 1037.53 693.49
00000297 00000024 621.92 130.03 566.38 778.67 822.66 383.52 1062.82 418.27 964.99 484.46 832.84 666.28 1035.95 693.25
00000298 00000025 618.04 128.04 566.30 781.41 818.54 385.82 1057.77 417.12 960.53 485.10 829.32 666.58 1035.44 690.88
00000299 00000026 623.68 127.08 559.98 768.73 808.86 387.62 1059.25 410.55 960.99 490.75 823.02 677.65 1037.36 694.62
00000300 00000027 621.34 128.17 562.56 759.58 808.39 388.73 1060.17 411.43 961.24 490.82 825.60 677.63 1037.35 694.14
00000301 00000028 613.15 126.24 566.49 771.94 815.74 387.40 1060.11 416.82 963.48 485.82 832.44 667.75 1038.03 690.13
00000302 00000029 623.60 121.98 556.53 783.40 821.79 390.55 1068.10 418.30 972.54 490.69 837.33 674.62 1042.80 697.03
00000303 00000030 625.87 124.23 555.62 777.57 824.54 387.78 1069.20 414.81 973.48 491.80 844.70 676.21 1037.59 698.01
00000304 00000031 622.81 130.91 565.56 777.58 824.22 383.63 1062.33 414.92 967.53 481.63 841.82 667.25 1035.24 691.13
00000305 00000032 627.89 126.20 559.43 788.86 824.78 392.02 1068.15 415.11 972.17 491.50 845.31 681.32 1042.92 699.63
00000306 00000033 630.67 127.33 561.42 768.46 818.33 387.78 1063.35 410.54 967.94 486.21 839.42 677.84 1042.30 694.58
00000307 00000034 632.42 128.60 560.01 762.72 817.87 386.61 1067.05 408.54 970.92 485.67 838.65 675.97 1048.38 691.96
00000308 00000035 633.82 127.67 560.62 762.71 817.09 388.38 1071.60 409.81 973.85 487.69 839.56 679.39 1054.53 694.79
00000309 00000036 636.34 128.06 560.71 757.77 818.49 387.10 1074.74 408.39 974.99 488.82 840.72 678.93 1055.35 694.30
00000310 00000037 637.87 126.81 559.97 761.31 820.88 386.59 1075.88 408.03 975.92 489.38 843.97 678.16 1056.44 693.78
00000311 00000038 637.60 126.17 559.89 756.05 822.71 385.29 1075.66 407.56 975.95 488.63 846.05 674.67 1055.32 691.01
00000312 00000039 638.81 122.90 555.08 778.41 832.73 391.64 1076.90 410.75 978.30 494.17 855.88 678.04 1051.63 692.32
00000313 00000040 640.67 125.15 555.24 781.46 835.03 391.60 1077.72 409.20 979.01 495.65 859.28 677.69 1051.11 690.98
00000314 00000041 641.23 128.22 555.72 776.72 837.25 390.82 1079.92 408.93 981.76 493.85 860.99 675.58 1051.12 689.38
00000315 00000042 644.17 128.04 556.24 784.81 839.12 392.71 1080.52 410.86 981.65 496.24 861.20 677.63 1052.25 691.39
00000316 00000043 646.11 129.69 554.64 782.73 840.29 392.88 1081.21 412.57 982.01 496.34 861.04 677.98 1051.67 692.95
00000317 00000044 646.42 129.42 554.22 779.32 840.93 392.95 1083.05 413.48 983.91 496.99 859.17 677.68 1053.81 693.25
00000318 00000045 644.95 125.72 556.87 789.34 841.53 396.25 1082.49 416.85 986.18 499.03 861.13 682.37 1055.79 698.09
00000319 00000046 644.87 128.28 557.44 790.53 841.57 399.64 1084.22 421.50 986.25 503.14 861.33 685.19 1057.12 701.92
00000320 00000047 643.86 129.23 557.28 788.37 841.76 398.45 1084.28 420.65 986.72 502.65 860.20 683.23 1057.61 700.16
00000321 00000048 643.66 125.72 557.37 790.96 841.48 397.45 1084.26 419.98 986.79 502.88 859.72 682.58 1058.11 699.69
00000322 00000049 645.81 127.00 556.94 787.28 841.75 398.98 1085.26 421.53 986.11 501.58 859.67 683.44 1058.66 700.61
00000323 00000050 644.85 130.23 560.14 798.12 838.01 397.78 1079.90 422.50 975.75 502.98 851.35 684.20 1049.14 703.49
00000324 00000051 635.46 116.69 559.31 808.08 809.44 404.81 1056.69 425.18 935.81 502.24 822.62 691.28 1025.02 707.26
00000325 DELETE   612.22 122.02 574.71 813.89 776.97 410.66 1017.67 428.00 881.88 515.67 784.96 694.21 981.97 707.95
00000326 DELETE   602.03 127.53 572.81 819.61 739.44 419.57 993.80 433.48 839.02 524.16 746.05 704.37 946.75 717.59
00000327 DELETE   588.59 127.70 580.67 829.26 708.30 425.89 958.44 430.40 791.97 533.85 713.33 709.17 914.55 715.30
00000328 00000055 569.25 127.49 589.92 840.61 692.87 434.24 933.63 441.17 765.99 553.95 693.46 716.89 892.24 724.91
00000329 00000056 562.89 138.51 581.82 822.59 679.05 439.73 914.17 440.56 745.97 553.28 686.22 724.91 873.67 727.72
00000330 00000057 553.39 142.49 578.31 819.99 666.08 439.04 898.97 440.76 731.50 555.72 677.24 725.78 861.82 728.89
00000331 00000058 545.80 130.03 576.78 828.84 649.73 433.61 888.84 439.55 715.88 563.64 658.39 727.72 854.81 733.50
00000332 00000059 545.57 123.10 565.65 827.58 645.45 433.18 876.93 434.51 704.57 558.24 653.52 717.52 845.13 720.98
00000333 00000060 543.48 125.20 564.54 824.71 642.76 431.22 870.30 431.68 697.93 555.47 651.67 715.22 839.39 717.95
00000334 00000061 546.06 123.12 561.07 831.20 641.47 426.95 870.06 425.63 695.70 546.17 650.29 712.90 843.05 713.93
00000335 00000062 544.51 116.52 564.50 828.49 639.13 417.08 872.64 415.35 696.30 530.01 650.48 702.84 845.71 703.74
00000336 00000063 549.28 110.75 564.00 823.55 644.21 407.89 874.69 407.44 701.75 519.99 658.07 695.38 848.69 697.50
00000337 00000064 548.91 101.72 565.92 827.16 642.99 404.60 871.56 402.41 701.51 516.02 656.95 690.59 850.80 691.12
00000338 00000065 555.68 98.75 564.51 828.27 648.16 397.09 874.12 393.44 705.97 510.40 663.25 686.42 854.38 685.38
00000339 00000066 562.21 88.78 571.05 831.98 659.31 389.67 885.19 385.27 711.28 513.17 673.04 685.76 861.10 682.88
00000340 00000067 568.12 86.22 570.94 831.47 664.96 387.73 890.28 382.23 717.06 510.93 680.40 683.30 865.86 679.72
00000341 00000068 576.69 89.23 563.58 829.68 664.26 389.49 889.49 374.61 721.41 501.39 682.28 679.12 872.07 669.34
00000342 00000069 577.53 87.82 562.35 826.36 663.40 390.99 889.22 373.72 722.20 500.70 683.30 679.30 874.58 667.33
00000343 00000070 582.10 88.90 558.05 821.35 665.68 393.43 890.67 374.44 724.84 501.57 686.64 678.67 879.13 665.24
00000344 00000071 586.71 87.97 563.00 821.38 665.81 397.65 891.38 375.62 722.87 501.86 688.31 680.42 881.03 664.47
00000345 00000072 590.22 87.67 562.11 825.96 669.78 397.86 895.41 377.17 725.91 503.52 692.22 678.71 888.77 663.77
00000346 00000073 596.92 86.20 562.51 829.68 677.17 400.21 902.45 380.81 733.24 505.62 699.10 679.46 897.17 665.38
00000347 00000074 600.23 97.58 563.75 822.91 681.27 403.63 908.21 385.10 739.70 509.70 704.02 686.05 902.58 672.59
00000348 00000075 599.32 100.56 569.76 826.99 684.01 409.47 914.01 394.77 741.16 517.16 706.25 692.37 903.97 682.32
00000349 00000076 599.52 109.41 568.25 827.43 685.13 417.49 918.14 403.92 743.74 526.54 706.77 701.84 904.33 692.90
00000350 00000077 601.74 109.01 569.13 843.67 690.42 428.48 921.49 414.52 745.44 543.11 709.10 712.77 909.34 703.15
00000351 00000078 608.28 120.75 568.20 840.54 696.53 437.89 922.31 425.58 743.91 558.89 712.08 722.80 911.36 714.03
00000352 00000079 611.46 131.34 566.65 829.63 698.86 442.66 924.54 432.29 749.38 564.49 717.61 727.67 912.58 720.31
00000353 00000080 618.95 143.09 560.24 822.45 702.49 448.68 928.04 437.73 754.21 570.96 720.55 733.85 917.79 725.74
00000354 00000081 616.51 140.58 571.47 830.47 698.36 448.66 939.00 440.79 762.17 575.69 718.47 741.19 925.67 735.03
00000355 00000082 619.71 142.08 571.31 837.78 706.27 454.92 945.41 446.88 772.16 579.24 724.44 743.94 934.49 737.39
00000356 00000083 626.00 151.30 565.12 833.35 717.99 458.74 950.58 452.00 784.62 570.39 735.98 742.34 940.57 737.49
00000357 00000084 626.04 145.71 573.34 838.93 722.18 455.78 954.47 448.39 794.16 572.43 747.31 745.85 947.64 740.27
00000358 00000085 638.36 146.35 564.24 839.49 733.52 460.86 964.10 443.99 808.15 571.62 759.04 747.00 961.79 734.68
00000359 00000086 647.23 146.90 560.48 844.67 744.55 469.63 975.13 454.35 819.75 574.02 766.17 747.36 972.88 736.12
00000360 00000087 653.52 149.84 560.73 836.86 748.12 469.64 981.43 453.20 823.96 572.36 770.18 748.40 980.05 736.41
00000361 00000088 656.97 157.97 561.55 830.43 754.04 469.54 988.11 454.78 831.54 571.48 775.01 748.36 985.23 737.74
00000362 00000089 657.69 159.71 567.20 831.56 758.66 468.36 995.02 455.57 837.16 573.29 778.99 751.01 988.56 742.21
00000363 00000090 660.89 163.20 566.46 831.63 762.51 467.80 997.38 456.43 839.20 573.63 781.22 750.00 991.19 742.35
00000364 00000091 662.63 166.43 565.53 829.27 764.97 467.27 998.74 457.78 840.28 573.83 782.34 749.30 993.07 743.07
00000365 00000092 665.77 167.63 564.34 827.14 767.69 465.01 1001.47 456.21 842.98 572.28 784.66 748.60 995.60 742.80
00000366 00000093 667.17 168.40 564.34 826.51 771.41 461.12 1004.24 454.24 847.36 572.39 788.53 747.41 996.96 743.17
00000367 00000094 669.99 167.39 560.83 825.57 773.40 460.71 1005.94 455.55 849.88 572.49 789.17 747.53 996.28 744.88
00000368 00000095 669.89 165.65 564.00 825.87 774.13 459.11 1009.39 454.41 852.78 570.56 789.47 746.19 998.11 744.14
00000369 00000096 670.86 162.53 564.42 827.23 774.58 455.16 1010.22 450.98 852.46 566.84 789.63 742.47 998.86 740.63
00000370 00000097 670.75 160.63 565.04 822.23 772.46 453.20 1010.29 446.39 850.42 559.91 788.79 740.83 1000.07 736.79
00000371 00000098 662.53 147.80 580.80 832.84 773.09 444.42 1020.61 441.69 853.05 572.08 789.09 743.88 999.98 742.22
00000372 00000099 661.74 142.65 585.18 831.28 775.84 437.57 1021.19 436.04 853.75 566.22 791.02 737.65 997.91 737.02
00000373 00000100 661.86 135.27 582.86 821.64 774.64 431.17 1023.06 431.94 854.53 563.54 787.39 733.30 993.81 734.61
00000374 00000101 666.22 127.47 579.30 828.83 777.56 425.35 1024.38 427.40 854.93 559.70 786.21 728.74 993.17 731.40
00000375 00000102 667.39 122.61 578.78 830.73 778.84 419.77 1023.68 422.67 854.32 554.14 786.00 722.02 990.63 725.54
00000376 00000103 665.88 121.85 576.10 827.67 777.36 416.86 1021.86 420.20 853.00 550.56 785.17 718.04 989.27 721.69
00000377 00000104 665.93 118.59 574.31 825.14 776.09 415.50 1021.95 418.59 850.95 545.08 783.03 715.22 988.66 718.45
00000378 00000105 662.38 119.01 573.13 816.08 775.24 414.23 1021.06 419.47 851.36 542.03 781.79 708.37 985.92 713.29
00000379 00000106 662.82 113.96 576.98 817.64 776.60 410.77 1022.95 417.27 852.71 537.54 781.38 704.05 983.63 710.40
00000380 00000107 668.53 111.73 566.42 816.44 771.24 413.82 1021.75 414.82 854.54 525.17 780.72 702.52 989.14 705.93
00000381 00000108 667.42 110.44 569.55 817.97 770.96 413.83 1023.90 414.16 855.69 522.51 781.40 703.34 992.37 705.96
00000382 00000109 666.35 108.34 571.69 822.26 772.86 412.88 1025.60 413.93 857.62 522.54 784.44 701.30 993.82 704.48
00000383 00000110 665.47 110.69 573.99 821.38 774.41 410.86 1026.64 411.94 859.43 519.85 786.79 699.02 995.56 702.03
00000384 00000111 665.40 110.18 575.44 824.56 777.53 409.83 1025.91 411.43 861.55 518.95 791.11 696.21 992.72 699.89
00000385 00000112 664.51 110.74 576.33 829.43 778.80 408.97 1025.67 410.90 860.64 519.41 791.03 695.71 992.44 699.61
00000386 00000113 663.27 109.63 578.58 835.94 780.55 406.43 1025.52 409.73 860.10 517.57 791.68 694.33 991.41 699.50
00000387 00000114 664.06 112.02 575.66 832.40 780.43 404.81 1024.70 407.80 859.27 516.67 791.47 693.39 992.59 698.04
00000388 00000115 662.68 112.99 574.68 829.16 778.91 404.99 1023.30 407.46 858.83 516.41 790.38 691.99 991.74 696.28
00000389 00000116 660.12 112.33 575.56 828.12 777.52 402.66 1022.10 407.52 857.16 515.96 786.99 690.86 988.42 697.30
00000390 00000117 655.39 109.50 578.74 830.04 774.02 402.67 1020.15 407.34 855.11 514.48 783.72 691.75 985.38 698.15
00000391 00000118 655.64 110.79 574.96 826.56 771.89 402.65 1017.84 407.46 852.20 511.78 780.51 690.81 983.17 697.26
00000392 00000119 653.96 109.28 573.86 829.95 770.12 403.97 1016.32 409.07 850.33 512.56 778.80 691.24 980.08 698.04
00000393 00000120 651.10 107.61 576.30 831.56 768.21 403.16 1015.18 407.74 849.41 510.94 776.73 690.63 978.02 696.96
00000394 00000121 648.76 108.07 575.19 820.85 763.38 403.12 1012.15 405.87 846.77 507.71 772.76 689.92 974.83 694.88
00000395 00000122 648.78 108.99 575.95 819.42 763.96 403.94 1012.97 407.02 847.71 509.31 771.86 690.35 974.19 695.71
00000396 00000123 647.61 109.23 576.08 816.67 768.11 402.58 1014.58 407.44 852.23 510.25 776.00 688.52 972.80 695.67
CROP_BBOX: 292 0 1574 1080
