Video ID: 	FDA76ZH1yDI
H: 	1080
W: 	1920
FPS: 	29.97002997002997

FRAME INDEX X0 Y0 W H [Landmarks (5 Points)]

00002545 00000000 886.01 192.50 381.02 552.12 988.58 438.84 1169.61 430.20 1089.19 521.60 1013.30 613.47 1175.41 606.41
00002546 DELETE   887.34 192.37 381.74 548.43 990.44 437.94 1172.93 430.32 1091.82 521.05 1014.65 610.87 1178.69 604.81
00002547 00000002 888.97 190.37 382.02 548.33 992.80 437.32 1176.24 430.75 1094.46 519.60 1015.41 607.65 1181.77 602.61
00002548 00000003 891.30 190.37 382.33 547.43 995.83 436.66 1179.13 430.50 1097.42 517.75 1017.42 605.67 1184.34 600.98
00002549 00000004 891.33 190.54 382.45 547.45 995.86 436.63 1179.08 430.47 1097.37 517.79 1017.38 605.61 1184.22 600.95
00002550 00000005 892.93 191.92 382.05 547.45 998.89 435.00 1181.47 429.39 1100.66 516.19 1019.32 603.44 1187.33 599.30
00002551 00000006 893.56 191.03 384.21 547.63 998.11 434.67 1183.82 429.98 1099.89 515.55 1023.54 609.20 1187.97 605.28
00002552 00000007 891.65 189.82 388.53 550.06 997.62 432.35 1182.20 424.81 1099.84 515.47 1030.63 619.01 1182.81 612.37
00002553 00000008 891.77 188.34 389.66 547.86 996.33 430.91 1182.32 423.55 1098.99 515.07 1031.64 618.98 1183.79 612.36
00002554 00000009 892.31 188.93 389.12 547.57 996.06 430.80 1182.19 422.89 1098.76 515.22 1031.54 619.12 1184.13 612.16
00002555 00000010 893.93 190.85 387.70 545.90 996.49 430.69 1182.84 422.79 1098.80 516.62 1031.19 619.82 1183.76 613.03
00002556 00000011 894.46 193.62 387.24 543.13 994.78 432.39 1182.27 424.34 1096.36 519.89 1027.77 616.66 1186.25 609.79
00002557 00000012 894.78 199.74 387.46 540.40 994.57 434.77 1180.63 425.84 1095.59 522.98 1026.60 615.89 1186.94 608.52
00002558 00000013 895.57 200.50 388.41 540.41 993.76 435.50 1180.32 426.48 1092.87 524.94 1025.36 617.11 1185.43 609.61
00002559 00000014 895.50 200.45 388.67 540.36 993.68 434.84 1180.41 426.13 1092.79 525.02 1025.14 616.49 1185.64 609.29
00002560 00000015 896.43 199.60 388.96 539.57 993.89 434.85 1180.10 427.09 1091.04 523.78 1023.40 613.50 1184.77 607.24
00002561 00000016 897.97 195.07 387.68 543.87 993.72 432.37 1180.16 426.01 1088.42 519.81 1022.43 614.11 1181.35 609.04
00002562 00000017 899.65 190.13 389.76 563.73 996.47 424.94 1181.06 423.52 1089.23 514.61 1025.00 617.79 1180.20 616.45
00002563 00000018 899.57 190.98 391.52 562.13 995.81 426.30 1178.95 424.12 1087.03 516.47 1024.75 618.16 1177.38 616.24
00002564 00000019 899.56 190.73 391.50 562.37 995.86 426.31 1178.83 424.13 1087.06 516.41 1024.89 618.20 1177.34 616.28
00002565 00000020 895.31 194.98 391.20 545.84 990.98 433.27 1176.05 423.72 1084.07 520.90 1026.28 623.83 1173.70 615.97
00002566 00000021 895.04 193.13 390.65 549.00 988.68 435.56 1173.54 424.95 1080.19 520.85 1024.03 624.95 1171.90 616.21
00002567 00000022 894.93 193.00 390.49 552.53 988.33 435.63 1172.34 424.60 1079.01 521.53 1024.13 626.80 1170.48 617.85
00002568 00000023 894.91 193.43 389.23 554.21 989.54 440.06 1170.75 429.85 1077.85 523.28 1023.13 626.87 1169.19 618.32
00002569 00000024 895.02 193.20 389.25 553.96 989.57 439.86 1170.73 429.78 1077.88 523.21 1023.36 626.86 1169.29 618.40
00002570 00000025 898.85 193.70 384.30 553.32 991.14 442.27 1169.65 432.50 1077.24 524.34 1023.28 625.95 1169.33 617.61
00002571 00000026 896.71 193.88 386.48 551.92 989.41 441.10 1170.77 431.30 1076.95 525.55 1021.86 625.99 1169.63 617.65
00002572 00000027 893.63 194.03 388.69 549.59 985.76 442.83 1166.95 431.76 1072.97 526.25 1019.67 625.52 1167.24 616.11
00002573 00000028 889.91 195.59 391.53 547.06 982.65 441.43 1163.74 430.44 1070.79 525.39 1016.65 622.17 1165.09 612.92
00002574 00000029 889.71 194.33 391.54 547.88 982.15 441.28 1163.60 430.60 1070.41 525.44 1016.13 622.01 1165.10 612.99
00002575 00000030 890.02 195.47 389.25 546.65 981.51 438.63 1161.20 429.31 1068.30 523.72 1013.20 619.36 1161.12 611.81
00002576 00000031 891.34 194.27 385.36 548.47 981.20 436.05 1161.87 427.60 1067.41 522.70 1011.61 620.21 1159.72 613.83
00002577 00000032 891.42 193.80 384.16 552.13 981.43 434.98 1161.82 427.46 1067.12 521.67 1008.98 617.38 1160.71 611.74
00002578 00000033 891.51 193.89 382.76 554.19 981.25 434.08 1162.26 427.42 1067.13 520.90 1006.38 615.94 1161.42 610.90
00002579 00000034 891.32 193.61 383.00 554.41 981.04 434.18 1162.22 427.44 1066.92 521.06 1006.23 616.02 1161.39 610.92
00002580 00000035 891.03 194.80 382.06 554.63 981.22 433.29 1162.28 427.49 1066.28 519.58 1004.04 614.37 1160.71 610.08
00002581 00000036 890.78 194.69 379.91 553.14 979.92 432.98 1161.71 427.97 1065.01 519.56 1002.74 613.99 1159.57 610.39
00002582 00000037 889.28 193.95 379.61 554.86 978.29 431.92 1159.48 427.75 1062.86 518.56 1000.79 613.62 1157.27 610.64
00002583 00000038 887.33 193.04 379.47 553.77 975.62 432.30 1156.50 428.30 1059.88 518.97 998.44 613.24 1154.26 610.43
00002584 00000039 887.34 192.94 379.46 553.83 975.63 432.29 1156.54 428.28 1059.92 518.98 998.49 613.24 1154.34 610.43
00002585 00000040 884.23 192.08 379.43 554.44 972.28 432.77 1153.03 429.63 1055.87 518.22 994.34 612.03 1151.25 609.76
00002586 00000041 881.70 192.55 379.03 552.92 969.51 432.61 1149.75 428.13 1053.38 517.88 992.51 612.53 1148.03 609.20
00002587 00000042 878.53 192.71 379.30 551.21 966.82 432.62 1145.84 428.71 1051.15 518.32 990.40 611.19 1145.85 608.03
00002588 00000043 876.62 193.49 378.54 549.12 964.03 431.59 1143.89 427.86 1048.71 515.51 986.83 608.16 1145.54 604.97
00002589 00000044 876.62 193.24 378.31 548.81 963.85 431.16 1143.48 427.69 1048.14 515.67 985.98 607.58 1145.13 604.60
00002590 00000045 874.03 192.57 378.33 549.38 962.03 430.43 1142.26 426.71 1047.94 513.21 985.46 606.93 1144.53 603.76
00002591 00000046 872.79 189.75 378.45 550.91 961.12 428.11 1142.69 425.37 1048.29 510.16 984.31 605.41 1144.45 602.90
00002592 00000047 873.12 187.67 377.05 551.08 960.81 425.36 1143.10 423.15 1048.28 507.66 984.80 604.92 1144.35 602.85
00002593 00000048 872.52 186.80 377.63 551.52 962.06 424.58 1144.90 423.09 1050.28 506.80 987.23 607.01 1142.96 605.62
00002594 00000049 872.54 186.87 377.59 551.45 962.05 424.58 1144.89 423.09 1050.29 506.79 987.23 607.01 1142.97 605.62
00002595 00000050 871.62 186.51 378.67 553.71 962.77 426.02 1146.10 424.76 1051.58 508.96 988.58 610.53 1141.90 609.39
00002596 00000051 870.91 187.57 379.53 551.84 962.99 426.00 1146.27 425.66 1052.20 508.58 990.37 612.02 1140.26 611.59
00002597 00000052 870.15 187.07 380.79 545.32 962.95 424.93 1145.25 424.00 1053.30 504.35 991.89 611.09 1138.38 610.22
00002598 00000053 869.07 185.24 382.88 539.66 960.95 421.82 1144.85 422.63 1051.63 503.21 986.88 605.61 1136.25 606.17
00002599 00000054 869.11 184.70 382.95 540.44 961.00 421.80 1144.78 422.60 1051.65 503.21 986.85 605.56 1136.29 606.12
00002600 00000055 868.51 185.19 381.96 533.90 959.10 419.09 1141.63 420.67 1047.38 499.83 984.08 605.73 1130.57 606.85
00002601 00000056 865.38 184.33 382.87 540.83 958.67 418.07 1136.24 419.58 1044.80 497.78 984.09 607.49 1121.74 608.90
00002602 00000057 862.68 184.99 383.70 545.54 955.31 418.54 1131.37 419.77 1038.94 498.95 980.45 608.54 1114.55 610.21
00002603 00000058 857.09 186.14 384.92 545.37 948.04 418.00 1124.10 420.18 1027.67 497.78 969.79 607.38 1104.11 610.11
00002604 00000059 856.81 185.95 385.22 545.82 948.01 418.00 1124.06 420.32 1027.66 497.76 969.72 607.25 1104.16 610.09
00002605 00000060 849.29 186.49 386.24 543.92 942.94 417.55 1116.28 422.56 1020.11 496.97 963.80 604.55 1093.87 609.73
00002606 00000061 842.36 185.36 383.68 539.56 935.47 418.27 1111.58 423.70 1010.74 491.21 953.03 601.86 1087.61 606.91
00002607 00000062 837.56 182.71 384.26 544.12 920.88 422.96 1095.02 416.00 985.74 489.89 940.34 611.45 1071.80 604.98
00002608 00000063 831.76 182.24 381.70 542.08 907.55 424.89 1080.66 414.89 970.69 493.35 930.62 613.99 1059.41 605.60
00002609 00000064 831.61 182.56 381.80 541.60 907.52 424.93 1080.64 414.94 970.84 493.30 930.66 613.93 1059.34 605.53
00002610 DELETE   825.06 182.09 380.27 533.80 896.09 417.23 1071.71 412.40 957.05 498.78 916.95 603.26 1057.19 600.40
00002611 00000066 820.44 183.06 380.78 530.03 888.13 413.88 1059.64 406.93 945.05 496.11 909.47 599.06 1046.46 594.60
00002612 00000067 818.35 181.36 381.53 531.34 882.51 412.26 1052.86 403.80 936.26 492.97 903.22 596.47 1040.44 590.79
00002613 00000068 816.34 180.70 381.80 532.44 878.26 412.04 1047.87 402.67 930.72 493.38 899.84 597.82 1036.72 591.46
00002614 00000069 816.35 180.67 381.78 532.52 878.44 412.06 1047.93 402.71 930.88 493.37 899.92 597.75 1036.69 591.42
00002615 00000070 814.29 182.96 383.36 532.12 875.93 411.77 1043.60 399.80 928.05 492.72 900.63 600.80 1033.84 592.41
00002616 00000071 813.72 183.11 382.34 548.52 875.48 411.06 1037.15 394.30 924.83 487.58 902.42 602.87 1032.52 590.96
00002617 00000072 813.85 179.71 379.76 552.31 874.72 408.90 1035.61 390.89 922.90 483.13 901.06 602.01 1031.45 589.15
00002618 00000073 813.53 177.14 380.97 545.31 870.64 407.54 1038.08 391.53 919.57 481.31 891.76 596.80 1032.13 584.82
00002619 00000074 813.40 177.12 381.18 545.38 870.57 407.60 1038.27 391.53 919.65 481.22 891.76 596.87 1032.39 584.81
00002620 00000075 814.27 174.60 377.97 535.63 867.35 405.70 1038.46 390.80 916.61 480.58 887.47 596.20 1031.44 584.74
00002621 00000076 813.60 173.60 377.01 535.06 866.84 403.90 1038.22 390.13 915.94 479.54 886.28 595.55 1030.17 585.18
00002622 00000077 811.13 171.31 376.79 546.51 867.78 402.31 1035.87 387.78 918.13 477.49 889.24 595.05 1031.72 583.98
00002623 00000078 810.91 173.82 374.08 554.45 871.50 400.63 1029.55 385.75 920.51 473.02 894.51 593.02 1027.71 582.42
00002624 00000079 810.65 173.41 373.95 556.31 871.45 400.49 1029.12 385.45 920.22 472.07 893.88 593.28 1027.40 582.52
00002625 00000080 809.88 173.85 371.53 557.93 871.07 398.45 1027.60 384.48 919.67 472.45 892.53 595.52 1022.74 586.15
00002626 00000081 807.87 174.59 371.58 554.52 870.07 397.51 1026.84 385.51 918.87 472.36 890.32 593.60 1020.28 585.76
00002627 00000082 806.47 177.25 371.49 547.43 868.75 397.45 1025.66 385.34 918.04 470.77 888.03 590.65 1018.40 582.73
00002628 00000083 804.31 176.15 373.47 539.61 865.26 396.90 1026.37 385.49 916.23 471.14 882.99 589.23 1020.01 581.33
00002629 00000084 804.90 176.16 372.75 539.52 865.18 396.80 1026.29 385.61 915.63 471.38 882.24 588.78 1019.58 581.08
00002630 00000085 802.43 175.92 374.83 526.94 859.55 397.01 1027.98 386.33 912.02 472.75 875.02 585.57 1021.36 577.57
00002631 00000086 800.05 175.13 375.89 522.58 856.99 395.93 1026.90 385.22 910.86 470.86 871.20 581.80 1021.00 573.63
00002632 00000087 798.32 174.19 376.93 522.27 855.95 394.34 1025.75 384.60 909.76 468.42 869.86 578.29 1020.82 570.77
00002633 00000088 798.24 173.02 375.31 528.05 857.16 392.39 1027.05 384.52 911.23 466.94 869.99 577.93 1020.87 572.15
00002634 00000089 798.30 172.96 375.14 527.97 857.15 392.37 1027.12 384.55 911.25 466.99 869.98 577.95 1020.86 572.20
00002635 00000090 798.32 172.73 375.77 536.95 858.17 392.24 1027.09 383.80 913.02 466.23 873.43 578.14 1026.00 571.81
00002636 00000091 797.89 171.81 376.32 536.77 857.78 392.49 1027.80 382.36 914.40 466.12 874.28 576.55 1030.29 568.68
00002637 00000092 798.11 171.16 376.13 536.14 857.81 392.03 1028.01 380.63 914.35 464.33 874.40 574.67 1032.24 565.60
00002638 00000093 798.51 171.48 375.18 540.77 858.31 392.51 1026.14 379.43 914.75 462.84 876.85 574.84 1034.14 564.39
00002639 00000094 798.45 171.15 375.12 540.87 858.21 392.42 1026.27 379.66 914.60 462.99 876.42 574.40 1034.27 564.19
00002640 00000095 799.82 169.94 372.38 556.25 860.16 392.53 1021.96 378.56 913.10 463.84 881.43 579.75 1033.02 568.87
00002641 00000096 800.58 168.06 371.38 558.24 861.38 391.82 1021.71 380.39 913.15 462.70 882.87 583.80 1025.64 575.41
00002642 00000097 800.16 164.56 374.25 544.14 858.15 391.91 1027.17 380.50 912.49 463.74 877.27 585.17 1023.18 576.36
00002643 00000098 802.04 165.68 373.82 526.21 858.33 392.11 1030.05 382.44 912.41 464.91 873.40 581.71 1020.67 574.16
00002644 00000099 801.68 165.02 374.01 528.33 858.33 391.61 1029.75 382.30 912.77 465.03 873.20 581.66 1020.66 574.40
00002645 00000100 802.31 166.80 373.93 524.37 859.14 392.22 1031.30 382.66 914.77 465.91 874.12 579.44 1023.33 571.99
00002646 00000101 802.04 167.91 376.39 527.47 860.55 393.80 1031.07 381.96 916.28 464.92 876.78 577.79 1026.56 568.50
00002647 00000102 803.01 167.72 376.95 530.95 861.14 395.07 1032.52 381.86 917.43 466.27 878.58 579.98 1029.67 569.78
00002648 00000103 802.32 171.45 380.62 538.50 864.40 395.38 1031.15 381.53 920.64 466.49 883.03 579.10 1033.61 568.22
00002649 00000104 802.40 171.50 379.84 538.28 863.94 395.54 1031.32 381.73 920.40 466.36 881.98 579.65 1033.04 568.88
00002650 00000105 803.26 173.09 380.10 539.25 865.00 395.57 1031.06 381.11 920.71 466.84 883.93 578.25 1036.56 566.92
00002651 00000106 804.67 172.35 379.61 539.75 865.43 396.64 1031.85 381.54 920.88 468.28 885.75 578.66 1038.80 567.00
00002652 00000107 804.89 171.89 379.78 540.20 865.49 396.99 1032.62 381.57 921.38 468.47 886.09 579.08 1039.58 567.34
00002653 00000108 806.17 171.03 379.18 540.93 865.70 396.79 1032.76 380.91 921.38 469.05 887.68 580.00 1040.28 567.99
00002654 00000109 806.27 170.47 379.14 541.56 865.59 396.96 1032.85 380.89 921.28 469.10 887.72 580.08 1040.38 567.95
00002655 00000110 807.12 169.92 378.37 540.99 866.61 396.42 1033.70 380.61 922.11 468.94 888.28 579.92 1039.84 567.98
00002656 00000111 807.40 169.96 379.50 535.55 866.33 396.93 1034.84 380.09 922.63 467.95 886.86 577.85 1040.33 565.16
00002657 00000112 807.71 169.66 379.36 533.10 867.31 396.17 1035.48 379.43 923.61 466.37 886.59 577.93 1038.25 565.36
00002658 00000113 808.50 168.58 377.67 533.53 869.00 395.14 1035.85 378.35 924.71 463.77 886.93 576.63 1036.75 564.32
00002659 00000114 808.51 168.32 377.68 533.99 868.81 395.24 1035.96 378.38 924.90 463.65 886.93 576.92 1036.87 564.61
00002660 00000115 809.46 168.33 377.05 532.31 871.32 394.43 1036.70 375.99 926.76 459.93 890.49 576.09 1037.05 562.42
00002661 00000116 811.03 164.34 375.26 530.49 872.99 392.47 1038.80 373.24 930.26 455.52 893.20 572.56 1037.20 558.24
00002662 00000117 811.75 159.82 376.00 536.45 878.01 384.96 1045.05 366.06 940.08 449.00 899.43 568.58 1039.68 554.82
00002663 00000118 815.12 150.88 378.75 539.59 886.09 378.07 1061.88 362.60 956.24 443.88 907.13 568.38 1050.77 556.97
CROP_BBOX: 485 0 1502 1006
