Video ID: 	AQN5clRWslA
H: 	1080
W: 	1920
FPS: 	25.0

FRAME INDEX X0 Y0 W H [Landmarks (5 Points)]

00006891 00000000 906.77 155.20 398.85 583.64 970.18 409.84 1135.39 406.85 1017.74 492.66 992.04 606.97 1118.91 604.48
00006892 00000001 908.71 154.79 400.43 585.90 972.22 410.05 1142.80 407.13 1023.06 496.40 995.90 609.17 1127.36 606.73
00006893 00000002 905.99 158.75 402.11 580.84 971.60 412.79 1144.09 410.47 1025.89 503.35 997.49 613.00 1131.01 610.93
00006894 00000003 902.39 161.55 403.40 582.23 973.34 416.81 1145.96 414.27 1028.77 506.33 1000.61 615.80 1131.36 613.43
00006895 00000004 897.33 172.76 403.48 568.26 975.26 420.08 1149.31 416.20 1041.96 512.57 1004.49 617.68 1136.65 614.17
00006896 00000005 894.64 175.09 405.27 568.82 976.31 421.44 1152.11 415.75 1046.38 512.73 1007.30 620.62 1140.22 615.83
00006897 00000006 893.60 173.04 404.92 573.20 976.83 423.93 1152.80 417.59 1048.62 514.69 1007.80 623.61 1142.06 618.46
00006898 00000007 892.99 169.63 403.02 580.51 979.31 426.00 1150.76 422.86 1050.21 517.20 1008.36 623.55 1139.35 621.37
00006899 00000008 890.60 169.97 402.60 582.75 979.60 429.73 1149.99 427.98 1053.51 524.59 1009.95 626.83 1140.69 625.75
00006900 00000009 888.56 178.27 401.67 579.25 979.63 438.16 1149.68 434.37 1055.46 530.98 1013.59 635.18 1140.82 632.50
00006901 DELETE   874.22 196.90 405.83 577.15 974.97 458.03 1147.91 448.96 1054.85 555.03 1014.04 653.62 1144.02 645.93
00006902 DELETE   867.96 211.95 413.45 580.71 964.95 476.28 1142.05 461.94 1056.40 568.84 1009.71 674.31 1147.01 661.50
00006903 00000012 862.64 228.42 413.10 572.76 961.17 486.52 1134.36 476.16 1049.18 585.57 1007.84 683.13 1140.88 673.73
00006904 00000013 858.87 235.87 414.07 569.82 959.64 491.84 1130.99 481.66 1047.95 592.74 1005.74 687.34 1137.34 678.39
00006905 00000014 859.99 237.11 413.89 569.84 961.60 494.69 1134.38 485.61 1050.65 597.72 1007.92 692.00 1138.19 683.91
00006906 00000015 863.88 236.63 410.94 574.07 964.05 500.08 1139.91 489.44 1054.77 601.63 1010.59 697.64 1144.60 688.13
00006907 00000016 866.28 244.15 410.17 569.86 965.67 507.41 1144.04 494.80 1056.31 607.44 1012.76 705.65 1147.54 694.54
00006908 00000017 867.93 247.04 409.12 575.01 966.54 514.27 1146.18 500.16 1055.60 614.67 1013.53 712.70 1150.24 700.15
00006909 00000018 866.43 257.44 409.04 576.61 970.45 520.76 1145.47 507.56 1059.08 623.21 1015.50 718.23 1147.77 707.01
00006910 00000019 867.23 266.26 408.58 580.04 972.95 529.01 1147.52 514.55 1062.76 631.58 1017.33 727.38 1149.38 715.18
00006911 00000020 870.84 270.97 410.16 579.29 976.88 534.48 1153.26 520.49 1066.00 638.36 1020.49 734.82 1151.20 723.14
00006912 00000021 885.60 265.22 407.58 584.64 983.55 534.54 1160.23 528.17 1073.10 634.09 1025.53 729.81 1158.57 725.16
00006913 00000022 889.41 276.28 411.37 577.84 987.07 539.85 1164.58 532.49 1075.70 640.74 1031.49 734.15 1164.11 728.60
00006914 00000023 891.52 286.63 413.02 571.51 990.29 547.10 1170.44 539.32 1079.45 649.62 1034.16 738.95 1168.66 733.04
00006915 00000024 893.00 291.66 417.54 579.86 992.03 553.11 1175.26 543.91 1081.86 660.62 1035.83 746.37 1177.10 739.14
00006916 00000025 894.78 293.73 420.87 574.83 995.48 551.74 1179.65 543.01 1085.41 662.40 1039.80 745.90 1181.30 738.91
00006917 00000026 901.05 287.59 417.39 574.48 1001.91 546.13 1181.97 541.31 1089.05 656.02 1043.16 738.15 1181.82 734.36
00006918 00000027 904.42 286.15 417.34 572.79 1006.38 541.94 1184.65 536.91 1092.29 650.16 1045.38 734.43 1184.23 730.64
00006919 00000028 909.43 286.94 414.70 569.03 1010.81 538.25 1189.03 534.68 1096.21 647.34 1046.72 731.17 1185.49 728.87
00006920 00000029 912.52 284.90 416.73 567.53 1012.45 536.29 1190.88 532.84 1096.61 646.63 1048.09 728.96 1187.27 726.74
00006921 00000030 917.06 279.33 414.82 569.34 1015.27 532.53 1192.33 529.86 1096.85 641.59 1050.44 723.75 1189.65 721.93
00006922 00000031 919.92 277.55 414.43 571.25 1018.74 528.11 1195.19 525.44 1099.45 637.45 1051.66 720.23 1191.48 718.76
00006923 00000032 921.81 267.28 416.39 577.04 1020.32 523.62 1198.93 522.62 1100.80 634.55 1052.86 716.84 1194.22 716.31
00006924 00000033 923.56 266.09 415.73 575.99 1021.87 517.65 1201.35 517.46 1101.98 629.18 1053.67 713.03 1194.81 713.27
00006925 00000034 927.61 260.19 410.09 574.46 1024.67 513.18 1201.78 512.57 1104.18 622.89 1057.05 708.10 1195.66 707.82
00006926 00000035 929.78 256.10 407.63 568.35 1028.04 509.39 1200.84 507.87 1106.87 614.79 1063.10 701.15 1196.79 699.98
00006927 00000036 930.07 255.20 408.86 564.86 1028.50 504.40 1202.15 503.29 1107.52 606.88 1061.57 693.58 1199.18 692.73
00006928 00000037 933.90 245.38 407.55 566.14 1027.75 498.54 1204.31 497.08 1108.92 600.98 1061.75 688.36 1203.06 686.78
00006929 00000038 934.84 240.18 407.63 564.67 1027.47 493.95 1202.89 490.40 1109.98 597.10 1064.43 684.46 1205.27 681.02
00006930 00000039 934.33 242.53 410.02 559.62 1027.15 490.50 1202.83 485.42 1108.24 589.41 1062.91 681.14 1203.45 676.60
00006931 00000040 934.08 239.53 409.88 560.92 1026.57 487.19 1201.80 480.39 1107.82 582.75 1062.78 678.87 1203.18 672.83
00006932 00000041 933.29 235.33 409.44 565.17 1026.74 484.00 1200.26 477.35 1107.65 575.03 1062.19 677.04 1199.56 671.20
00006933 00000042 934.56 233.72 409.24 568.57 1026.53 482.38 1198.89 474.99 1105.97 570.67 1060.85 675.67 1197.09 669.44
00006934 00000043 935.86 231.64 409.64 568.56 1024.50 479.25 1196.54 470.71 1102.46 567.38 1058.66 672.79 1196.29 665.41
00006935 00000044 935.91 227.30 410.93 571.37 1021.88 476.43 1195.16 468.78 1098.27 565.55 1055.01 670.37 1194.21 663.65
00006936 00000045 938.03 225.53 409.04 571.64 1019.97 474.08 1192.97 466.14 1093.05 563.11 1050.52 667.54 1191.65 660.73
00006937 00000046 937.83 219.68 409.45 577.34 1018.28 472.01 1191.22 463.62 1089.20 559.54 1047.11 665.16 1190.01 658.07
00006938 00000047 937.51 221.19 410.23 577.32 1015.87 470.60 1189.31 461.04 1084.00 555.42 1044.22 664.34 1187.60 656.41
00006939 00000048 937.87 220.58 407.96 574.99 1015.00 466.46 1187.98 457.48 1080.00 549.48 1041.21 660.92 1184.35 653.76
00006940 00000049 936.52 215.75 409.12 576.41 1014.26 462.50 1186.47 454.06 1078.32 544.39 1039.32 655.72 1181.50 648.91
00006941 00000050 937.56 211.33 405.86 569.52 1013.25 461.61 1187.55 452.37 1078.88 543.88 1037.57 652.10 1182.17 644.96
00006942 00000051 937.50 207.59 405.98 570.70 1011.82 457.81 1185.95 449.27 1075.60 539.20 1035.15 649.96 1175.92 643.73
00006943 00000052 935.36 197.84 405.44 577.91 1013.62 448.29 1182.22 445.73 1066.96 539.33 1034.46 642.18 1166.07 641.33
00006944 00000053 935.15 197.87 403.79 575.36 1012.53 445.43 1180.41 442.43 1065.79 535.67 1033.46 638.18 1165.58 637.06
00006945 00000054 933.58 191.09 401.71 574.33 1012.18 439.88 1178.06 441.04 1064.62 529.16 1030.84 630.67 1160.13 633.04
00006946 00000055 932.57 188.17 399.88 574.95 1009.71 438.16 1176.42 439.75 1062.22 527.16 1028.42 629.66 1158.21 632.17
00006947 00000056 930.43 190.22 399.76 571.43 1006.82 435.68 1174.26 436.47 1059.36 526.62 1025.96 629.36 1155.72 631.28
00006948 00000057 928.53 186.62 400.70 575.70 1004.21 433.58 1171.56 434.49 1056.25 525.85 1022.84 628.87 1153.49 630.75
00006949 00000058 925.43 186.16 400.19 571.79 999.76 434.00 1167.58 433.98 1051.68 523.60 1019.06 629.01 1148.13 630.03
00006950 00000059 923.78 183.24 397.70 571.62 996.38 433.64 1162.55 434.84 1047.07 523.81 1015.59 627.22 1143.38 628.80
00006951 00000060 920.99 181.55 395.19 571.41 991.37 433.34 1157.15 434.35 1040.90 522.57 1011.09 625.68 1139.61 626.51
00006952 00000061 920.11 178.88 393.32 571.96 988.68 431.16 1154.13 431.95 1036.39 521.55 1008.11 625.17 1135.78 625.55
00006953 00000062 915.53 176.65 396.66 577.94 985.21 430.73 1149.53 430.90 1032.74 519.71 1006.28 625.29 1133.49 624.95
00006954 00000063 916.60 171.14 391.28 588.49 976.77 428.88 1145.53 429.23 1023.90 520.64 1000.03 628.83 1124.65 629.15
00006955 00000064 911.41 173.95 394.89 585.38 972.59 429.03 1140.19 430.37 1019.57 523.36 997.88 629.36 1123.04 630.17
00006956 00000065 908.53 171.31 396.83 589.42 968.06 430.82 1135.38 432.48 1013.39 525.60 992.64 629.83 1118.53 630.82
00006957 00000066 903.79 179.08 401.58 587.09 963.56 433.33 1131.68 432.60 1009.18 526.55 990.18 632.81 1114.14 631.91
00006958 00000067 898.37 172.59 405.27 602.49 960.04 436.59 1129.09 435.16 1006.32 529.31 988.87 635.02 1116.21 633.23
00006959 00000068 896.45 172.71 398.90 603.16 960.83 438.48 1122.06 432.87 1009.19 532.34 988.48 636.03 1116.80 631.16
00006960 00000069 892.64 169.22 399.76 607.27 955.35 442.97 1119.60 435.56 1005.58 537.22 984.60 640.77 1114.60 634.17
00006961 00000070 886.04 175.50 405.87 595.29 950.37 446.40 1114.45 440.01 1002.11 540.83 982.38 641.72 1109.65 635.61
00006962 00000071 880.25 177.34 412.99 595.42 945.03 452.11 1113.23 448.11 997.74 543.00 976.36 641.48 1108.05 636.95
00006963 00000072 878.14 176.10 415.79 601.45 944.25 451.38 1111.45 446.38 994.73 542.26 973.95 640.13 1108.17 634.85
00006964 00000073 878.60 180.07 416.24 606.67 945.46 448.78 1109.47 444.56 991.61 538.07 974.53 639.00 1102.67 634.43
00006965 00000074 878.93 179.23 415.51 608.79 944.36 446.70 1108.80 441.10 990.68 535.82 975.88 639.80 1104.78 633.94
00006966 00000075 881.54 176.77 405.77 611.07 945.67 444.61 1102.65 436.44 989.00 535.95 977.36 640.61 1101.27 632.50
00006967 00000076 881.00 174.76 406.26 612.77 944.58 443.63 1100.62 435.63 986.33 536.15 976.28 639.62 1100.51 631.54
00006968 00000077 880.63 170.26 405.51 615.97 943.34 442.94 1100.84 434.83 985.47 535.47 974.16 638.62 1100.16 630.37
00006969 00000078 880.98 169.45 405.77 613.56 942.40 441.93 1100.50 433.74 984.18 534.61 972.87 637.28 1099.34 628.96
00006970 00000079 878.85 170.51 413.24 608.95 941.20 440.66 1106.15 435.98 983.28 535.16 970.94 634.27 1103.90 628.78
00006971 00000080 880.07 168.68 412.65 606.96 943.12 437.57 1107.54 434.73 985.10 532.37 970.56 631.31 1102.81 627.46
00006972 00000081 879.97 167.98 412.95 603.89 944.15 435.25 1108.55 434.38 985.23 530.23 970.06 627.32 1101.35 625.01
00006973 00000082 882.22 167.37 414.29 601.66 945.05 434.57 1110.74 433.06 985.27 526.01 968.86 626.08 1101.34 623.37
00006974 00000083 885.29 162.06 412.77 605.06 947.28 433.62 1112.62 432.36 984.74 523.49 969.15 624.17 1100.38 621.82
00006975 00000084 889.13 158.37 414.27 608.31 949.60 431.11 1114.38 429.29 984.00 519.83 971.24 624.07 1100.44 621.55
00006976 00000085 896.49 156.31 409.21 606.42 951.81 429.29 1116.89 427.64 985.49 517.17 973.34 624.01 1101.51 621.87
00006977 00000086 902.64 153.98 405.81 607.61 955.66 427.16 1120.78 426.02 989.23 515.96 976.66 624.25 1104.53 622.69
00006978 00000087 907.92 155.90 403.01 608.18 959.42 426.17 1121.91 426.59 991.11 518.05 978.60 625.85 1103.43 625.83
00006979 00000088 910.36 165.35 399.72 596.16 961.12 426.09 1122.53 429.47 995.00 520.89 979.31 624.58 1101.71 627.04
00006980 00000089 911.73 165.90 398.26 592.42 963.37 425.59 1124.13 431.36 998.48 522.37 979.76 622.10 1102.31 626.59
00006981 00000090 914.87 170.54 396.80 586.18 965.35 423.56 1127.56 430.65 1000.87 523.02 980.44 622.67 1101.85 628.50
00006982 00000091 919.47 165.75 394.33 589.45 968.90 421.92 1132.48 429.71 1005.27 522.46 983.90 623.19 1106.34 629.75
00006983 00000092 920.31 168.61 404.00 586.02 986.26 425.59 1144.42 428.54 1015.22 518.78 999.89 623.02 1117.64 625.17
00006984 00000093 925.39 165.55 404.14 587.67 992.13 424.90 1151.91 427.52 1021.44 517.83 1005.97 622.89 1126.38 624.56
00006985 00000094 929.75 165.54 405.28 589.04 997.55 428.24 1157.79 429.30 1027.55 515.21 1010.73 623.97 1130.34 624.04
00006986 00000095 933.75 169.36 404.95 587.83 1002.88 427.40 1161.29 431.37 1032.83 517.53 1014.81 624.10 1134.69 626.57
00006987 00000096 935.58 173.51 398.28 585.30 997.88 426.54 1157.00 433.94 1029.85 523.24 1009.67 625.14 1134.28 631.57
00006988 00000097 936.54 173.85 397.79 586.22 998.86 426.44 1156.81 433.41 1030.03 523.10 1011.15 625.61 1134.16 631.81
00006989 00000098 937.34 168.22 406.97 596.84 1005.58 426.31 1167.20 430.39 1034.41 513.40 1017.51 623.88 1138.48 626.16
00006990 00000099 943.68 166.57 404.23 592.42 1011.30 422.38 1172.21 425.91 1040.42 508.83 1022.21 619.01 1141.35 620.86
00006991 00000100 951.96 158.33 404.35 597.68 1018.52 421.64 1178.52 424.08 1044.00 506.02 1026.62 616.83 1144.24 617.99
00006992 00000101 958.47 157.75 403.89 594.82 1024.69 416.18 1186.63 423.38 1050.35 503.46 1028.37 610.13 1148.79 615.46
00006993 00000102 968.84 155.74 397.44 592.11 1029.62 411.98 1192.78 420.91 1057.31 500.44 1033.80 607.67 1154.17 614.75
00006994 00000103 976.44 149.55 395.65 595.81 1034.26 409.71 1197.83 417.92 1062.78 499.30 1037.03 607.43 1159.96 614.37
00006995 00000104 979.21 152.02 392.35 589.32 1038.19 408.85 1200.49 418.75 1066.62 499.30 1039.63 605.73 1161.11 614.11
00006996 00000105 979.75 155.31 392.09 585.78 1038.12 409.53 1200.75 420.93 1066.80 501.69 1039.13 606.74 1161.91 616.27
00006997 00000106 977.92 151.40 395.50 594.44 1034.64 414.47 1200.66 421.93 1066.34 503.73 1036.52 614.39 1163.26 620.87
00006998 00000107 973.99 160.85 397.85 587.20 1032.02 417.21 1197.16 422.65 1063.05 501.83 1036.26 615.88 1160.26 620.55
00006999 00000108 969.73 157.23 399.50 593.26 1030.23 414.92 1194.79 422.95 1061.08 504.24 1035.43 614.20 1157.91 620.71
00007000 00000109 967.24 155.55 400.64 598.06 1029.86 412.84 1192.60 422.12 1057.81 502.68 1037.07 612.89 1155.17 620.17
00007001 00000110 964.62 156.00 402.28 594.98 1028.22 412.59 1190.96 421.42 1054.88 503.32 1033.41 610.63 1156.01 617.48
00007002 00000111 961.23 159.25 402.81 590.65 1025.89 414.55 1189.85 422.97 1052.95 503.86 1030.00 609.63 1154.85 616.04
00007003 00000112 956.22 159.96 404.74 594.11 1023.58 419.17 1185.45 426.29 1049.55 506.53 1028.98 612.67 1151.43 617.67
00007004 00000113 951.72 166.32 405.16 592.74 1018.66 422.29 1179.78 429.96 1046.81 511.90 1026.68 618.61 1146.84 624.04
00007005 00000114 947.20 168.20 405.94 594.21 1013.87 428.37 1174.95 435.57 1042.64 515.49 1023.07 621.46 1145.04 626.18
00007006 00000115 942.68 172.02 405.97 594.88 1011.27 430.14 1172.82 437.65 1042.77 519.35 1020.70 623.57 1145.05 628.35
00007007 00000116 940.69 173.72 405.15 591.79 1010.58 430.50 1171.09 436.44 1045.93 520.87 1023.37 624.61 1147.12 627.93
00007008 00000117 939.80 176.11 403.81 588.16 1012.11 429.64 1171.06 437.60 1047.43 521.70 1022.86 623.76 1145.08 628.88
00007009 00000118 935.29 178.03 405.01 588.78 1008.60 434.12 1170.27 440.90 1048.07 524.65 1020.69 628.40 1145.15 632.54
00007010 00000119 932.32 185.19 395.62 583.46 999.93 439.83 1165.35 450.84 1042.58 539.28 1011.37 633.44 1143.65 643.11
00007011 00000120 925.35 197.83 405.41 579.53 999.37 454.06 1164.58 459.00 1049.82 548.46 1016.91 645.96 1144.10 648.84
00007012 00000121 917.31 211.36 402.95 581.90 993.92 465.42 1161.14 475.42 1045.55 567.65 1009.01 659.01 1139.87 668.34
00007013 DELETE   904.60 230.45 409.41 570.35 989.45 485.19 1165.09 489.27 1053.44 584.75 1009.75 673.29 1143.35 677.84
00007014 DELETE   893.96 232.34 410.35 585.85 985.80 493.40 1160.19 496.89 1059.85 601.38 1014.66 691.63 1147.55 694.78
00007015 00000124 876.66 243.53 413.71 579.73 974.85 509.44 1152.60 501.82 1055.57 614.63 1013.85 705.22 1149.68 698.37
00007016 DELETE   865.67 248.25 412.76 584.10 964.20 517.19 1140.47 506.72 1047.21 619.19 1007.78 711.97 1143.79 702.76
00007017 00000126 851.33 257.47 417.77 585.75 952.53 520.39 1130.46 510.97 1037.19 629.27 997.00 717.98 1135.04 710.17
00007018 DELETE   840.26 261.78 421.75 583.86 942.58 525.89 1121.22 516.65 1029.45 633.44 986.71 719.50 1126.79 712.03
00007019 00000128 833.53 264.75 421.16 582.78 935.00 529.27 1112.61 520.75 1022.53 636.23 978.92 720.85 1120.75 713.82
00007020 00000129 823.42 266.54 425.25 587.40 925.71 535.15 1103.79 523.03 1016.72 641.14 973.91 729.62 1115.50 719.76
00007021 00000130 818.21 275.16 422.15 589.44 919.19 541.13 1095.42 529.20 1007.31 645.75 965.13 734.42 1104.26 725.04
00007022 00000131 812.39 282.72 419.37 587.32 913.28 545.03 1090.29 536.71 999.82 649.78 955.68 737.47 1092.45 731.44
00007023 00000132 809.14 291.38 414.37 576.80 909.37 549.31 1088.90 542.20 995.21 652.42 949.46 740.13 1085.09 735.20
00007024 00000133 806.32 292.95 415.18 576.88 907.03 549.29 1086.57 540.91 992.99 651.58 948.37 740.97 1083.03 735.16
00007025 00000134 806.06 289.14 417.09 581.10 906.37 545.49 1085.69 536.82 992.53 647.99 948.74 740.10 1084.44 733.89
00007026 00000135 809.49 280.30 415.17 579.74 907.45 540.59 1084.75 530.32 993.61 640.27 951.85 734.56 1086.73 727.02
00007027 00000136 813.36 270.39 415.78 583.06 909.12 536.74 1083.60 524.53 994.47 635.09 955.21 729.38 1090.81 720.19
00007028 00000137 814.15 264.69 420.01 586.04 910.94 531.49 1085.52 518.56 996.48 632.25 957.55 725.15 1095.43 715.30
00007029 00000138 817.54 261.94 420.50 583.74 914.85 526.34 1088.01 514.40 999.61 629.83 961.07 720.84 1099.45 711.60
00007030 00000139 819.36 264.32 421.73 576.13 917.65 520.86 1093.25 510.21 1002.07 626.41 962.61 715.79 1102.17 707.75
00007031 00000140 824.02 260.63 420.34 578.65 921.65 517.02 1096.21 507.81 1005.05 620.43 965.28 711.38 1105.94 704.18
00007032 00000141 827.74 261.97 418.68 576.25 925.11 512.39 1099.86 503.08 1007.37 613.86 968.16 706.97 1108.88 699.52
00007033 00000142 831.15 255.65 419.29 575.71 929.08 510.48 1104.85 501.67 1010.57 611.49 971.77 703.08 1112.39 695.72
00007034 00000143 835.17 255.16 419.00 574.37 931.79 509.65 1108.14 501.41 1012.67 611.35 974.23 702.43 1114.86 695.29
CROP_BBOX: 545 0 1567 1017
