Video ID: 	g_D8KZfoXq0
H: 	1080
W: 	1920
FPS: 	25.0

FRAME INDEX X0 Y0 W H [Landmarks (5 Points)]

00031626 00000000 755.63 276.90 414.44 526.62 823.77 473.55 997.07 468.92 890.77 613.53 882.57 678.26 1012.93 670.93
00031627 DELETE   763.63 266.68 417.44 531.92 839.53 479.99 1007.14 469.49 910.06 607.01 892.12 675.84 1029.30 665.44
00031628 DELETE   787.01 254.15 399.14 534.36 862.05 469.57 1027.86 457.04 935.21 584.61 902.37 664.12 1042.10 653.42
00031629 DELETE   803.48 236.62 392.70 536.91 878.20 455.01 1045.59 442.45 956.37 565.41 916.74 647.89 1053.32 637.06
00031630 00000004 812.12 212.90 383.03 551.87 884.34 441.01 1058.78 436.68 960.62 552.93 908.81 631.66 1059.33 627.84
00031631 00000005 810.67 214.86 383.03 546.15 882.19 436.42 1058.83 438.84 955.61 555.54 897.85 624.69 1052.90 626.97
00031632 00000006 805.64 211.52 386.55 555.96 876.37 439.55 1052.63 443.42 944.88 559.38 889.08 626.57 1046.22 629.97
00031633 00000007 798.91 223.99 386.84 551.09 873.66 443.59 1045.57 449.29 940.37 563.50 883.57 632.15 1036.11 637.09
00031634 00000008 791.02 228.53 388.41 549.57 869.78 448.55 1038.66 455.98 936.63 565.04 877.15 635.37 1028.15 641.62
00031635 00000009 783.20 231.58 389.42 550.34 865.09 449.18 1033.89 460.22 931.34 567.53 869.30 637.90 1020.24 647.06
00031636 00000010 780.24 235.54 386.63 546.93 860.42 449.71 1029.98 463.11 924.10 571.28 863.40 641.87 1013.77 653.10
00031637 00000011 778.04 236.47 385.46 554.64 858.20 453.86 1028.56 466.54 922.24 575.66 862.91 648.20 1013.55 658.86
00031638 00000012 774.53 238.27 384.42 558.43 855.71 455.60 1027.68 468.39 921.79 580.59 861.57 652.18 1012.45 662.89
00031639 00000013 764.15 234.82 398.20 568.55 844.20 449.26 1024.63 463.84 910.09 590.04 861.12 660.95 1003.74 672.64
00031640 00000014 759.70 233.09 398.07 571.09 838.84 449.50 1018.80 464.62 904.20 590.85 859.21 664.87 997.20 676.84
00031641 00000015 758.18 234.86 395.93 568.65 835.04 449.71 1014.57 464.82 899.80 591.36 857.03 666.71 992.73 678.48
00031642 00000016 757.07 233.18 393.67 568.30 833.28 448.15 1012.36 464.87 896.86 589.77 852.76 664.86 987.73 678.25
00031643 00000017 755.69 231.34 393.35 567.60 830.27 446.15 1010.20 462.87 894.49 585.54 848.99 660.96 986.82 674.46
00031644 00000018 753.63 231.95 394.34 563.22 826.79 444.66 1009.02 461.07 892.78 583.29 844.66 657.13 988.56 670.46
00031645 00000019 752.87 235.06 393.76 559.87 826.83 444.96 1008.15 460.98 893.90 583.53 845.60 656.81 989.67 669.87
00031646 00000020 751.09 235.44 393.70 558.68 825.39 445.07 1006.61 461.34 893.85 584.93 844.59 655.49 989.58 668.74
00031647 00000021 750.52 236.31 393.88 557.23 824.17 444.32 1005.69 460.09 893.36 585.05 844.72 656.15 989.42 669.06
00031648 00000022 750.25 235.27 393.70 559.72 823.45 445.76 1004.21 462.21 891.99 585.57 842.95 656.10 987.45 669.41
00031649 00000023 753.63 233.67 387.34 562.41 824.29 461.39 998.53 470.55 890.38 583.09 844.11 659.31 987.64 666.11
00031650 00000024 752.90 238.27 385.13 557.16 822.64 467.52 994.03 476.03 886.59 583.95 842.90 660.59 983.81 666.72
00031651 00000025 748.72 243.46 387.66 553.04 817.31 468.08 988.33 477.58 879.17 586.88 842.24 662.20 979.40 668.89
00031652 00000026 743.08 245.74 392.80 549.83 812.38 466.50 982.84 479.14 873.35 592.24 840.14 660.48 973.63 669.34
00031653 00000027 740.67 244.25 394.64 552.50 805.97 468.78 976.77 481.31 864.45 596.68 836.64 662.84 967.42 671.41
00031654 00000028 736.84 249.51 396.89 547.34 801.16 469.51 972.21 481.99 858.34 599.80 833.93 662.91 963.71 671.43
00031655 00000029 736.50 250.08 398.44 548.53 797.28 468.72 968.90 481.24 850.30 601.29 830.42 665.23 961.20 673.59
00031656 00000030 739.89 250.46 395.30 547.81 798.16 470.43 966.15 484.24 843.59 602.93 830.90 666.70 958.71 676.05
00031657 00000031 742.32 254.13 395.62 544.83 799.80 477.73 962.21 489.42 839.30 602.35 832.81 666.87 956.33 674.48
00031658 00000032 745.51 254.19 392.37 542.71 800.69 478.64 959.60 492.01 836.89 601.98 832.08 665.73 953.14 674.97
00031659 00000033 748.11 256.01 393.24 541.84 802.50 479.11 960.48 494.47 835.38 602.84 833.40 666.05 953.68 676.74
00031660 00000034 751.35 261.49 386.84 534.94 804.37 481.64 961.71 498.97 836.59 610.36 835.94 668.49 956.73 680.78
00031661 DELETE   755.50 270.95 381.54 527.75 807.15 484.19 959.20 502.69 835.18 613.38 839.01 670.32 956.47 683.04
00031662 DELETE   757.59 269.05 379.13 534.95 805.04 497.97 952.05 509.26 832.56 613.90 833.76 676.00 959.43 682.43
00031663 00000037 758.79 270.00 378.13 536.92 805.65 506.92 948.46 516.57 833.91 620.04 837.24 682.34 959.08 687.20
00031664 00000038 758.56 274.45 377.58 533.80 807.74 512.58 947.44 521.68 837.79 624.87 842.78 685.92 962.40 690.14
00031665 00000039 759.62 281.65 376.04 526.47 808.36 515.86 947.77 524.78 839.51 627.46 846.39 689.64 964.83 693.60
00031666 00000040 760.78 288.92 373.72 520.24 809.41 518.20 948.32 527.14 838.90 627.73 849.07 689.94 967.44 693.60
00031667 00000041 765.70 304.50 371.78 509.53 811.59 511.60 953.16 520.53 836.04 639.59 857.02 690.37 973.91 696.30
00031668 00000042 768.05 303.70 370.90 518.33 812.39 516.78 953.17 524.93 834.47 644.28 861.18 696.29 979.94 700.83
00031669 00000043 768.58 300.94 370.72 522.76 812.88 517.95 953.55 526.73 835.77 648.23 863.13 697.54 983.09 702.26
00031670 00000044 766.95 303.41 373.65 522.45 812.83 518.10 954.94 527.93 837.32 650.70 863.32 697.49 986.14 702.88
00031671 00000045 767.13 303.12 373.50 522.48 812.39 519.89 954.40 528.61 836.42 651.54 864.28 698.61 986.27 702.98
00031672 00000046 768.01 303.86 373.77 524.36 813.40 521.16 955.31 530.02 837.43 652.52 864.36 698.57 987.68 702.97
00031673 00000047 767.85 302.61 374.22 526.37 813.99 522.45 955.58 530.67 838.68 652.17 864.81 700.21 986.20 704.15
00031674 00000048 768.29 304.62 374.28 522.68 813.78 522.72 955.16 531.55 837.55 652.40 864.96 701.29 983.90 705.91
00031675 00000049 769.73 305.42 372.80 521.97 814.08 522.78 954.65 531.64 836.27 651.70 863.70 702.86 980.39 707.59
00031676 00000050 768.43 302.67 375.39 527.87 814.41 524.06 953.61 532.56 836.06 650.68 861.20 706.26 972.94 710.92
00031677 00000051 767.65 302.78 375.98 528.64 813.34 523.23 954.43 534.81 835.17 653.57 858.09 707.39 970.65 714.64
00031678 00000052 768.56 303.55 375.12 526.20 814.64 523.63 955.44 535.34 836.75 654.14 859.81 707.49 971.20 714.91
00031679 00000053 768.45 303.35 376.70 525.98 815.33 523.89 955.79 534.43 838.04 652.68 861.22 707.33 972.14 713.78
00031680 00000054 768.10 307.38 376.29 521.95 815.40 523.02 956.56 533.50 839.45 652.84 863.66 707.05 974.45 713.38
00031681 00000055 769.50 304.26 373.77 525.15 816.17 522.86 956.15 531.69 839.40 652.55 864.98 708.13 974.08 713.15
00031682 00000056 769.59 306.03 373.76 521.82 816.50 522.15 956.35 531.77 839.42 651.17 863.73 706.56 973.73 712.35
00031683 00000057 768.61 295.35 372.92 528.02 816.99 530.10 952.46 537.63 845.43 645.53 864.00 704.82 975.77 707.58
00031684 00000058 768.30 293.55 374.91 526.30 815.95 528.72 953.55 536.94 846.09 644.59 861.00 702.27 975.42 705.51
00031685 00000059 768.26 303.92 376.04 518.23 813.73 520.56 958.46 531.24 838.62 648.71 858.10 701.81 972.18 708.72
00031686 00000060 767.02 295.12 375.16 520.60 814.88 527.78 953.63 537.54 845.91 643.89 858.17 699.18 974.07 703.59
00031687 00000061 767.04 307.80 375.32 512.10 812.41 518.81 958.14 530.23 838.50 648.32 857.03 700.11 971.27 707.74
00031688 00000062 765.78 306.13 377.26 514.91 812.10 518.88 958.39 529.14 839.35 647.79 857.06 700.59 972.25 707.29
00031689 00000063 765.81 310.08 377.82 508.28 811.80 518.19 958.53 528.12 839.27 646.36 856.55 699.44 971.34 706.02
00031690 00000064 764.49 310.96 378.28 505.81 810.50 516.57 958.20 526.07 838.71 644.93 856.02 698.26 971.21 704.50
00031691 00000065 764.18 308.09 378.43 509.13 810.36 516.27 957.83 525.76 839.00 645.41 855.53 697.63 972.56 703.89
00031692 00000066 763.77 308.44 379.79 513.05 811.39 518.44 957.57 525.05 839.98 643.51 856.99 700.64 970.79 704.50
00031693 00000067 763.92 307.82 379.45 515.36 811.75 517.53 958.92 526.55 839.73 644.96 857.34 701.17 971.55 706.97
00031694 00000068 763.98 306.83 379.07 516.88 812.03 517.10 959.50 526.38 840.26 645.72 857.84 701.52 972.36 707.51
00031695 00000069 763.83 298.14 380.59 521.06 815.31 524.65 956.25 533.73 848.97 640.81 860.07 698.13 975.22 702.03
00031696 00000070 763.90 298.52 380.22 520.02 815.71 524.40 956.04 533.07 850.10 639.67 861.06 697.50 974.99 701.07
00031697 00000071 764.00 297.37 381.25 519.59 815.81 525.38 956.35 532.62 850.88 639.67 861.46 697.45 977.23 699.83
00031698 00000072 763.95 295.33 381.74 520.43 816.48 523.91 957.31 531.04 853.02 639.78 863.27 697.38 978.22 699.78
00031699 00000073 763.68 291.49 383.36 522.97 816.15 523.00 958.95 529.22 854.64 640.24 863.16 696.68 982.87 698.49
00031700 00000074 763.09 290.37 385.71 522.59 816.35 520.92 960.82 527.18 855.69 638.41 863.59 694.66 984.36 696.70
00031701 00000075 762.42 294.18 387.98 518.00 815.22 518.65 961.10 526.14 855.17 638.41 862.08 692.80 983.95 695.84
00031702 00000076 761.93 295.32 388.09 517.05 815.60 519.34 961.47 526.61 856.25 638.62 862.50 692.73 984.31 695.57
00031703 00000077 761.82 295.61 387.46 514.17 815.42 518.95 962.31 526.60 857.12 638.58 861.84 691.21 984.62 694.35
00031704 00000078 761.40 293.99 388.59 515.85 814.87 519.05 962.21 525.88 857.21 638.46 861.89 691.53 986.16 694.08
00031705 00000079 761.33 294.07 387.74 514.88 814.51 518.78 962.62 525.59 857.34 638.68 860.88 691.50 986.56 694.05
00031706 00000080 762.11 294.89 386.82 514.21 814.87 519.19 962.89 526.22 857.35 639.38 860.15 691.52 986.49 694.25
00031707 00000081 762.62 294.76 386.70 513.79 815.37 519.08 962.70 525.29 857.68 638.47 861.85 691.64 986.38 693.76
00031708 00000082 762.82 295.90 388.17 513.21 815.83 519.13 963.35 525.94 858.17 639.39 862.16 691.26 987.66 693.78
00031709 00000083 762.39 294.46 388.95 516.53 816.80 518.89 963.94 526.02 858.93 638.81 863.95 691.09 987.98 693.96
00031710 00000084 761.48 296.47 389.88 517.34 817.60 520.25 964.56 527.69 859.92 639.95 865.37 691.51 988.50 694.56
00031711 00000085 762.05 300.10 388.87 516.76 819.15 519.91 965.86 526.70 862.08 641.12 869.63 692.09 991.81 694.53
00031712 00000086 766.65 293.13 386.58 523.29 822.07 517.48 967.59 523.30 864.80 638.76 874.99 693.57 992.31 695.47
00031713 00000087 776.52 287.04 379.70 526.55 834.43 510.68 977.29 517.25 871.67 629.45 877.24 692.06 992.58 692.99
00031714 00000088 781.48 287.92 381.47 522.95 836.54 501.01 982.24 512.09 870.34 624.05 875.48 686.45 992.24 690.86
00031715 00000089 789.89 271.69 380.02 528.84 842.39 493.32 986.98 502.98 871.08 610.05 876.03 679.70 988.85 684.36
00031716 00000090 793.49 267.89 378.02 524.86 843.42 479.06 992.22 493.53 868.73 602.89 869.43 668.09 988.50 676.93
00031717 00000091 796.67 262.18 377.18 527.82 843.06 462.23 993.62 475.36 869.88 599.49 870.62 665.96 987.24 674.62
00031718 00000092 793.04 249.54 382.09 535.76 835.61 455.72 991.09 465.34 869.08 594.15 859.51 657.52 986.43 664.72
00031719 00000093 793.42 238.86 379.05 544.58 836.95 449.90 990.25 461.75 869.13 589.26 858.36 652.87 982.53 662.12
00031720 00000094 792.80 235.95 379.03 547.99 837.24 447.54 988.39 461.33 867.50 586.10 856.52 651.46 977.30 662.44
00031721 00000095 791.96 235.11 379.49 550.53 836.71 448.54 988.25 460.24 866.59 585.89 857.30 653.53 977.99 662.80
00031722 00000096 791.61 236.78 377.54 548.97 835.27 450.23 985.66 461.39 862.55 588.26 858.44 654.97 978.73 663.66
00031723 00000097 791.96 242.12 378.09 545.89 832.91 453.13 982.54 461.59 859.58 592.05 862.37 659.45 978.50 665.70
00031724 00000098 786.83 248.94 385.66 541.52 830.50 456.83 976.89 463.27 854.90 593.75 867.94 662.40 978.44 666.63
00031725 00000099 785.06 258.82 388.42 534.99 829.56 462.58 969.12 466.35 849.78 599.05 877.44 666.37 984.09 667.65
00031726 00000100 782.10 269.81 388.93 527.32 827.94 466.51 960.23 468.00 843.25 600.43 880.51 671.78 982.65 670.65
00031727 00000101 780.84 275.10 388.88 521.82 827.48 470.02 951.00 468.43 836.88 599.32 883.76 672.30 981.00 668.49
00031728 00000102 781.84 259.11 377.54 534.42 826.73 468.74 953.28 469.79 833.88 601.79 884.71 675.61 979.03 673.28
00031729 00000103 783.01 250.63 374.03 543.29 825.72 464.84 953.18 467.67 829.14 599.24 879.39 672.72 976.36 672.33
00031730 00000104 786.54 257.34 373.93 537.41 826.99 459.63 955.05 463.39 825.03 585.81 870.74 669.97 967.08 670.86
00031731 00000105 785.72 251.41 372.98 542.80 823.50 454.27 955.11 461.36 819.47 577.68 861.85 668.02 956.22 672.20
00031732 00000106 777.72 248.11 379.63 544.29 817.00 453.93 956.79 463.94 816.65 576.05 849.06 665.88 948.90 672.89
00031733 00000107 775.94 253.57 380.42 542.53 815.00 458.16 955.86 468.00 815.81 583.81 849.95 672.54 947.37 679.21
00031734 00000108 777.34 260.41 376.31 541.09 816.62 466.12 955.51 475.55 819.07 592.71 856.42 679.17 956.33 684.71
00031735 00000109 776.68 277.11 373.51 536.23 817.53 475.29 938.70 483.35 819.60 605.31 854.79 677.53 959.87 681.29
00031736 00000110 765.30 285.83 382.95 527.69 806.39 486.75 933.72 490.37 821.18 617.96 853.52 687.42 958.47 687.47
00031737 00000111 759.50 295.94 385.86 516.47 796.67 493.34 930.35 491.70 819.07 624.14 848.43 691.34 956.29 687.02
00031738 00000112 756.69 298.23 387.60 516.19 789.35 489.40 936.19 492.35 808.86 622.45 846.99 695.37 956.09 694.01
00031739 00000113 755.50 300.65 384.88 508.86 790.62 489.30 925.55 489.43 810.87 616.48 836.58 688.66 941.03 685.55
00031740 00000114 746.77 278.43 380.87 536.30 786.15 489.38 925.21 492.16 807.20 615.58 831.32 690.83 940.16 690.62
00031741 00000115 741.41 276.76 382.17 538.76 779.88 488.34 922.33 491.61 803.27 617.40 825.91 692.33 937.66 692.66
00031742 00000116 737.37 285.57 379.31 530.91 773.03 490.20 916.27 492.34 795.28 620.40 821.66 695.69 932.80 694.85
00031743 00000117 728.43 286.02 383.12 533.50 764.84 487.06 913.76 491.53 790.62 623.79 811.96 694.93 928.68 696.52
00031744 00000118 723.32 279.64 386.52 540.72 758.76 485.77 911.19 489.92 786.07 622.09 803.16 694.98 924.24 696.82
00031745 00000119 720.53 282.21 384.51 536.68 756.52 485.97 906.58 489.14 784.25 623.18 802.05 696.85 920.81 697.73
00031746 00000120 717.15 286.69 385.77 533.78 755.30 486.83 903.04 490.48 783.36 627.50 803.01 697.25 919.56 698.34
00031747 00000121 713.97 282.48 388.27 538.63 752.56 489.70 899.34 492.18 780.97 627.35 801.28 697.55 919.22 697.80
00031748 00000122 712.14 281.55 388.84 539.06 749.64 492.68 895.74 494.67 778.03 627.54 799.27 698.21 916.98 698.00
00031749 00000123 709.96 284.62 388.02 538.02 749.29 494.48 892.70 496.28 776.66 629.08 800.17 700.35 914.77 699.93
00031750 00000124 708.31 284.07 386.59 542.76 748.16 498.65 888.78 497.58 774.39 630.03 802.34 703.07 913.42 700.27
00031751 00000125 705.67 285.17 385.68 534.63 748.10 516.57 888.49 510.37 780.77 625.78 802.71 703.40 913.78 695.99
00031752 00000126 702.78 287.66 388.49 531.30 745.69 514.68 887.42 507.19 776.36 620.16 797.71 699.10 911.74 690.71
00031753 00000127 705.17 280.77 386.66 536.82 745.76 503.99 887.72 500.13 773.92 617.70 797.12 695.30 910.36 689.82
00031754 00000128 701.71 277.09 390.65 541.66 745.88 495.00 888.62 493.61 773.35 618.53 799.56 693.90 913.60 690.49
00031755 00000129 700.56 285.65 390.73 533.03 745.09 493.58 886.31 493.28 773.81 621.38 801.29 691.98 915.68 689.19
00031756 00000130 699.72 289.39 390.13 529.90 743.98 495.13 884.77 492.66 772.90 621.56 801.13 692.36 916.50 687.84
00031757 00000131 699.43 290.63 390.70 528.78 743.98 496.32 883.03 491.84 771.83 620.65 801.07 691.26 916.53 685.10
00031758 00000132 698.51 293.25 391.48 528.02 743.38 495.91 882.37 492.08 770.85 620.61 799.95 689.82 916.80 684.13
00031759 00000133 698.66 294.52 391.60 526.54 743.44 494.44 881.89 491.33 769.35 619.87 799.45 689.50 915.99 684.34
00031760 00000134 698.55 294.88 392.04 526.32 743.50 495.14 881.15 490.44 769.91 619.52 801.51 690.29 916.28 683.87
00031761 00000135 698.98 296.05 393.20 526.70 742.86 494.14 881.28 490.08 769.37 619.80 801.16 690.67 916.15 684.69
00031762 00000136 698.05 291.94 393.58 529.47 742.02 492.45 882.04 488.30 768.87 617.50 798.60 689.38 916.36 683.45
00031763 00000137 697.81 289.66 393.40 529.06 741.02 494.40 880.75 487.46 767.94 615.12 797.68 690.67 914.68 682.48
00031764 00000138 696.35 289.07 394.61 528.94 739.73 493.45 880.13 487.54 767.12 615.54 796.03 689.90 913.34 682.54
00031765 00000139 695.59 290.31 391.54 531.10 739.62 495.97 878.32 489.53 766.17 617.27 795.83 691.65 911.54 683.85
00031766 00000140 695.50 291.00 389.00 530.56 739.39 502.03 876.86 495.16 765.52 618.87 794.20 694.11 910.25 686.03
00031767 00000141 695.00 285.49 385.79 534.49 741.51 523.64 877.99 509.69 772.27 618.07 795.57 699.30 909.37 685.36
00031768 00000142 693.99 288.44 388.66 529.71 739.05 525.05 875.62 510.10 768.85 616.84 792.69 700.64 905.81 686.02
00031769 00000143 693.84 292.45 387.97 525.30 738.01 523.04 873.09 510.72 763.33 614.20 790.13 698.13 902.28 685.48
00031770 00000144 694.22 291.41 384.03 525.99 738.14 520.04 871.46 511.79 761.34 616.48 787.95 697.41 898.23 687.82
00031771 00000145 696.82 295.35 382.01 523.45 736.22 516.29 870.11 507.08 756.62 616.55 786.18 698.55 895.86 688.25
00031772 00000146 694.17 292.38 381.21 523.92 733.51 510.59 868.47 505.14 754.05 617.97 781.55 696.24 893.29 688.72
00031773 00000147 693.45 288.94 377.83 528.02 733.37 507.94 866.21 503.45 751.78 616.35 781.07 694.40 892.53 687.62
00031774 00000148 694.77 293.12 372.56 523.55 732.98 512.66 861.02 505.47 745.68 614.85 782.28 695.28 891.00 685.82
00031775 00000149 694.85 290.78 368.00 524.63 734.40 523.27 860.52 514.32 743.57 613.51 781.50 698.64 891.93 687.78
00031776 00000150 695.93 296.49 366.00 519.46 733.94 525.90 859.62 515.63 742.67 614.94 782.61 700.36 892.27 688.24
00031777 00000151 696.91 296.80 364.44 519.47 733.11 524.98 859.13 514.80 742.69 618.74 781.98 700.73 894.05 688.72
00031778 00000152 695.67 295.72 367.80 523.82 732.12 523.00 857.95 513.05 741.88 623.27 783.71 701.56 895.21 689.71
00031779 00000153 696.06 296.28 367.16 531.24 726.39 515.71 858.23 510.30 738.07 636.23 789.44 706.00 897.21 700.48
00031780 00000154 697.59 296.74 366.69 532.05 728.16 516.18 858.42 512.89 737.64 637.92 791.13 706.45 898.06 702.46
00031781 00000155 697.93 298.42 366.89 532.23 729.66 515.18 859.53 513.57 739.05 639.81 792.78 707.15 897.85 704.27
00031782 00000156 698.83 300.29 367.75 530.30 731.94 516.04 861.37 514.29 741.38 640.81 793.71 708.16 898.67 705.17
00031783 00000157 699.12 300.20 367.72 531.13 732.61 517.89 862.61 516.00 742.16 641.53 794.01 708.64 900.65 705.45
00031784 00000158 699.96 301.52 368.07 530.95 734.32 521.03 863.01 518.41 743.20 642.48 795.27 710.24 901.63 706.34
00031785 00000159 702.26 298.23 365.88 535.74 735.46 522.31 864.57 518.42 744.01 643.32 796.09 712.93 903.94 707.94
00031786 00000160 703.95 301.82 364.89 531.14 737.29 523.53 866.07 520.24 745.94 645.98 797.83 713.93 904.04 709.35
00031787 00000161 711.25 296.67 356.73 531.28 740.03 523.55 862.22 524.40 748.59 640.44 798.15 708.39 899.28 705.86
00031788 00000162 705.58 298.59 363.58 535.64 738.56 523.22 868.44 521.07 747.74 648.38 797.88 715.17 906.58 711.46
00031789 00000163 713.56 296.54 352.99 531.27 740.99 523.41 862.71 525.54 750.21 642.16 799.90 709.00 900.01 707.66
00031790 00000164 714.28 296.73 353.59 530.73 741.21 525.57 864.42 526.62 751.29 642.40 799.41 709.33 901.86 707.14
00031791 00000165 716.11 298.31 351.17 526.95 744.34 534.86 864.95 534.99 753.87 640.54 799.66 710.29 900.50 707.40
00031792 00000166 708.45 302.79 360.16 529.63 740.04 538.01 869.31 531.39 747.07 649.48 796.31 717.73 909.38 710.41
00031793 00000167 706.92 301.10 362.78 531.89 738.49 536.41 869.86 529.51 746.94 649.73 796.99 718.27 907.65 710.52
00031794 00000168 705.61 299.68 361.46 533.12 736.71 535.41 868.12 527.37 744.63 648.36 795.24 718.85 904.43 710.41
00031795 00000169 701.84 298.71 366.35 535.61 734.86 532.88 867.24 525.09 743.62 646.69 793.06 718.66 899.75 710.51
00031796 00000170 700.76 301.01 366.97 532.68 733.58 531.92 866.06 524.41 742.63 647.42 793.08 718.54 898.78 710.57
