Video ID: 	5XtmvqbKY6Q
H: 	1080
W: 	1920
FPS: 	25.0

FRAME INDEX X0 Y0 W H [Landmarks (5 Points)]

00002475 00000000 1011.70 151.39 459.56 573.41 1062.30 356.28 1276.11 301.98 1141.71 398.01 1114.56 574.02 1278.30 527.78
00002476 00000001 1005.88 148.77 462.98 560.21 1056.25 359.09 1272.07 302.49 1137.31 398.76 1110.63 569.70 1275.64 521.80
00002477 00000002 1003.02 154.39 455.01 564.27 1068.73 357.01 1277.52 304.30 1129.02 387.78 1098.16 566.89 1280.61 524.73
00002478 00000003 997.71 158.40 458.80 565.82 1064.08 359.31 1271.17 304.47 1122.21 388.93 1096.82 570.12 1275.55 526.27
00002479 00000004 1000.02 168.71 455.74 556.07 1067.09 363.72 1265.29 309.46 1122.08 397.15 1100.87 568.98 1270.36 525.34
00002480 00000005 999.33 168.57 467.59 543.53 1042.92 379.27 1251.48 306.68 1119.53 404.32 1105.99 578.67 1262.55 517.19
00002481 00000006 1003.28 188.77 460.96 530.08 1048.38 366.83 1259.63 304.98 1117.00 412.95 1092.80 575.83 1268.19 527.23
00002482 00000007 1001.25 192.38 461.66 527.22 1047.59 370.47 1257.17 309.54 1114.13 416.55 1090.81 576.29 1265.48 528.47
00002483 00000008 1000.08 198.72 463.26 521.04 1046.47 371.91 1256.26 313.01 1112.43 418.66 1088.62 575.32 1263.06 529.11
00002484 00000009 999.00 199.79 462.88 518.85 1043.90 375.80 1253.44 313.89 1110.16 421.10 1087.09 577.07 1262.90 528.33
00002485 00000010 998.58 202.22 463.99 517.39 1043.63 379.26 1252.34 316.45 1109.35 421.90 1086.31 578.66 1261.19 529.37
00002486 00000011 998.89 203.86 461.86 517.80 1043.17 381.88 1250.56 318.94 1108.49 423.84 1087.33 581.90 1260.30 532.44
00002487 00000012 999.13 203.20 463.82 519.47 1042.18 385.13 1251.29 320.83 1108.39 425.19 1086.35 583.82 1262.42 533.35
00002488 00000013 996.98 206.22 464.11 518.62 1040.84 386.99 1248.93 322.79 1107.77 426.82 1086.78 584.73 1262.18 534.23
00002489 00000014 998.10 207.03 462.84 518.82 1041.35 388.97 1246.92 324.10 1106.67 429.43 1088.48 586.31 1262.13 535.18
00002490 00000015 998.53 205.45 462.30 522.45 1041.46 389.46 1247.02 325.14 1106.03 430.63 1088.22 586.97 1262.61 536.24
00002491 00000016 997.60 202.51 462.76 527.00 1040.42 390.19 1246.28 324.58 1104.68 431.55 1088.01 589.13 1262.80 537.29
00002492 00000017 998.97 203.79 461.77 527.50 1039.38 393.02 1245.37 326.76 1103.99 433.30 1086.85 592.20 1263.27 539.84
00002493 00000018 997.71 202.74 462.37 529.92 1039.59 392.87 1244.06 328.84 1103.03 435.09 1085.93 590.99 1261.84 540.27
00002494 00000019 994.29 195.88 466.14 550.50 1040.17 390.05 1244.57 329.18 1104.00 434.74 1088.05 596.08 1256.05 547.35
00002495 DELETE   993.44 195.98 466.70 563.05 1041.93 387.83 1244.06 329.49 1106.42 433.23 1092.13 601.33 1255.21 554.64
00002496 00000021 994.19 194.41 466.77 569.90 1042.26 385.97 1247.61 330.32 1109.13 432.80 1090.80 604.76 1257.26 560.19
00002497 00000022 994.50 191.18 461.04 576.28 1054.04 394.99 1248.33 335.73 1101.69 435.64 1098.79 608.52 1262.32 560.35
00002498 00000023 996.36 200.97 465.85 563.63 1044.37 390.50 1251.66 332.26 1114.88 435.82 1097.14 610.63 1264.55 563.96
00002499 00000024 996.34 201.71 467.67 553.47 1043.08 390.45 1250.76 333.00 1111.26 438.98 1094.56 606.19 1262.71 560.71
00002500 DELETE   995.76 198.75 467.91 552.92 1042.80 391.49 1250.23 334.03 1110.66 440.09 1093.96 605.48 1261.57 560.23
00002501 00000026 997.74 202.75 466.46 547.60 1044.17 393.05 1252.07 335.14 1113.24 440.24 1096.57 607.36 1262.27 561.87
00002502 00000027 998.23 202.62 464.92 545.41 1043.60 393.17 1251.47 335.00 1113.63 441.59 1097.05 606.94 1263.73 561.20
00002503 00000028 997.32 200.95 466.28 545.47 1043.20 393.40 1250.05 335.72 1110.92 444.61 1096.68 604.52 1263.69 558.97
00002504 00000029 997.13 206.63 465.81 538.12 1044.01 393.74 1250.10 338.07 1112.40 445.74 1095.82 601.41 1263.06 557.50
00002505 00000030 995.29 206.47 467.80 539.18 1043.56 393.82 1249.74 338.38 1111.60 446.28 1095.21 600.66 1262.63 556.76
00002506 00000031 994.39 205.49 470.00 547.19 1043.22 393.43 1250.79 337.75 1112.37 444.87 1095.01 604.67 1261.84 560.52
00002507 00000032 993.56 204.10 471.37 552.15 1043.55 393.70 1249.09 338.09 1110.70 444.59 1095.41 605.25 1260.21 560.85
00002508 00000033 994.47 204.23 470.23 551.94 1044.83 393.95 1249.48 338.99 1111.70 444.71 1096.77 606.73 1259.02 563.03
00002509 00000034 992.39 205.31 473.33 552.31 1044.02 394.67 1250.14 339.48 1112.35 445.92 1096.67 607.94 1259.97 563.98
00002510 00000035 991.44 204.16 474.47 553.82 1042.92 397.09 1250.14 339.99 1112.34 446.36 1096.39 610.18 1259.97 564.74
00002511 00000036 990.92 203.10 474.69 554.48 1043.37 396.24 1249.91 340.91 1112.68 447.30 1095.85 609.01 1259.41 565.00
00002512 00000037 992.69 202.86 473.31 553.40 1043.28 396.53 1249.72 341.03 1112.20 448.20 1095.79 610.12 1258.29 566.23
00002513 00000038 991.26 203.91 474.74 553.11 1042.18 396.70 1249.86 341.59 1111.30 449.78 1096.28 611.77 1258.82 567.87
00002514 00000039 993.26 204.18 473.39 553.63 1043.44 397.96 1250.42 342.72 1112.19 452.17 1098.95 613.66 1259.57 569.48
00002515 00000040 995.27 203.42 471.40 557.99 1046.22 396.73 1251.61 342.73 1114.63 454.18 1101.05 612.71 1261.24 569.17
00002516 00000041 997.96 204.20 468.47 558.27 1047.56 395.95 1252.55 345.01 1114.56 455.18 1099.79 611.77 1259.47 570.87
00002517 00000042 998.70 207.00 469.03 557.01 1048.19 395.73 1252.95 345.22 1113.84 454.75 1100.73 612.25 1259.06 571.56
00002518 00000043 998.45 209.10 469.27 555.86 1047.65 395.62 1252.41 344.56 1113.19 453.92 1100.41 612.32 1259.42 571.07
00002519 00000044 998.97 208.42 468.72 556.74 1047.88 395.93 1252.67 345.91 1112.03 455.02 1099.84 613.03 1257.73 572.67
00002520 00000045 999.11 208.38 468.42 557.05 1047.33 396.64 1252.53 345.32 1112.11 454.77 1100.40 614.77 1257.67 573.35
00002521 00000046 998.93 206.96 468.74 559.32 1047.38 399.55 1252.42 347.52 1110.99 456.21 1099.52 616.58 1256.62 574.68
00002522 00000047 999.41 206.64 467.91 561.11 1047.46 398.82 1253.03 347.36 1111.17 456.13 1099.36 617.25 1256.49 575.72
00002523 00000048 999.66 207.15 467.32 564.13 1047.41 398.62 1253.12 346.63 1111.23 455.24 1098.88 618.88 1256.43 576.59
00002524 00000049 1000.08 206.47 465.50 573.77 1048.57 396.68 1253.06 344.99 1110.97 452.72 1098.90 622.41 1253.28 580.05
00002525 00000050 999.58 209.15 466.11 578.72 1048.16 399.17 1251.80 344.09 1111.64 454.33 1102.82 629.82 1256.19 584.25
00002526 00000051 1000.87 204.64 467.31 572.60 1044.34 398.72 1247.63 342.93 1106.31 456.76 1101.00 626.19 1258.86 580.33
00002527 00000052 998.05 204.91 470.38 563.12 1043.17 399.68 1248.50 345.40 1107.09 457.10 1098.52 619.59 1258.17 575.66
00002528 00000053 997.38 206.54 471.36 559.97 1044.09 400.73 1249.56 346.32 1108.63 457.92 1099.64 615.10 1261.02 570.80
00002529 00000054 996.36 204.03 470.58 561.33 1044.72 398.19 1248.87 345.17 1108.76 457.68 1098.05 610.85 1261.75 567.77
00002530 00000055 996.39 204.87 470.46 559.60 1044.35 396.64 1246.89 345.17 1106.54 457.26 1096.77 608.85 1259.01 567.16
00002531 00000056 996.37 202.34 470.81 563.22 1043.67 395.49 1246.31 343.41 1107.04 456.88 1096.91 610.37 1259.32 568.09
00002532 00000057 995.61 205.47 468.88 564.49 1045.72 396.18 1246.93 344.23 1109.35 454.78 1097.84 611.72 1259.15 569.32
00002533 00000058 994.33 208.97 470.89 575.70 1045.82 401.14 1247.39 343.87 1108.76 453.53 1100.83 623.82 1260.90 576.11
00002534 00000059 995.42 205.68 469.70 580.04 1045.97 401.12 1246.92 343.44 1108.07 455.90 1101.89 627.01 1261.55 578.70
00002535 00000060 994.74 204.31 470.41 580.52 1045.15 401.61 1247.04 343.71 1107.81 456.40 1101.40 626.64 1262.39 578.15
00002536 00000061 993.64 200.98 471.13 579.24 1044.38 401.01 1245.50 343.83 1105.61 455.53 1099.28 624.18 1259.52 576.82
00002537 00000062 992.07 200.27 472.64 574.53 1042.42 397.96 1245.81 343.27 1107.50 455.83 1098.05 620.37 1259.39 575.59
00002538 00000063 990.50 201.23 473.70 566.03 1039.77 398.47 1243.11 343.00 1104.90 455.12 1096.47 617.67 1256.59 572.89
00002539 00000064 989.48 197.30 475.69 569.01 1038.63 397.37 1241.78 341.66 1102.75 455.27 1095.56 617.60 1254.68 572.67
00002540 00000065 988.57 198.13 476.19 567.94 1038.51 398.05 1241.28 342.29 1101.77 454.39 1094.45 617.40 1253.60 572.44
00002541 00000066 986.68 199.03 477.02 564.21 1036.57 397.87 1238.91 342.15 1099.29 454.32 1092.41 615.24 1251.58 570.48
00002542 00000067 985.95 197.93 477.71 565.41 1035.67 397.79 1237.68 342.31 1096.86 454.18 1089.98 614.00 1250.20 569.49
00002543 00000068 985.45 194.91 476.32 566.47 1034.41 397.15 1235.31 340.43 1094.89 454.79 1089.34 614.26 1248.84 568.97
00002544 00000069 986.78 195.92 473.13 565.85 1035.56 394.17 1234.16 340.75 1093.74 453.94 1087.52 611.17 1245.78 568.74
00002545 00000070 986.26 199.03 471.98 563.26 1034.27 393.54 1232.28 339.90 1092.38 452.79 1086.26 610.50 1244.69 567.97
00002546 00000071 984.65 195.69 472.57 563.67 1033.31 392.15 1231.06 339.31 1090.58 453.46 1085.27 609.86 1242.48 568.03
00002547 00000072 982.77 195.80 474.20 563.16 1032.04 392.20 1230.29 340.50 1088.81 453.49 1081.64 608.56 1240.75 567.60
00002548 00000073 979.31 193.90 475.12 568.41 1028.85 393.99 1228.75 340.24 1086.70 454.20 1078.67 610.81 1239.55 568.02
00002549 00000074 978.75 185.03 474.66 577.87 1030.96 396.82 1226.10 341.17 1085.08 456.49 1080.48 613.28 1237.41 568.52
00002550 00000075 979.36 179.27 467.47 583.92 1038.14 397.97 1232.28 343.82 1081.47 453.21 1081.86 616.35 1237.91 568.63
00002551 00000076 977.87 179.15 469.87 584.99 1036.61 394.50 1231.82 343.01 1080.13 453.32 1079.83 615.95 1234.09 570.42
00002552 00000077 984.21 182.98 465.31 573.47 1031.09 388.37 1224.68 331.17 1082.56 443.60 1080.27 610.44 1222.76 562.59
00002553 00000078 978.38 185.15 465.88 566.07 1024.12 387.28 1218.64 332.56 1073.49 442.60 1071.34 605.71 1214.90 559.98
00002554 DELETE   972.07 181.22 458.46 556.13 1004.66 388.30 1197.17 336.84 1043.38 444.34 1044.41 601.55 1187.84 558.66
00002555 DELETE   958.48 173.59 461.48 560.83 986.05 388.23 1171.04 350.61 1015.13 454.25 1019.09 596.66 1155.05 568.32
00002556 DELETE   962.07 185.77 439.58 543.58 985.24 378.54 1154.97 348.99 986.64 452.43 998.97 588.23 1129.61 565.80
00002557 00000082 951.52 179.16 451.01 557.20 979.51 366.25 1146.10 351.67 978.66 448.75 988.06 585.47 1116.60 575.51
00002558 00000083 948.59 187.22 451.30 557.61 985.08 367.56 1142.07 345.12 973.59 445.65 986.21 590.25 1110.23 572.81
00002559 00000084 945.36 187.84 453.81 558.38 980.24 368.57 1140.08 340.82 970.76 443.08 985.15 592.82 1111.27 571.13
00002560 00000085 943.12 192.47 455.42 562.08 981.59 367.71 1139.57 337.97 972.72 443.51 987.37 595.27 1113.56 571.63
00002561 00000086 939.55 187.71 460.49 578.02 982.04 368.21 1135.99 337.08 969.18 444.58 988.79 600.87 1114.39 575.33
00002562 00000087 932.45 185.63 467.70 586.51 975.21 372.14 1130.04 336.75 960.68 447.70 987.83 608.91 1112.14 579.18
00002563 00000088 932.42 184.02 465.32 587.54 970.22 376.18 1123.03 336.08 952.50 451.18 987.14 612.23 1109.10 578.86
00002564 00000089 931.17 190.97 459.19 581.05 966.95 384.07 1117.28 342.46 951.14 460.45 990.56 616.28 1107.23 581.75
00002565 00000090 920.57 196.80 461.06 581.27 957.89 395.71 1108.87 349.02 944.29 468.35 984.83 625.82 1100.69 586.93
00002566 00000091 911.73 203.48 470.24 575.49 938.49 399.03 1103.62 341.25 943.01 468.51 976.19 636.17 1089.46 587.66
00002567 00000092 902.38 206.35 468.47 583.15 928.36 405.61 1096.24 342.79 939.20 471.97 972.05 648.64 1083.79 596.37
00002568 00000093 893.98 221.73 484.92 575.66 938.76 412.41 1095.87 351.95 939.27 471.86 970.68 645.14 1087.92 596.76
00002569 00000094 892.59 211.51 473.78 583.22 912.40 407.74 1090.45 343.18 934.47 474.95 968.53 654.68 1088.33 601.22
00002570 00000095 893.77 207.60 469.34 584.11 911.84 409.50 1090.06 344.68 931.76 474.94 964.02 651.02 1088.12 597.47
00002571 00000096 908.02 196.91 470.80 585.76 923.43 414.20 1088.82 350.33 940.18 476.34 971.40 640.45 1095.44 587.21
00002572 00000097 910.34 196.84 464.96 571.50 923.43 413.54 1086.91 350.39 942.14 474.57 970.37 633.58 1093.41 581.17
00002573 00000098 896.34 204.83 466.69 556.22 910.76 409.71 1084.65 344.27 932.24 466.46 961.20 629.20 1086.38 576.46
00002574 00000099 895.34 199.14 466.26 549.81 909.60 407.27 1082.90 341.72 932.58 461.85 963.03 621.21 1089.39 568.72
00002575 00000100 897.65 197.57 462.37 543.65 914.35 407.98 1085.18 340.63 934.70 457.00 963.21 616.58 1088.25 562.96
00002576 00000101 898.53 201.10 461.05 538.26 916.80 404.27 1086.35 336.91 935.76 453.06 962.34 612.15 1089.67 558.73
00002577 00000102 896.62 207.62 460.89 526.54 915.32 401.54 1085.29 334.87 936.10 449.08 961.87 606.12 1093.04 553.48
00002578 DELETE   896.99 211.78 460.93 516.50 914.94 400.40 1085.19 331.93 938.01 444.35 962.01 601.05 1097.80 547.00
00002579 DELETE   898.63 209.24 459.05 514.69 916.46 402.22 1085.12 329.70 937.07 441.05 960.90 600.90 1096.78 543.94
00002580 DELETE   898.71 211.98 461.62 511.18 918.62 401.80 1085.80 328.10 938.09 439.25 962.62 599.87 1098.19 541.66
00002581 00000106 901.77 211.22 459.68 510.90 922.07 400.29 1086.39 327.24 939.23 438.85 965.40 598.02 1099.21 540.07
00002582 00000107 909.56 210.82 442.06 506.00 920.73 393.64 1083.27 326.38 924.70 444.28 965.50 595.11 1093.97 538.96
00002583 00000108 912.24 206.25 438.91 508.57 922.91 395.29 1083.44 324.99 925.66 443.15 968.76 596.77 1094.93 537.90
00002584 00000109 914.24 208.89 440.22 505.02 925.77 396.16 1086.16 325.25 927.36 443.42 972.24 596.78 1097.42 537.12
00002585 DELETE   920.09 222.87 443.68 508.83 947.28 400.26 1099.60 339.26 944.84 445.59 976.35 595.40 1107.50 546.40
00002586 00000111 927.70 229.39 442.95 500.73 954.89 398.64 1103.91 337.85 951.93 444.17 981.98 593.43 1111.78 545.40
00002587 DELETE   936.29 225.17 442.55 505.09 960.99 399.74 1109.03 338.25 958.17 444.64 988.78 593.11 1119.30 544.91
00002588 00000113 939.17 228.13 445.81 503.86 965.51 394.67 1113.62 337.34 964.13 443.21 993.91 590.19 1125.07 545.24
00002589 DELETE   942.98 225.24 444.44 506.12 967.24 397.76 1115.38 338.76 966.29 444.87 998.18 592.32 1127.44 546.23
00002590 00000115 941.84 222.33 445.47 512.33 964.78 403.44 1117.34 341.46 969.92 448.57 999.15 596.93 1132.09 548.59
00002591 DELETE   940.16 212.92 450.03 525.18 960.64 410.41 1123.59 342.77 975.31 452.24 1001.92 604.56 1139.32 551.89
00002592 00000117 943.06 214.69 451.68 523.94 963.71 411.94 1124.92 342.78 979.55 453.60 1006.89 606.33 1142.06 552.14
00002593 00000118 942.16 214.57 455.47 526.63 964.03 417.49 1125.53 348.97 981.03 459.71 1009.69 609.55 1144.67 555.62
00002594 00000119 941.79 213.89 460.99 526.41 961.65 424.29 1128.38 348.93 985.63 462.11 1016.43 614.84 1152.28 555.50
CROP_BBOX: 727 0 1635 927
