Video ID: 	SmYvuD6_raw
H: 	1080
W: 	1920
FPS: 	25.0

FRAME INDEX X0 Y0 W H [Landmarks (5 Points)]

00006250 00000000 978.54 213.20 492.58 705.96 1112.51 495.18 1343.49 490.78 1237.59 642.05 1145.22 746.87 1333.07 744.08
00006251 00000001 976.94 208.63 493.42 706.16 1110.34 492.71 1342.73 491.74 1232.62 641.98 1139.07 742.40 1328.02 742.28
00006252 00000002 976.93 213.56 491.26 697.40 1111.43 490.19 1342.93 490.86 1232.21 640.10 1137.34 738.45 1324.94 739.86
00006253 00000003 976.52 210.64 492.67 702.26 1112.76 489.67 1343.57 488.76 1235.66 639.14 1139.91 737.87 1329.33 737.77
00006254 00000004 976.02 210.25 493.00 704.85 1116.57 489.59 1343.88 486.63 1241.85 635.14 1145.30 737.83 1335.26 735.90
00006255 00000005 974.78 210.32 494.88 706.17 1120.40 483.15 1346.61 479.04 1249.80 630.06 1150.15 734.42 1341.42 731.42
00006256 00000006 976.05 186.75 492.23 719.87 1122.24 476.19 1348.76 471.01 1254.89 619.79 1150.78 728.54 1342.71 724.44
00006257 00000007 972.19 181.88 497.16 723.83 1120.29 470.01 1348.29 463.08 1251.97 610.40 1153.02 721.77 1344.78 715.50
00006258 DELETE   978.89 171.50 491.65 738.69 1119.10 463.26 1346.58 452.27 1251.72 603.48 1156.22 727.38 1339.26 718.24
00006259 DELETE   974.63 172.95 493.34 735.35 1111.05 456.00 1341.35 448.32 1239.46 596.89 1146.65 724.96 1327.41 719.06
00006260 DELETE   974.21 175.47 493.31 722.50 1102.60 454.34 1331.50 449.67 1224.56 596.21 1139.12 721.07 1313.77 717.88
00006261 00000011 968.18 184.79 487.91 698.12 1091.71 456.47 1321.09 449.89 1209.51 593.96 1128.12 717.01 1304.67 709.79
00006262 00000012 966.98 182.99 488.41 695.27 1091.42 456.75 1322.50 451.11 1210.66 593.89 1125.05 712.53 1307.25 706.25
00006263 00000013 974.44 175.18 488.77 706.88 1100.94 461.01 1327.73 454.48 1219.84 602.33 1133.78 713.71 1316.48 708.29
00006264 00000014 979.41 174.94 483.99 714.09 1105.09 465.49 1333.03 456.24 1229.60 607.07 1138.22 720.04 1326.97 712.26
00006265 00000015 973.72 179.24 487.30 719.09 1104.58 468.38 1331.86 457.24 1231.75 607.86 1141.71 726.54 1327.15 716.99
00006266 DELETE   963.23 191.45 487.08 703.08 1097.20 472.65 1323.28 460.39 1224.73 610.89 1136.14 726.19 1321.67 715.14
00006267 00000017 956.67 197.18 490.65 698.08 1087.67 472.75 1316.05 462.87 1211.61 611.37 1123.09 721.23 1311.77 712.28
00006268 00000018 956.97 187.38 488.61 711.11 1081.53 470.15 1308.56 460.52 1201.91 607.78 1120.59 727.23 1299.75 718.17
00006269 00000019 960.76 181.95 486.42 716.00 1082.87 463.40 1308.50 451.53 1203.47 602.19 1128.90 729.95 1297.22 718.84
00006270 DELETE   959.58 185.03 490.61 709.14 1095.55 458.00 1316.79 441.56 1222.41 593.62 1149.46 725.64 1313.25 710.32
00006271 00000021 963.52 190.46 487.67 704.24 1102.76 455.64 1322.17 439.72 1228.36 587.96 1153.48 719.77 1321.77 704.27
00006272 00000022 963.16 190.60 488.43 708.08 1103.30 455.33 1324.02 440.45 1230.36 589.14 1151.37 720.17 1323.06 705.55
00006273 00000023 961.81 181.73 489.44 717.73 1098.26 460.38 1323.13 446.38 1225.60 594.86 1140.18 719.03 1323.58 705.78
00006274 00000024 958.12 185.98 491.92 713.41 1093.10 463.22 1320.40 449.95 1219.79 597.55 1130.57 716.56 1322.33 704.07
00006275 00000025 958.76 185.46 490.39 714.55 1091.52 463.14 1318.86 450.66 1216.87 596.55 1126.74 714.88 1320.83 703.12
00006276 00000026 958.62 188.47 491.40 713.81 1091.09 464.68 1318.36 451.89 1216.12 597.65 1126.61 717.31 1320.77 705.20
00006277 00000027 960.07 189.34 490.12 713.13 1092.80 464.73 1320.00 453.27 1217.43 597.81 1126.20 716.17 1321.52 705.21
00006278 00000028 959.32 189.00 489.77 708.41 1092.55 463.39 1320.81 452.12 1217.79 598.28 1124.66 712.77 1321.72 702.07
00006279 00000029 961.40 184.30 486.62 708.82 1092.75 461.87 1321.19 450.97 1217.73 596.01 1124.72 711.00 1320.14 700.56
00006280 00000030 964.54 183.25 483.13 700.03 1091.40 461.76 1321.48 451.00 1216.29 595.41 1124.33 710.15 1318.47 699.88
00006281 00000031 964.53 179.95 484.51 699.56 1091.15 459.92 1321.73 450.26 1215.62 593.69 1124.66 708.06 1317.91 698.66
00006282 00000032 965.16 177.25 485.21 697.18 1090.79 459.35 1322.57 450.10 1215.21 592.24 1124.40 705.55 1318.48 696.32
00006283 00000033 964.48 179.59 485.03 694.25 1093.40 461.74 1322.32 453.20 1216.70 591.63 1126.27 704.88 1318.81 696.33
00006284 00000034 969.65 170.64 485.78 703.68 1100.12 470.59 1328.35 462.50 1219.58 593.42 1122.81 704.39 1319.89 696.85
00006285 00000035 973.08 169.79 484.95 706.74 1101.07 464.83 1328.97 458.65 1218.35 592.04 1123.40 704.65 1317.82 699.20
00006286 00000036 976.98 173.08 484.91 716.53 1100.60 464.91 1328.93 459.97 1216.99 594.66 1122.52 710.78 1317.90 706.50
00006287 00000037 977.36 174.12 489.16 719.28 1102.33 457.51 1331.90 456.03 1218.49 592.26 1123.53 709.91 1315.38 708.84
00006288 00000038 979.32 175.94 488.80 721.37 1104.63 455.27 1333.08 456.47 1218.89 592.48 1123.14 709.39 1313.55 710.62
00006289 00000039 981.19 170.52 489.55 726.66 1106.82 451.89 1335.24 455.87 1220.01 591.12 1123.47 707.78 1313.34 711.45
00006290 00000040 982.70 175.64 489.45 722.91 1108.98 449.68 1337.16 455.17 1221.89 590.76 1124.47 707.54 1312.82 712.52
00006291 00000041 983.66 178.10 490.80 721.08 1111.45 446.49 1340.75 453.42 1224.66 588.94 1126.52 705.80 1315.60 711.95
00006292 00000042 983.94 180.58 493.97 720.08 1113.58 444.86 1342.13 452.36 1225.43 588.38 1128.71 706.02 1316.46 712.61
00006293 00000043 985.62 185.88 494.52 717.66 1115.56 444.96 1343.62 453.55 1227.06 589.52 1130.30 707.66 1319.40 715.09
00006294 00000044 988.65 175.22 494.19 729.64 1118.72 443.12 1345.44 452.73 1229.87 587.55 1132.33 706.78 1322.14 714.97
00006295 00000045 989.49 171.78 494.54 734.55 1121.25 442.97 1347.25 451.87 1232.67 586.70 1133.70 706.40 1324.40 714.02
00006296 00000046 989.91 176.17 494.07 729.44 1122.03 446.02 1347.62 454.09 1234.50 590.00 1135.03 708.12 1325.35 715.18
00006297 00000047 989.51 176.04 494.21 730.65 1121.56 446.04 1347.49 454.46 1234.17 590.46 1134.46 708.74 1325.14 716.13
00006298 00000048 988.84 176.42 494.55 729.03 1120.77 445.71 1347.45 453.85 1233.93 590.34 1134.14 708.79 1324.96 715.95
00006299 00000049 988.83 169.33 493.77 738.60 1119.09 447.22 1345.77 455.23 1232.56 589.82 1132.96 710.54 1323.56 717.49
00006300 00000050 988.72 168.26 493.19 740.30 1119.38 446.13 1344.82 455.43 1231.10 588.88 1131.83 709.73 1321.64 717.72
00006301 00000051 987.38 169.77 494.34 738.72 1119.13 444.91 1345.11 454.54 1231.03 588.40 1131.86 708.98 1321.40 717.20
00006302 00000052 987.83 168.65 493.57 739.19 1118.29 444.71 1345.02 454.58 1230.27 588.61 1130.70 709.44 1320.09 717.89
00006303 00000053 987.59 166.84 493.64 744.65 1117.80 445.23 1344.73 455.03 1230.44 589.59 1131.12 711.58 1318.94 719.98
00006304 00000054 988.50 165.97 491.04 736.01 1116.54 446.48 1344.66 455.09 1229.51 589.85 1130.87 709.77 1317.43 717.44
00006305 00000055 989.32 167.43 490.00 728.41 1115.27 447.11 1344.55 453.90 1229.06 591.50 1133.28 709.86 1317.12 716.19
00006306 00000056 990.34 167.78 487.92 728.31 1114.75 448.36 1344.20 453.97 1229.64 592.10 1134.59 711.53 1317.76 716.78
00006307 00000057 990.45 168.38 487.39 718.33 1114.37 448.76 1344.90 454.07 1229.06 592.32 1134.24 708.73 1316.02 713.89
00006308 00000058 989.80 171.31 487.59 712.90 1114.48 447.99 1345.18 453.00 1229.14 591.00 1133.74 706.33 1315.95 711.31
00006309 00000059 989.74 171.57 487.03 710.00 1114.66 448.42 1345.35 453.02 1228.77 589.42 1132.33 703.21 1317.71 707.72
00006310 00000060 988.34 171.16 487.95 710.06 1114.13 448.76 1344.99 452.85 1227.90 588.32 1131.82 702.30 1317.02 706.40
00006311 00000061 988.53 167.61 488.84 714.08 1113.57 446.81 1344.85 450.93 1228.11 587.81 1133.09 704.39 1316.91 708.61
00006312 00000062 988.46 168.21 487.34 726.57 1113.88 447.07 1342.91 452.97 1228.70 586.70 1134.99 713.43 1311.11 719.28
00006313 00000063 987.55 167.56 489.61 733.68 1112.54 447.23 1342.37 453.83 1227.64 588.38 1135.21 719.15 1310.76 725.49
00006314 00000064 988.54 165.20 486.48 731.83 1111.30 447.70 1341.06 453.09 1226.80 588.47 1134.24 717.14 1310.07 722.46
00006315 00000065 986.88 157.28 488.61 743.53 1111.87 447.34 1340.99 451.87 1227.56 586.23 1133.60 712.87 1314.88 717.28
00006316 00000066 986.84 159.60 488.98 743.83 1111.19 446.75 1340.68 451.10 1227.21 585.75 1133.89 714.94 1314.82 719.21
00006317 00000067 986.38 164.51 487.58 736.64 1111.13 447.56 1340.58 452.19 1226.89 585.21 1133.42 715.04 1310.91 719.79
00006318 00000068 986.20 161.77 487.68 737.60 1112.08 449.81 1340.08 456.20 1225.59 586.41 1133.11 714.55 1307.39 720.80
00006319 00000069 986.82 163.94 486.90 736.90 1112.01 453.04 1339.33 458.61 1225.95 589.57 1133.01 716.36 1309.08 721.75
00006320 00000070 978.70 160.73 494.26 740.81 1112.32 454.55 1332.22 458.68 1220.72 589.21 1131.91 711.69 1303.07 715.62
00006321 00000071 980.94 159.42 493.45 742.80 1113.51 450.06 1336.22 454.49 1223.99 586.56 1131.68 709.80 1308.32 714.08
00006322 00000072 989.21 154.11 490.55 746.48 1116.49 445.09 1342.46 451.94 1231.60 585.69 1136.20 709.87 1317.52 716.03
00006323 00000073 987.10 153.92 493.57 748.88 1119.85 446.16 1344.65 454.87 1232.33 586.59 1133.59 705.74 1317.18 713.48
00006324 00000074 989.10 148.97 494.53 755.34 1121.92 448.87 1346.33 460.06 1232.17 593.06 1132.49 707.71 1315.87 717.47
00006325 00000075 991.82 150.61 492.23 759.30 1123.56 456.29 1343.98 470.66 1228.84 602.10 1130.11 712.33 1311.20 724.70
00006326 00000076 982.42 162.71 496.34 750.80 1118.52 471.35 1344.81 485.57 1230.55 622.38 1126.25 721.80 1310.57 733.50
00006327 00000077 987.54 175.49 490.26 743.50 1119.49 484.46 1346.60 496.04 1233.23 637.49 1128.13 738.80 1310.08 748.98
00006328 00000078 990.50 183.28 488.58 743.55 1123.46 492.44 1348.12 504.67 1234.58 646.78 1127.91 744.70 1314.30 755.40
00006329 00000079 991.26 191.31 489.39 736.48 1122.91 494.61 1348.64 506.89 1234.34 650.51 1128.45 747.25 1315.42 758.02
00006330 00000080 992.37 183.45 491.53 731.57 1125.32 488.26 1350.41 501.29 1234.31 641.70 1133.57 740.06 1309.42 751.91
00006331 DELETE   989.83 166.52 492.90 743.38 1121.93 473.98 1348.80 488.63 1231.28 626.71 1131.34 729.96 1308.59 742.55
00006332 00000082 995.76 159.31 496.26 754.00 1122.34 456.20 1347.06 472.44 1227.45 606.54 1132.83 721.98 1311.15 736.10
00006333 00000083 988.55 164.70 502.76 739.93 1127.59 451.93 1351.77 465.72 1225.63 594.72 1137.27 710.86 1310.14 723.34
00006334 00000084 990.69 165.81 501.85 734.26 1128.83 450.21 1351.95 465.86 1225.33 594.49 1136.46 710.33 1302.14 724.73
00006335 00000085 994.23 166.02 497.29 733.42 1126.00 456.32 1350.08 472.77 1222.06 601.43 1131.73 714.39 1299.69 729.57
00006336 00000086 998.01 172.07 490.98 717.42 1120.06 460.77 1343.18 478.56 1215.62 609.77 1130.01 719.30 1295.10 735.05
00006337 00000087 996.44 168.37 493.11 715.70 1121.57 458.15 1344.53 474.40 1217.18 606.97 1132.94 713.25 1299.16 727.62
00006338 00000088 1001.85 161.40 488.80 720.48 1122.14 447.69 1347.78 460.86 1226.81 598.12 1134.63 705.65 1312.79 717.59
00006339 00000089 1001.13 159.71 487.36 715.22 1124.94 443.17 1348.77 452.93 1231.08 590.29 1138.53 698.38 1318.73 707.54
00006340 00000090 999.39 155.78 489.27 717.50 1126.00 439.51 1349.66 448.21 1232.76 583.44 1140.80 697.20 1318.80 705.44
00006341 00000091 1000.41 159.48 490.11 717.23 1126.64 438.08 1351.07 448.17 1233.07 583.28 1140.79 698.52 1320.03 707.93
00006342 00000092 1001.68 158.16 490.71 721.87 1129.00 438.07 1352.11 449.88 1233.51 583.29 1140.95 698.90 1320.26 709.68
00006343 00000093 1003.00 160.58 490.95 721.12 1130.92 437.63 1353.90 450.81 1234.70 582.23 1140.03 697.71 1320.81 709.46
00006344 00000094 999.01 163.01 492.29 704.82 1134.30 437.67 1357.55 452.74 1235.32 577.35 1138.89 688.31 1317.19 701.41
00006345 00000095 1000.00 162.94 492.64 703.74 1136.53 434.60 1358.08 447.80 1238.74 571.46 1142.24 685.25 1319.50 696.86
00006346 00000096 1002.62 158.84 491.36 718.45 1137.39 430.85 1359.19 442.67 1244.24 567.48 1143.17 687.91 1326.34 698.40
00006347 00000097 1001.46 151.36 491.06 724.71 1136.98 430.79 1358.00 441.21 1244.75 566.70 1142.90 686.27 1328.11 695.70
00006348 00000098 997.00 152.37 492.18 728.42 1132.68 432.51 1354.90 441.47 1243.55 569.12 1139.83 687.73 1329.44 695.82
00006349 00000099 994.27 153.71 492.66 724.26 1125.49 436.48 1352.59 442.31 1240.01 573.01 1135.23 688.85 1330.60 694.20
00006350 00000100 992.37 153.32 491.77 728.24 1124.69 439.30 1350.80 446.15 1238.62 574.69 1134.99 693.88 1323.31 700.31
00006351 00000101 989.83 159.27 488.31 737.80 1121.34 440.88 1345.20 448.54 1234.96 577.19 1137.88 706.73 1314.47 714.04
00006352 00000102 985.98 158.10 485.26 745.28 1116.50 445.15 1341.13 450.53 1233.77 581.63 1138.63 714.27 1310.02 719.76
00006353 00000103 983.98 159.08 486.20 741.25 1111.07 450.64 1338.93 454.53 1228.15 587.41 1134.08 715.90 1309.70 719.96
00006354 00000104 979.96 162.13 489.61 741.13 1108.12 455.81 1334.42 460.59 1222.11 589.79 1127.22 717.01 1305.17 721.47
00006355 00000105 978.87 160.27 487.98 749.13 1106.20 460.92 1333.75 467.40 1219.92 598.46 1117.04 714.36 1310.84 719.82
00006356 00000106 978.02 162.65 489.05 748.57 1106.40 467.95 1333.06 475.25 1219.80 608.88 1115.74 716.26 1315.25 721.87
00006357 00000107 977.21 168.36 489.88 738.53 1105.89 474.73 1333.91 483.21 1218.38 615.82 1114.48 718.94 1312.96 725.57
00006358 00000108 980.74 178.32 487.19 721.89 1106.95 475.22 1337.60 481.76 1221.44 617.86 1120.67 724.15 1313.65 729.62
00006359 00000109 984.54 174.10 485.79 726.65 1110.84 472.45 1341.20 478.28 1226.63 614.59 1125.77 723.91 1315.01 729.08
00006360 00000110 979.50 179.73 490.70 718.70 1116.69 470.17 1342.92 478.53 1233.18 611.81 1128.42 717.46 1314.70 724.76
00006361 00000111 983.33 179.06 490.85 721.10 1121.74 468.27 1345.92 476.79 1238.19 609.05 1133.76 719.17 1316.65 726.84
00006362 00000112 992.49 175.89 490.48 728.11 1125.04 466.63 1351.63 472.76 1240.79 605.35 1141.55 723.01 1322.35 729.08
00006363 00000113 992.84 171.08 494.44 731.75 1130.79 464.40 1356.38 469.95 1247.09 602.75 1148.39 722.23 1324.80 728.00
00006364 00000114 994.32 169.48 493.62 733.10 1134.77 461.88 1359.49 466.40 1252.30 601.15 1154.45 719.59 1331.83 724.36
00006365 00000115 995.65 167.27 494.33 736.97 1136.11 460.18 1360.56 464.48 1253.42 599.76 1154.03 716.86 1333.65 721.40
00006366 00000116 994.87 167.13 495.01 735.38 1134.73 458.57 1361.74 465.58 1252.02 600.14 1146.77 710.99 1337.77 717.44
00006367 00000117 996.31 167.44 493.46 727.68 1131.48 459.62 1362.32 465.15 1250.15 603.64 1144.61 708.27 1343.08 713.38
00006368 00000118 996.34 167.82 492.47 716.68 1132.02 461.67 1363.18 468.19 1248.25 604.59 1141.21 702.12 1341.77 708.05
00006369 00000119 994.20 164.61 492.20 719.55 1128.91 459.93 1357.76 467.54 1241.54 601.58 1136.55 698.79 1336.56 705.51
CROP_BBOX: 672 0 1766 1080
