Video ID: 	ZzlJ4mjV4_Q
H: 	1080
W: 	1920
FPS: 	25.0

FRAME INDEX X0 Y0 W H [Landmarks (5 Points)]

00011060 00000000 728.08 201.10 394.46 608.18 813.22 469.35 978.03 443.11 894.25 560.94 863.57 680.25 983.86 659.78
00011061 00000001 730.58 201.19 393.42 605.20 814.70 468.18 981.15 441.78 896.53 558.32 863.05 677.52 985.39 657.21
00011062 00000002 732.39 195.63 392.75 608.65 815.16 464.54 983.92 438.80 896.69 553.62 861.71 675.74 985.38 655.99
00011063 00000003 734.14 195.11 390.55 605.81 816.32 463.07 985.51 438.04 897.79 551.44 862.25 672.46 987.31 653.21
00011064 00000004 734.07 196.19 392.88 602.95 817.10 458.67 987.75 435.05 899.42 546.94 861.82 668.72 988.57 650.35
00011065 00000005 734.03 196.51 394.80 601.03 817.97 453.48 991.56 430.92 900.99 541.77 861.23 664.44 990.76 646.81
00011066 00000006 735.13 196.23 395.42 599.88 819.66 450.35 995.99 428.79 902.49 540.88 859.66 662.40 992.51 645.49
00011067 00000007 739.56 181.69 394.86 612.19 821.73 439.16 997.41 433.08 902.61 541.33 856.47 653.54 990.85 650.01
00011068 00000008 745.69 182.94 390.72 608.27 826.01 435.39 1000.76 429.92 904.66 535.93 856.70 649.98 993.29 646.95
00011069 00000009 750.28 175.09 393.42 617.57 829.48 431.81 1004.36 428.23 904.73 532.02 855.83 647.40 993.72 646.15
00011070 00000010 751.91 177.88 393.29 615.70 834.05 434.76 1006.66 433.15 906.08 531.33 857.18 646.93 992.76 647.39
00011071 DELETE   753.00 179.28 398.49 612.65 837.05 436.93 1019.01 439.47 908.96 530.64 854.64 643.27 997.96 646.96
00011072 00000012 755.06 189.67 403.61 600.00 843.31 433.03 1027.57 437.24 913.79 530.21 856.48 641.96 1000.43 647.56
00011073 00000013 757.78 187.01 404.58 599.15 847.50 432.67 1030.21 438.95 917.32 529.27 860.03 638.13 1002.09 645.22
00011074 DELETE   764.70 183.02 399.99 604.46 855.64 429.84 1029.41 437.17 922.25 526.94 867.92 637.53 1002.34 645.80
00011075 DELETE   767.75 183.04 399.30 601.75 862.03 427.46 1035.53 436.46 929.08 526.35 872.51 636.80 1003.11 646.95
00011076 DELETE   772.49 189.88 395.93 593.70 862.85 427.97 1037.80 436.80 937.29 529.67 875.72 637.63 1000.70 646.16
00011077 00000017 779.54 191.90 393.84 588.44 867.77 426.73 1042.36 437.28 939.85 529.94 879.00 636.15 1003.83 646.05
00011078 00000018 782.39 192.25 395.36 588.92 872.09 425.29 1046.67 438.37 942.71 530.20 879.83 635.13 1004.92 647.24
00011079 00000019 784.76 182.85 394.77 598.12 881.10 422.89 1050.27 440.02 942.30 529.85 881.47 634.41 1006.03 651.37
00011080 00000020 787.43 184.95 392.85 597.54 883.62 424.19 1052.64 440.23 945.20 531.61 884.62 637.41 1007.78 653.79
00011081 00000021 788.32 182.53 396.99 601.52 884.62 425.11 1056.39 441.29 946.21 534.64 885.67 639.13 1012.40 655.22
00011082 00000022 788.34 176.91 401.27 610.95 887.90 425.73 1058.95 443.67 948.50 536.01 887.39 640.53 1013.02 658.18
00011083 00000023 792.08 172.37 402.29 617.55 883.76 421.78 1059.51 441.57 950.73 536.74 887.53 638.74 1007.27 656.75
00011084 00000024 794.12 173.83 400.85 616.69 884.77 421.80 1059.74 442.43 949.97 535.99 886.43 639.02 1006.22 657.83
00011085 00000025 795.99 171.52 400.84 620.61 885.60 421.79 1060.97 443.03 950.11 537.44 887.24 641.43 1005.68 660.70
00011086 00000026 797.10 173.72 401.00 624.62 886.26 423.41 1061.13 445.61 948.62 537.78 886.71 643.21 1004.15 663.31
00011087 00000027 796.94 173.50 399.00 626.54 886.20 424.58 1060.94 449.23 947.05 539.41 885.28 643.98 1005.03 665.98
00011088 00000028 795.81 169.68 401.40 628.09 883.73 425.23 1059.23 450.65 944.03 540.02 881.93 644.19 1005.42 666.71
00011089 00000029 794.17 167.30 403.60 626.29 881.68 424.49 1059.09 451.71 942.22 541.47 877.78 642.05 1004.01 665.93
00011090 00000030 790.74 171.83 410.93 624.81 878.52 431.16 1062.93 457.35 942.58 541.44 876.02 644.64 1006.66 667.46
00011091 00000031 791.89 173.22 405.74 622.29 876.72 432.87 1057.75 461.48 939.34 543.01 873.33 645.08 1000.22 669.71
00011092 00000032 791.60 171.22 406.50 623.13 874.84 433.25 1056.75 462.02 937.99 543.88 872.23 646.35 998.54 671.12
00011093 00000033 790.51 175.01 401.92 626.52 875.19 441.21 1059.05 460.65 934.84 543.63 868.52 653.52 996.81 670.77
00011094 00000034 789.85 173.59 396.72 626.70 875.76 442.42 1057.45 460.11 937.26 544.34 870.59 653.72 998.71 669.64
00011095 00000035 788.48 183.94 395.98 605.45 879.93 438.82 1053.10 461.43 933.89 546.72 876.49 647.99 1002.79 669.23
00011096 00000036 786.71 180.62 398.04 600.42 877.77 436.49 1053.18 458.41 933.18 544.34 874.22 642.32 1004.04 662.80
00011097 00000037 786.14 181.10 395.54 601.42 877.11 435.05 1053.76 457.29 935.02 543.45 872.60 640.49 1006.07 661.19
00011098 00000038 785.26 177.11 393.42 601.48 876.59 433.30 1053.32 455.15 934.70 540.99 872.41 639.14 1005.57 659.25
00011099 00000039 784.65 177.92 393.44 603.89 876.62 433.73 1052.95 455.15 935.14 541.42 872.70 641.27 1003.92 661.28
00011100 00000040 784.34 177.33 394.01 605.90 876.10 432.21 1050.96 454.08 934.34 540.05 871.45 638.56 1003.14 658.94
00011101 00000041 784.30 178.66 394.05 604.88 875.77 432.37 1050.96 454.10 933.26 540.21 870.70 638.44 1002.65 658.77
00011102 00000042 783.63 177.24 392.76 608.86 874.84 432.02 1047.29 453.32 931.15 541.24 870.28 640.46 999.68 660.44
00011103 00000043 781.01 178.46 392.73 608.94 872.79 432.90 1043.81 454.45 929.25 542.10 870.04 643.19 996.16 663.52
00011104 00000044 781.22 181.07 392.54 605.43 870.34 436.85 1042.94 458.09 925.74 544.30 869.32 644.64 996.37 664.71
00011105 00000045 782.18 181.87 392.89 602.77 868.30 438.71 1044.78 460.28 926.12 545.50 865.93 643.52 998.43 663.68
00011106 00000046 781.21 181.85 392.40 600.78 868.15 438.09 1045.78 461.42 926.13 547.19 863.73 640.31 998.75 661.93
00011107 00000047 781.66 182.62 392.78 602.29 869.52 439.23 1045.78 461.99 927.20 548.19 866.02 641.71 999.76 662.91
00011108 00000048 781.06 180.62 394.20 608.91 871.57 439.92 1044.60 461.19 928.28 547.68 871.43 645.37 999.71 665.36
00011109 00000049 781.44 181.11 394.75 615.90 871.63 441.23 1044.43 460.45 928.76 548.91 872.43 649.41 1000.53 668.02
00011110 00000050 781.42 182.92 396.34 613.91 871.67 446.55 1048.72 460.82 931.23 547.12 874.07 649.61 1007.27 664.23
00011111 00000051 781.44 183.95 397.47 612.43 871.30 446.92 1049.32 461.90 929.23 544.38 871.82 647.79 1007.05 662.78
00011112 00000052 780.29 180.53 396.85 614.40 869.54 444.49 1050.49 459.02 929.37 543.99 870.28 645.85 1009.64 660.36
00011113 00000053 779.56 181.90 394.23 607.73 867.90 442.93 1044.22 457.17 928.10 543.06 871.42 642.25 1009.29 656.33
00011114 00000054 778.03 177.83 394.55 608.52 865.83 437.01 1043.55 451.69 928.42 540.35 869.40 638.94 1009.80 652.84
00011115 00000055 775.73 180.83 394.35 605.17 862.48 436.02 1040.51 448.99 927.86 540.34 869.56 639.44 1010.81 651.67
00011116 00000056 775.91 178.78 393.49 605.81 861.87 435.69 1040.94 447.13 928.89 539.47 870.13 641.01 1011.34 651.96
00011117 00000057 773.12 176.17 392.82 601.49 859.88 436.45 1039.30 447.10 929.23 539.60 871.35 641.33 1010.36 651.24
00011118 00000058 772.05 177.47 393.15 597.54 857.08 438.21 1038.83 446.40 929.07 540.93 871.28 640.59 1014.05 648.18
00011119 00000059 769.59 177.39 395.06 595.88 855.69 437.94 1036.67 444.96 927.77 541.83 872.70 641.22 1013.98 647.68
00011120 00000060 768.72 176.01 395.92 596.28 855.37 438.18 1034.71 445.10 928.39 542.93 874.21 641.17 1013.78 647.47
00011121 00000061 765.87 173.75 397.91 597.93 853.31 438.16 1033.33 445.00 926.94 545.59 873.86 642.77 1012.80 649.01
00011122 00000062 765.81 180.35 396.98 591.72 852.05 440.33 1031.57 447.05 924.31 545.58 872.99 644.51 1010.66 650.69
00011123 00000063 765.10 178.77 398.31 596.95 851.67 440.91 1030.12 447.82 922.82 546.64 873.25 647.05 1008.29 653.55
00011124 00000064 765.10 177.07 397.83 601.23 852.41 441.21 1029.48 449.38 922.81 547.76 873.84 649.23 1005.22 656.87
00011125 00000065 764.19 178.60 399.34 604.40 854.11 442.90 1028.14 451.08 924.42 548.86 875.93 651.65 1002.40 659.62
00011126 00000066 765.53 177.18 397.44 612.77 856.73 444.69 1027.32 453.68 925.38 549.88 878.29 656.10 998.44 665.17
00011127 00000067 765.80 178.51 396.88 613.92 857.17 444.52 1026.45 453.24 925.32 549.22 878.39 657.01 997.06 666.10
00011128 00000068 765.74 173.38 396.88 619.83 857.83 443.32 1026.75 453.44 925.34 548.95 878.38 656.32 997.02 666.43
00011129 00000069 765.58 173.53 395.52 620.75 858.13 442.95 1026.23 454.31 924.98 549.52 877.13 655.89 995.28 666.98
00011130 00000070 766.28 176.58 395.95 619.50 858.12 444.25 1025.20 455.46 923.24 550.59 876.84 657.40 993.97 668.53
00011131 00000071 767.01 175.41 395.43 621.48 858.10 444.02 1025.43 455.53 923.16 550.30 876.07 657.24 994.15 668.59
00011132 00000072 767.75 172.73 394.56 625.52 859.00 442.99 1026.04 455.48 923.43 550.53 875.48 656.71 993.77 668.83
00011133 00000073 768.71 179.14 393.35 617.41 858.73 442.29 1026.92 455.23 922.82 550.30 873.51 656.02 992.73 668.96
00011134 00000074 768.67 179.45 393.24 617.81 859.04 441.82 1027.25 455.40 923.10 550.00 873.49 655.42 993.03 668.87
00011135 00000075 767.43 177.95 394.27 618.55 858.95 441.77 1027.88 455.62 923.32 548.66 872.36 654.10 992.76 667.79
00011136 00000076 768.72 179.97 392.09 615.91 858.60 439.75 1028.57 454.64 922.39 548.01 870.13 653.01 992.58 667.63
00011137 00000077 767.14 180.62 393.55 616.21 857.27 439.90 1029.44 455.22 922.14 547.40 868.09 652.65 992.75 667.56
00011138 00000078 767.55 178.23 393.73 618.05 856.83 439.44 1029.69 454.73 921.08 546.80 867.55 652.63 993.27 667.43
00011139 00000079 765.46 176.47 396.45 624.87 856.07 439.28 1029.68 453.71 921.79 545.41 866.77 652.73 994.78 666.77
00011140 00000080 766.18 176.73 397.48 627.94 854.38 439.23 1031.06 452.14 920.32 545.10 864.93 653.89 998.00 666.55
00011141 00000081 766.16 176.80 398.28 631.36 856.17 438.51 1030.12 451.92 921.14 545.94 867.54 653.46 998.52 666.60
00011142 00000082 769.73 173.74 394.75 626.01 858.49 437.85 1031.73 453.97 921.28 545.13 866.85 651.02 996.37 666.28
00011143 00000083 771.40 180.55 393.83 613.00 859.95 438.78 1032.01 453.03 922.51 543.72 869.87 648.44 998.77 662.30
00011144 00000084 772.24 182.57 394.92 603.88 860.22 438.13 1032.29 453.92 921.90 542.64 867.80 640.34 1000.07 655.36
00011145 00000085 775.13 192.62 394.21 593.91 859.84 448.49 1034.95 460.82 920.52 544.27 865.41 639.92 1002.83 652.53
00011146 00000086 777.50 185.77 394.03 608.51 862.13 448.83 1041.21 461.01 921.52 543.20 864.23 644.08 1005.33 656.47
00011147 00000087 780.20 181.25 395.50 617.41 864.10 448.89 1045.77 461.13 923.02 545.26 865.98 646.97 1010.57 659.24
00011148 00000088 781.40 185.15 395.15 613.46 865.59 447.65 1048.96 461.49 925.08 545.93 865.17 646.73 1011.10 660.45
00011149 00000089 782.57 184.03 396.40 612.89 868.25 448.15 1048.26 461.28 929.42 547.02 870.83 648.27 1012.12 661.59
00011150 00000090 781.38 183.26 394.38 603.61 871.84 442.37 1046.15 460.15 931.88 545.08 872.23 641.72 1005.02 658.94
00011151 00000091 783.62 179.01 396.62 606.07 872.93 438.22 1046.45 455.44 931.80 542.71 873.54 641.31 1005.14 657.77
00011152 00000092 785.27 182.83 392.37 609.13 869.95 437.72 1043.56 451.66 937.27 544.59 876.99 646.61 1005.81 659.17
00011153 00000093 786.59 184.23 390.04 606.71 871.22 436.89 1044.45 451.36 938.38 544.53 877.36 647.38 1004.83 660.52
00011154 00000094 786.48 185.59 388.95 604.61 870.60 435.84 1044.83 449.41 938.85 541.50 877.23 645.37 1007.03 657.63
00011155 00000095 784.70 185.79 390.12 602.36 870.00 432.59 1045.42 445.34 940.37 537.78 877.12 642.86 1006.85 654.53
00011156 00000096 784.42 178.36 391.80 606.61 876.00 428.90 1047.55 446.03 936.61 532.35 875.99 637.66 1004.31 654.36
00011157 00000097 784.99 174.54 391.30 608.54 876.10 425.98 1047.08 443.99 935.92 531.31 875.52 635.97 1003.56 653.33
00011158 00000098 787.07 172.36 390.32 613.55 876.99 423.81 1044.82 441.52 935.20 529.40 876.43 636.66 1001.98 653.72
00011159 00000099 786.86 170.68 390.13 614.54 876.84 423.90 1045.45 442.13 935.39 529.81 876.14 636.02 1002.70 653.43
00011160 00000100 785.95 172.12 391.36 611.94 877.67 425.33 1047.73 444.63 936.09 530.67 876.15 634.30 1004.20 652.65
00011161 00000101 785.14 171.61 392.07 612.93 877.72 425.07 1048.53 445.25 935.89 530.80 875.59 636.33 1002.10 655.51
00011162 00000102 784.47 171.95 394.10 616.47 878.15 424.75 1049.15 444.79 935.85 532.10 875.41 636.03 1003.63 655.18
00011163 00000103 785.54 174.81 393.98 615.74 878.34 425.32 1051.20 446.35 935.32 534.59 874.67 638.28 1005.00 658.15
00011164 00000104 785.74 177.73 393.66 616.12 877.59 427.72 1052.90 447.40 935.65 536.53 873.92 640.18 1007.55 659.00
00011165 00000105 784.89 174.84 396.16 620.18 877.71 428.30 1053.48 447.56 936.94 536.40 875.00 641.53 1009.03 659.81
00011166 00000106 785.44 176.95 394.33 606.84 877.21 429.70 1051.90 448.84 937.21 535.90 876.15 637.73 1008.66 655.68
00011167 00000107 783.40 178.45 396.67 601.47 875.82 429.78 1053.21 449.46 937.46 537.89 874.26 632.51 1012.06 650.65
00011168 00000108 782.89 175.01 395.41 603.44 874.52 429.76 1052.54 449.52 936.41 538.44 872.68 632.95 1011.45 650.93
00011169 00000109 783.65 179.15 393.21 602.79 874.39 431.13 1050.91 449.72 935.70 538.33 873.74 638.48 1008.05 655.94
00011170 00000110 782.56 177.71 394.08 609.48 873.72 430.09 1050.08 448.65 934.16 538.25 872.86 640.50 1006.88 658.25
00011171 00000111 782.85 178.50 394.44 610.44 873.29 431.15 1050.21 449.67 933.33 539.16 871.32 641.55 1006.88 659.23
00011172 00000112 785.00 177.76 392.91 617.26 873.20 432.59 1048.15 448.75 932.51 540.40 873.87 643.78 1009.81 659.36
00011173 00000113 784.63 180.51 394.86 616.21 874.71 440.58 1050.97 453.79 932.83 541.37 875.59 645.21 1012.58 658.65
00011174 00000114 783.59 177.99 394.31 609.87 873.22 444.55 1051.83 456.86 933.38 540.86 876.32 641.99 1014.89 654.22
00011175 00000115 780.51 179.63 397.07 600.16 869.61 444.59 1049.16 456.57 933.57 540.73 874.54 637.99 1014.92 649.64
00011176 00000116 777.40 178.51 397.99 599.76 868.41 442.71 1048.10 455.83 934.41 541.51 874.56 636.63 1015.86 648.87
00011177 00000117 776.78 178.82 395.64 598.95 865.10 439.58 1045.09 451.13 932.40 541.17 873.57 636.86 1015.95 647.55
00011178 00000118 775.55 176.75 395.79 601.32 863.05 438.22 1042.97 449.17 932.13 541.83 872.83 637.13 1016.51 647.17
00011179 00000119 775.55 174.69 394.04 604.48 861.24 438.52 1040.63 449.05 929.73 543.22 872.66 639.82 1015.18 649.37
00011180 00000120 773.90 174.86 393.74 609.94 859.93 438.72 1038.32 447.16 929.35 542.37 874.18 643.61 1014.34 651.80
00011181 00000121 772.32 177.57 393.44 607.88 860.43 438.39 1035.60 446.02 929.87 542.51 876.97 646.74 1010.66 654.67
00011182 00000122 770.81 175.23 393.54 611.83 860.31 438.19 1032.13 445.20 929.87 541.48 879.54 647.30 1009.32 654.61
00011183 00000123 767.78 179.97 394.86 607.32 860.25 440.18 1027.73 446.25 929.32 542.16 882.77 650.59 1004.79 657.32
00011184 00000124 767.45 181.12 394.82 609.41 859.12 441.30 1026.56 445.70 928.82 542.04 882.86 652.82 1004.38 658.42
00011185 00000125 766.76 177.22 395.10 611.15 858.08 440.98 1024.22 445.86 926.94 541.73 882.32 651.90 1002.94 657.63
00011186 00000126 764.11 181.79 396.95 606.90 856.37 440.99 1023.18 445.70 926.37 542.13 881.20 652.39 1001.60 658.20
00011187 00000127 761.87 181.03 398.34 606.63 854.75 442.22 1021.85 446.33 925.68 542.56 880.52 653.22 999.92 658.53
00011188 00000128 759.67 180.20 399.83 607.42 853.19 443.32 1021.48 446.72 926.44 541.90 879.75 653.32 999.26 658.15
00011189 00000129 758.02 178.95 400.28 608.19 851.71 442.92 1019.79 446.65 924.54 541.12 877.51 652.49 997.01 657.48
00011190 00000130 756.35 179.82 399.89 608.73 850.50 442.96 1019.21 446.84 924.34 541.47 875.67 652.37 996.08 657.53
00011191 00000131 756.95 180.13 397.04 607.83 849.27 441.80 1018.02 444.75 922.14 539.77 874.10 653.17 993.88 657.72
00011192 00000132 756.59 183.83 396.95 604.63 848.14 442.35 1017.08 443.98 921.36 539.05 873.55 653.75 993.80 657.38
00011193 00000133 757.51 178.94 395.39 608.11 848.53 441.28 1016.76 443.98 920.73 538.32 873.45 652.83 992.76 657.15
00011194 00000134 757.59 179.37 394.99 607.95 848.58 441.21 1017.06 444.04 920.63 538.35 873.49 652.99 993.13 657.37
00011195 00000135 758.10 179.50 394.95 606.74 848.95 440.32 1016.96 442.85 921.10 537.76 874.43 652.71 993.51 656.91
00011196 00000136 757.59 180.49 396.14 606.95 848.65 440.82 1017.14 442.54 921.86 537.45 874.58 652.97 994.33 656.63
00011197 00000137 757.27 182.87 397.56 604.31 848.73 440.27 1018.10 441.65 922.27 537.09 874.69 653.08 994.65 656.53
00011198 00000138 757.21 182.27 398.84 603.17 849.92 438.48 1018.89 441.60 922.44 536.40 874.62 651.28 993.92 656.13
00011199 00000139 757.34 182.39 399.13 603.37 849.20 437.74 1019.37 440.74 922.35 534.96 873.41 650.26 994.60 654.99
00011200 00000140 758.76 178.25 397.53 606.01 849.48 436.60 1018.95 441.11 920.78 533.49 872.43 649.24 992.72 655.14
00011201 00000141 759.12 178.51 395.90 605.53 848.56 434.78 1018.65 440.67 918.73 532.75 869.64 649.68 989.64 656.77
00011202 00000142 759.00 180.75 395.60 604.14 848.30 433.21 1018.10 439.50 916.17 533.01 867.63 649.47 987.31 656.96
00011203 00000143 761.47 176.70 392.80 608.51 848.45 432.04 1016.64 438.42 914.30 531.21 867.39 649.01 986.59 656.33
00011204 00000144 762.25 177.00 391.62 608.34 849.24 430.28 1016.97 438.51 913.11 531.10 866.20 647.52 985.43 656.35
00011205 00000145 764.58 173.49 388.98 613.89 850.21 429.31 1017.22 438.75 912.57 530.50 866.77 647.74 985.81 657.52
00011206 00000146 765.01 174.10 388.75 614.21 851.28 427.92 1018.20 438.61 913.35 530.00 866.03 646.57 985.39 657.44
00011207 00000147 765.94 172.77 388.30 616.05 852.06 427.41 1018.46 438.90 913.18 529.58 865.52 645.53 985.61 656.97
00011208 00000148 766.19 175.73 388.02 616.50 852.38 427.41 1018.86 439.46 913.24 530.43 865.61 647.76 985.00 659.84
00011209 00000149 766.07 177.17 388.54 615.85 853.39 427.94 1019.35 440.71 913.80 530.77 866.70 647.81 984.86 660.51
00011210 00000150 766.12 176.65 388.68 616.32 854.02 427.85 1020.32 440.91 914.47 530.81 866.49 647.45 984.91 660.47
00011211 00000151 766.32 179.59 389.03 612.47 854.99 427.69 1021.51 441.14 915.69 531.32 866.88 646.76 985.60 660.19
00011212 00000152 767.18 178.55 389.36 613.47 856.19 427.65 1023.13 441.89 916.91 531.59 867.09 646.15 986.17 660.28
00011213 00000153 766.91 177.70 393.42 611.19 856.33 427.28 1025.48 442.79 915.88 532.81 866.29 643.96 988.67 658.92
00011214 00000154 765.87 175.04 395.81 609.58 855.48 427.77 1029.12 443.44 917.97 533.40 863.05 640.84 991.55 655.62
CROP_BBOX: 515 0 1414 937
