Video ID: 	8QpnSzuBTh4
H: 	1080
W: 	1920
FPS: 	23.976023976023978

FRAME INDEX X0 Y0 W H [Landmarks (5 Points)]

00017653 00000000 935.19 168.45 476.50 673.12 1044.30 394.63 1239.90 432.03 1083.31 500.64 1008.65 625.23 1171.45 658.61
00017654 00000001 935.29 184.26 475.06 656.55 1041.74 398.31 1239.02 439.54 1083.92 511.53 1008.85 630.61 1169.21 667.20
00017655 00000002 933.17 187.64 475.58 655.09 1043.20 403.16 1240.86 444.66 1088.00 517.68 1010.73 637.09 1165.45 674.05
00017656 00000003 930.46 187.02 477.66 659.06 1043.83 405.49 1241.35 447.60 1089.49 522.03 1012.52 641.50 1163.18 678.89
00017657 00000004 929.53 186.49 478.33 658.42 1043.78 408.55 1240.67 449.90 1091.45 524.53 1013.98 645.27 1158.95 682.15
00017658 00000005 927.35 186.48 477.25 657.99 1042.65 411.99 1241.94 452.25 1095.16 527.50 1014.25 649.80 1159.94 685.61
00017659 00000006 921.33 190.44 488.61 677.20 1056.33 410.13 1252.43 452.07 1111.68 528.39 1025.06 651.79 1171.33 689.69
00017660 00000007 908.88 183.08 502.62 695.08 1052.56 404.55 1256.67 446.73 1117.33 525.33 1021.81 647.19 1187.52 684.69
00017661 00000008 902.62 183.18 503.24 685.82 1052.37 400.17 1253.24 446.89 1116.92 513.79 1019.31 635.24 1187.56 676.04
00017662 DELETE   902.62 168.31 490.39 677.66 1037.21 395.59 1243.21 437.07 1100.89 508.96 1003.44 628.71 1171.23 664.88
00017663 DELETE   894.94 178.03 483.98 651.36 1020.14 395.06 1220.17 429.86 1083.34 511.28 996.02 637.64 1145.50 668.41
00017664 DELETE   879.65 185.49 488.85 653.60 1005.70 396.02 1204.80 430.76 1067.22 514.76 982.16 638.84 1129.12 669.89
00017665 00000012 878.13 187.23 476.74 666.35 997.16 404.04 1193.79 443.32 1054.52 521.93 967.41 645.22 1119.46 681.21
00017666 00000013 876.91 187.29 470.84 667.28 988.97 404.25 1186.02 437.69 1046.14 526.97 969.63 651.89 1111.17 682.63
00017667 00000014 873.82 188.52 468.72 663.83 984.32 407.62 1181.95 439.03 1039.43 526.46 966.12 654.58 1105.31 683.55
00017668 00000015 871.96 184.74 469.67 664.41 982.33 402.10 1177.89 432.56 1032.82 517.97 962.91 649.52 1097.80 677.81
00017669 00000016 865.45 174.11 473.24 665.17 979.31 393.40 1175.64 425.21 1030.28 507.00 954.89 637.31 1095.25 666.86
00017670 00000017 859.84 166.54 475.24 666.37 973.29 393.33 1172.82 421.33 1026.22 496.42 949.39 633.76 1093.38 659.75
00017671 00000018 847.09 165.53 479.68 665.72 963.93 391.60 1166.50 420.58 1019.76 493.55 938.95 627.54 1092.70 653.81
00017672 00000019 838.45 164.11 480.82 673.13 953.52 394.43 1158.37 422.13 1011.12 494.87 929.87 626.05 1093.22 651.04
00017673 00000020 835.11 170.61 480.63 666.67 942.58 401.08 1148.53 425.15 1001.21 505.54 927.96 633.32 1091.28 654.59
00017674 00000021 831.31 185.77 480.28 661.67 934.55 408.54 1137.65 431.67 994.87 520.05 924.06 643.44 1087.19 663.66
00017675 00000022 831.74 193.03 471.91 665.06 936.35 412.92 1138.47 442.15 990.38 527.53 914.80 647.22 1085.23 672.09
00017676 00000023 831.25 196.98 470.19 652.48 935.48 413.63 1138.42 442.61 994.01 526.03 917.27 643.70 1090.20 668.11
00017677 00000024 826.27 192.66 477.73 660.01 933.27 403.88 1131.19 428.29 995.95 521.79 920.76 638.21 1092.60 659.66
00017678 00000025 826.83 177.97 481.29 664.05 931.14 403.04 1136.77 428.12 993.77 515.72 918.09 631.95 1096.33 653.38
00017679 00000026 823.97 179.73 481.09 658.68 930.83 395.33 1129.83 418.49 991.44 507.32 916.86 626.45 1095.61 646.17
00017680 00000027 820.33 182.85 484.77 666.50 929.37 394.07 1129.48 419.80 988.33 508.06 912.48 627.89 1099.48 649.42
00017681 00000028 824.73 183.83 479.12 661.95 929.68 399.23 1129.41 423.76 990.81 514.92 915.27 630.37 1094.72 651.53
00017682 00000029 829.47 185.02 479.40 669.48 929.61 409.55 1133.83 436.20 988.73 525.75 917.47 639.13 1099.51 661.64
00017683 00000030 834.52 194.91 473.60 648.81 933.87 415.30 1135.20 442.08 993.94 530.77 924.43 643.54 1091.00 666.41
00017684 00000031 837.85 196.98 473.78 646.33 935.84 418.21 1140.87 442.54 996.30 528.10 926.76 650.10 1084.21 671.15
00017685 00000032 839.49 197.17 473.26 642.51 938.92 416.33 1143.72 440.41 999.52 527.70 930.67 650.86 1084.10 671.94
00017686 00000033 843.27 195.49 471.05 642.72 942.28 418.32 1145.60 443.17 1003.46 533.26 933.95 655.38 1084.63 677.06
00017687 00000034 845.13 197.96 477.90 656.81 956.25 417.89 1151.22 449.34 1005.33 540.28 939.57 658.62 1086.58 686.67
00017688 00000035 839.26 196.79 487.58 681.87 961.05 419.16 1159.54 457.06 1012.44 545.11 936.43 661.62 1094.96 695.17
00017689 00000036 838.59 200.13 492.81 681.45 968.39 421.15 1166.93 460.90 1023.67 546.83 939.93 662.44 1098.78 697.99
00017690 00000037 842.03 197.48 493.25 683.59 972.58 422.82 1173.15 462.82 1029.96 547.12 942.03 663.79 1103.07 699.46
00017691 00000038 843.89 196.54 491.09 669.74 973.83 418.93 1172.39 457.59 1030.85 543.21 946.62 658.38 1100.62 692.95
00017692 00000039 848.48 196.83 484.70 668.14 971.42 418.90 1168.65 456.82 1023.96 543.83 944.91 658.17 1098.69 692.01
00017693 00000040 844.79 199.75 484.93 680.74 968.17 419.83 1165.79 457.16 1021.00 547.03 941.59 664.94 1095.23 698.40
00017694 00000041 839.78 203.82 487.07 678.80 967.02 422.34 1163.70 464.46 1017.85 547.71 935.71 665.39 1084.10 703.22
00017695 00000042 840.21 201.38 487.21 677.43 968.57 422.83 1165.89 462.78 1022.27 547.30 939.42 666.07 1087.40 701.95
00017696 00000043 837.34 191.61 492.03 683.51 969.29 417.79 1168.77 456.44 1025.44 540.72 940.73 658.29 1096.74 692.57
00017697 00000044 827.54 182.65 503.17 706.42 971.38 408.43 1171.54 449.78 1029.74 534.15 936.66 648.29 1109.78 684.31
00017698 00000045 834.22 187.29 488.14 721.11 968.53 411.03 1166.72 445.64 1028.62 527.78 939.04 647.92 1123.94 677.82
00017699 00000046 833.13 188.94 490.34 723.42 964.69 414.22 1163.33 449.54 1022.21 532.84 935.49 648.88 1123.74 679.30
00017700 00000047 832.96 205.52 488.45 711.14 964.93 420.06 1160.69 456.31 1021.14 538.98 934.61 651.98 1122.29 683.21
00017701 00000048 831.64 203.43 488.68 711.23 963.98 426.13 1161.65 461.09 1022.53 543.28 937.81 662.10 1118.93 692.79
00017702 00000049 825.54 207.97 501.26 677.45 958.82 430.16 1160.86 469.09 1019.79 557.95 935.45 659.74 1112.39 693.15
00017703 00000050 827.03 215.75 497.18 656.96 955.23 433.26 1158.09 468.88 1018.20 559.53 937.29 659.11 1109.73 689.63
00017704 00000051 823.34 216.02 498.93 663.97 950.83 432.54 1155.07 468.17 1013.32 561.59 933.81 661.58 1108.01 692.00
00017705 00000052 824.15 211.80 486.76 670.86 943.11 424.58 1143.95 457.97 1004.82 557.80 928.80 662.91 1099.74 691.26
00017706 00000053 826.26 214.65 482.35 665.52 936.51 428.42 1134.14 456.43 994.41 552.34 923.37 663.65 1091.43 687.64
00017707 DELETE   822.60 211.07 478.68 667.60 924.35 430.57 1119.66 459.19 976.44 552.51 909.57 662.43 1079.98 687.24
00017708 00000055 814.57 213.46 479.24 666.62 911.56 429.97 1104.72 459.77 958.33 553.96 896.86 661.94 1069.01 687.38
00017709 00000056 814.22 212.62 472.99 665.19 907.11 428.83 1093.69 459.14 944.44 551.05 891.11 659.74 1061.52 685.47
00017710 00000057 811.78 203.82 475.07 678.17 908.79 422.80 1096.44 452.06 944.83 542.80 892.42 653.53 1068.99 678.33
00017711 00000058 813.60 201.02 473.09 680.21 909.47 415.46 1098.47 440.94 945.45 533.89 894.51 648.00 1074.36 670.03
00017712 00000059 805.53 194.41 476.06 678.24 904.81 404.55 1097.69 424.25 945.56 511.52 887.47 637.37 1071.49 653.35
00017713 00000060 811.79 187.83 465.88 660.93 895.35 407.16 1091.44 424.26 937.22 510.83 886.42 639.43 1062.07 654.52
00017714 00000061 807.73 189.28 463.01 656.40 885.09 412.44 1079.14 416.49 925.87 507.99 888.51 647.53 1053.23 651.90
00017715 00000062 787.34 196.47 475.70 661.81 873.58 418.15 1067.75 419.14 911.34 512.51 874.78 654.43 1045.49 655.66
00017716 00000063 787.36 182.14 472.06 662.28 868.79 413.19 1064.95 422.83 913.53 515.42 871.59 644.14 1038.85 653.07
00017717 00000064 784.39 179.16 470.72 657.97 865.65 408.08 1062.12 423.14 911.35 515.80 862.60 636.39 1032.79 650.29
00017718 00000065 785.77 178.27 469.87 656.14 865.32 409.68 1061.64 419.75 910.81 511.87 864.75 637.39 1030.30 647.19
00017719 00000066 784.03 174.81 472.45 662.52 865.36 405.99 1061.22 414.61 906.74 505.41 863.21 633.75 1031.22 641.98
00017720 00000067 783.45 172.50 474.41 659.67 862.99 405.35 1061.66 408.80 905.97 501.13 862.55 635.66 1029.37 639.81
00017721 00000068 779.87 168.57 477.18 667.94 862.74 404.12 1062.00 407.95 905.13 498.92 860.77 634.79 1027.81 639.31
00017722 00000069 779.18 168.37 477.84 668.50 861.79 405.08 1062.08 407.49 904.73 497.27 860.38 636.52 1024.79 639.95
00017723 00000070 779.03 167.67 476.84 669.65 860.72 404.76 1061.57 406.82 904.38 497.32 859.69 637.49 1023.57 640.69
00017724 00000071 778.08 166.64 476.91 668.99 859.88 404.23 1061.22 405.30 904.33 495.59 859.28 637.38 1022.85 639.68
00017725 00000072 779.42 165.27 475.78 668.41 860.17 402.89 1061.10 403.97 904.33 495.02 859.78 636.98 1021.67 639.33
00017726 00000073 780.48 166.18 475.08 668.61 859.38 404.30 1060.00 402.99 903.81 495.30 860.32 639.96 1020.67 640.46
00017727 00000074 781.83 165.63 474.40 665.18 858.77 408.11 1059.13 405.12 901.77 494.24 860.64 642.84 1013.79 642.27
00017728 00000075 782.21 169.31 473.05 658.71 860.30 409.98 1057.23 408.27 900.57 494.96 861.68 642.01 1007.77 642.57
00017729 00000076 782.67 177.79 471.84 652.15 859.30 408.57 1053.89 410.27 899.43 502.54 861.40 642.31 1008.01 645.44
00017730 00000077 778.57 188.08 471.14 647.58 854.78 418.40 1046.74 421.66 898.47 510.67 859.56 647.62 1007.16 651.35
00017731 00000078 773.17 192.79 476.37 653.11 848.70 424.02 1037.86 429.52 884.62 529.12 847.97 658.90 992.08 664.93
00017732 00000079 775.12 186.40 470.20 665.08 845.58 425.16 1031.07 434.87 871.02 531.88 842.25 661.47 992.02 670.63
00017733 00000080 774.46 187.07 468.95 667.73 845.43 425.54 1029.39 434.38 868.49 534.53 846.64 663.52 995.22 671.54
00017734 00000081 773.70 185.66 470.99 676.65 844.62 426.27 1027.97 432.61 865.56 533.84 847.10 662.38 1004.42 667.80
00017735 00000082 769.51 185.18 474.11 678.39 843.10 424.95 1028.00 430.57 866.61 532.04 846.01 661.77 1006.35 666.48
00017736 00000083 766.79 183.72 475.56 682.08 842.89 422.83 1028.05 430.22 865.85 530.98 843.16 659.69 1003.65 665.94
00017737 00000084 765.94 183.09 475.03 680.13 840.98 423.42 1026.94 431.35 863.72 531.43 840.82 659.46 1000.67 666.25
00017738 00000085 766.65 182.63 472.56 677.58 839.52 427.21 1025.68 433.73 862.41 532.95 839.34 662.21 997.46 667.96
00017739 00000086 763.99 189.83 473.52 673.93 837.76 434.28 1025.47 440.29 864.49 537.23 838.96 666.49 999.54 671.66
00017740 00000087 765.99 195.39 465.87 681.27 841.80 434.55 1022.02 437.88 870.50 536.17 848.04 670.70 1006.93 673.78
00017741 00000088 765.55 198.27 467.90 684.02 844.10 433.33 1026.40 438.14 875.03 537.65 849.83 672.35 1013.93 676.53
00017742 00000089 762.77 196.90 478.46 683.82 847.70 440.46 1039.47 442.59 884.09 541.70 851.03 674.98 1019.67 676.66
00017743 00000090 766.02 197.02 476.68 681.25 850.44 438.78 1041.77 441.82 887.81 543.76 853.40 673.24 1022.19 675.73
00017744 00000091 768.02 194.91 476.68 677.16 850.00 437.42 1041.79 441.57 886.52 542.30 852.99 671.10 1020.47 674.61
00017745 00000092 768.13 191.71 476.74 675.70 848.95 434.31 1041.66 438.89 885.67 539.94 849.99 667.30 1018.59 671.38
00017746 00000093 766.22 189.52 477.33 673.52 845.65 431.11 1039.48 435.55 882.16 537.61 847.24 665.24 1015.24 669.17
00017747 00000094 763.21 185.03 478.15 674.13 840.75 428.18 1034.98 431.71 876.31 535.29 842.54 662.08 1010.82 665.22
00017748 00000095 760.07 187.66 477.03 671.01 835.69 428.07 1028.52 430.44 870.13 534.84 839.31 661.33 1007.25 663.55
00017749 00000096 763.94 189.51 464.96 668.91 834.33 426.03 1018.75 430.07 866.86 531.78 840.74 659.56 1001.03 663.10
00017750 00000097 761.48 189.50 464.25 683.44 834.90 427.63 1016.10 429.57 862.08 532.45 842.85 666.21 1003.20 668.32
00017751 00000098 759.17 191.50 464.60 685.77 831.57 430.62 1013.01 436.47 856.31 538.86 834.45 663.82 1005.91 669.03
00017752 00000099 764.29 192.08 458.75 674.11 831.00 443.27 1010.65 436.21 857.78 538.27 844.01 675.55 1001.91 669.89
00017753 00000100 760.94 196.18 464.14 669.19 832.10 445.33 1014.63 436.49 866.10 538.62 846.96 681.77 1000.94 674.51
00017754 00000101 766.15 197.13 461.63 662.17 835.65 442.04 1020.58 440.39 873.68 543.87 847.06 672.98 1006.04 671.40
00017755 00000102 773.84 196.86 467.27 666.09 844.19 440.43 1033.93 438.10 882.63 546.82 856.51 675.55 1014.35 673.99
00017756 DELETE   776.75 197.30 482.92 697.84 862.61 429.20 1053.03 428.48 901.99 537.77 872.04 679.04 1032.47 678.73
00017757 00000104 792.45 193.59 473.59 691.75 873.83 417.30 1060.92 415.16 908.95 520.96 881.54 669.39 1041.01 667.67
00017758 DELETE   796.13 171.76 466.69 677.04 863.50 412.85 1060.45 404.97 903.98 502.73 870.05 654.64 1023.90 650.26
00017759 DELETE   776.90 164.19 475.92 659.42 855.20 402.98 1051.55 401.26 894.08 488.85 858.83 633.44 1011.74 633.31
00017760 DELETE   769.15 165.94 463.26 646.66 844.30 395.05 1030.95 397.47 881.53 482.42 840.37 621.12 990.58 624.03
00017761 00000108 757.24 166.17 465.49 650.89 833.00 399.25 1018.34 398.71 867.83 487.50 829.79 625.43 982.39 626.55
00017762 00000109 752.87 168.83 463.40 657.21 826.87 408.05 1011.14 402.59 863.25 496.16 827.39 634.72 981.48 631.80
00017763 00000110 754.53 179.52 462.70 657.00 827.50 411.91 1013.04 404.97 865.39 501.33 831.60 640.74 990.88 636.20
00017764 00000111 750.76 181.58 462.66 654.20 821.38 414.02 1007.92 406.66 859.73 504.67 826.66 641.61 988.22 636.83
00017765 00000112 736.33 181.89 461.00 654.95 805.53 418.74 999.06 408.61 852.12 507.03 812.80 644.35 980.26 637.66
00017766 00000113 719.29 188.85 469.34 653.96 788.35 425.20 985.27 414.39 839.77 513.57 799.37 651.10 973.30 643.12
00017767 00000114 709.17 188.00 473.99 664.13 776.19 432.55 974.37 417.05 829.01 523.17 793.91 659.01 974.70 646.24
00017768 00000115 706.50 193.23 480.86 696.68 786.80 432.19 976.78 423.16 826.68 533.25 796.72 664.91 985.97 656.46
00017769 00000116 719.33 194.95 472.55 694.15 796.49 416.74 987.15 410.59 834.50 518.26 803.47 654.78 993.82 648.41
00017770 00000117 720.13 173.98 468.77 690.33 794.50 409.18 986.88 396.51 835.98 492.08 803.21 642.87 987.73 632.65
00017771 DELETE   712.76 161.94 472.54 697.62 791.37 402.60 983.02 390.78 826.61 479.69 797.47 641.32 967.12 632.41
00017772 DELETE   706.44 169.63 471.33 688.92 782.64 406.79 972.76 394.07 819.20 483.93 793.39 647.27 950.65 637.71
00017773 00000120 695.51 179.21 478.82 688.74 778.01 413.67 966.98 407.75 808.04 500.24 781.68 653.06 934.94 648.52
00017774 00000121 694.65 186.40 478.53 684.95 773.86 421.74 962.38 418.38 803.86 516.72 777.76 662.10 931.37 659.83
00017775 00000122 695.11 190.04 473.32 677.25 770.85 432.11 959.63 429.85 803.95 534.92 778.38 673.63 927.55 672.78
00017776 00000123 702.43 198.08 459.45 663.32 774.62 436.43 953.00 440.37 806.91 542.16 778.76 672.64 922.97 677.09
00017777 00000124 698.95 202.97 464.09 660.06 770.70 443.87 953.40 445.70 806.78 546.87 775.75 679.54 924.32 681.95
00017778 00000125 697.29 202.55 463.81 660.11 767.77 445.65 951.64 447.20 804.54 548.97 773.46 679.28 925.84 681.20
00017779 00000126 695.88 201.38 464.82 659.17 766.73 445.92 951.42 445.38 804.69 546.59 773.47 677.46 928.13 677.52
00017780 00000127 693.86 198.85 468.40 655.58 766.79 445.24 953.42 441.56 806.74 542.84 776.39 672.86 934.23 670.12
00017781 00000128 693.52 196.55 469.26 649.21 763.85 442.05 959.65 431.88 815.90 535.48 785.23 672.63 942.46 664.56
00017782 00000129 693.69 194.64 478.76 656.43 770.07 438.82 966.80 432.92 817.69 541.41 785.72 669.72 946.41 665.18
00017783 00000130 697.28 193.83 480.37 663.18 773.91 437.51 970.25 432.45 820.48 539.95 786.93 668.11 951.87 664.22
00017784 00000131 698.55 194.43 483.44 670.98 777.90 437.58 973.18 433.54 821.89 541.21 789.71 670.85 956.14 667.82
00017785 00000132 701.92 196.88 482.13 671.79 783.05 438.63 975.42 437.14 824.13 542.10 792.22 671.00 957.93 670.15
00017786 00000133 704.62 199.46 480.01 670.97 786.41 440.47 977.76 439.82 826.55 541.97 793.20 670.63 959.92 670.59
00017787 00000134 707.57 202.04 477.91 669.80 788.05 443.47 976.59 442.98 826.71 544.18 795.60 673.26 959.79 673.40
00017788 00000135 709.63 204.64 478.38 671.73 786.99 448.68 973.52 445.70 823.22 547.16 796.04 676.95 964.02 674.45
00017789 00000136 709.96 204.49 480.50 676.47 787.68 446.40 973.23 445.15 821.13 547.20 795.40 674.85 965.67 673.64
00017790 00000137 710.91 200.66 479.34 692.14 785.75 444.73 969.63 443.07 814.90 548.88 793.36 678.70 969.36 676.81
00017791 00000138 711.94 198.51 476.81 706.10 787.56 442.88 967.08 441.73 812.79 549.30 795.54 681.25 972.84 679.44
00017792 00000139 713.06 197.48 475.62 711.06 788.57 442.15 967.13 440.14 813.34 547.96 798.27 682.68 975.14 680.09
00017793 00000140 715.82 197.99 473.69 712.19 790.08 440.19 967.15 440.11 813.07 547.97 799.08 682.40 975.87 681.40
00017794 00000141 715.75 195.43 475.47 703.75 790.73 437.92 969.74 441.37 813.52 548.48 796.63 675.78 974.16 677.86
00017795 00000142 719.88 195.61 468.75 674.28 787.64 441.61 969.47 445.47 815.45 550.81 794.53 672.36 965.90 675.23
00017796 00000143 719.87 197.34 465.26 661.16 787.51 448.73 968.39 448.25 819.53 549.06 798.74 669.04 962.89 668.26
00017797 00000144 708.21 207.99 475.06 656.70 787.88 453.13 966.00 447.33 824.64 546.46 801.31 679.01 944.13 674.35
00017798 00000145 717.36 210.18 458.56 629.08 789.72 444.36 969.77 458.82 832.18 562.21 796.02 655.10 941.19 666.82
00017799 00000146 717.09 208.07 459.74 637.93 781.63 439.68 967.31 457.74 823.02 576.95 801.61 676.55 935.22 691.52
00017800 00000147 716.35 209.95 461.44 649.72 787.03 452.16 969.27 453.10 820.32 561.96 789.60 689.97 926.12 691.56
00017801 00000148 706.32 213.60 470.69 645.20 788.64 453.04 975.03 456.35 835.04 566.10 795.12 685.89 938.45 689.20
00017802 00000149 721.07 216.57 458.73 651.80 785.47 446.86 976.16 452.51 826.08 561.48 799.48 691.11 945.69 696.07
00017803 00000150 727.74 216.46 458.21 661.13 796.86 451.34 986.82 461.84 829.32 560.83 794.86 687.23 955.70 696.13
00017804 00000151 722.43 217.15 466.41 651.63 793.30 438.23 998.15 431.98 834.48 542.52 794.83 692.42 967.79 687.15
00017805 00000152 733.47 207.98 445.62 645.48 786.74 457.76 986.64 443.52 842.98 557.17 811.68 700.61 966.46 688.55
00017806 00000153 742.57 206.53 441.89 662.96 783.10 451.52 986.84 430.07 844.88 547.78 804.68 683.68 980.76 666.25
00017807 00000154 750.65 219.16 433.71 647.37 791.77 441.31 979.99 434.88 842.82 546.31 806.19 665.17 975.54 659.51
00017808 00000155 763.58 213.99 429.67 636.08 793.02 442.13 975.45 440.64 835.47 558.18 808.07 664.59 965.72 663.54
00017809 00000156 760.04 214.77 431.28 647.19 801.92 441.84 978.51 453.99 831.68 562.41 803.36 666.53 959.33 676.14
00017810 00000157 757.88 198.79 422.65 647.77 800.09 444.27 982.01 455.03 839.07 558.69 803.83 662.02 968.10 670.47
00017811 00000158 753.00 195.62 433.43 663.76 806.43 443.33 984.56 452.59 839.13 547.49 807.85 659.99 975.34 667.20
00017812 00000159 747.15 201.49 449.12 685.25 802.69 451.23 988.66 442.76 851.90 556.99 812.74 681.18 982.60 672.87
00017813 00000160 742.27 203.59 448.77 687.44 801.55 450.35 990.15 446.86 841.60 552.16 809.99 693.84 975.65 690.33
00017814 00000161 739.33 202.04 452.83 682.14 800.33 452.79 985.99 446.06 841.29 555.18 814.61 695.35 978.41 689.46
00017815 00000162 738.14 203.53 452.55 673.75 800.96 456.24 987.18 450.34 839.77 558.11 814.06 692.70 976.74 687.97
00017816 00000163 735.63 204.42 446.18 667.22 798.48 458.74 987.94 452.73 841.44 561.56 811.54 693.94 976.30 688.75
00017817 00000164 730.66 200.79 451.50 678.82 799.10 461.57 991.85 453.63 840.74 561.38 812.24 697.72 975.88 691.18
00017818 00000165 730.05 203.48 444.64 674.49 801.51 463.54 994.30 458.98 840.25 559.90 811.17 695.92 969.26 692.06
00017819 00000166 730.50 197.71 446.22 677.98 797.95 463.49 992.13 457.60 835.89 561.96 808.14 698.91 968.49 694.10
00017820 00000167 729.52 201.04 449.74 683.94 796.13 465.24 989.46 459.02 831.94 565.38 806.45 703.36 967.52 698.24
00017821 00000168 731.23 197.59 450.08 696.71 798.57 466.34 990.86 459.70 831.86 565.57 810.05 707.48 970.62 701.92
