Video ID: 	9kZhan4JdFw
H: 	1080
W: 	1920
FPS: 	25.0

FRAME INDEX X0 Y0 W H [Landmarks (5 Points)]

00008553 00000000 612.69 208.03 468.83 625.30 741.16 434.51 960.55 423.95 866.47 569.34 789.11 679.46 950.03 668.39
00008554 DELETE   627.94 211.59 463.93 633.13 756.98 445.41 980.68 432.23 883.18 580.85 801.60 686.08 969.55 676.85
00008555 DELETE   650.83 214.01 458.46 631.71 787.76 442.24 1001.22 432.13 916.60 573.81 833.49 684.22 999.06 674.57
00008556 00000003 666.45 213.55 461.14 632.51 803.83 441.64 1021.51 429.10 939.20 575.47 857.57 686.98 1022.18 674.41
00008557 00000004 672.72 213.36 463.98 635.65 807.42 439.49 1024.48 429.93 937.19 580.33 859.13 690.03 1020.18 680.04
00008558 00000005 677.52 208.59 467.03 645.41 809.92 438.99 1029.43 430.87 936.96 582.52 854.83 693.48 1019.44 685.37
00008559 DELETE   689.04 198.74 466.40 649.39 822.86 437.88 1042.56 424.14 953.40 571.29 870.17 693.47 1033.83 680.61
00008560 DELETE   709.06 195.34 455.39 641.41 840.30 429.89 1060.53 418.61 973.56 554.93 890.39 675.00 1056.64 666.68
00008561 00000008 716.22 192.73 457.04 636.86 852.31 419.98 1067.30 414.96 984.54 551.68 895.79 663.49 1061.85 660.61
00008562 00000009 717.95 194.91 459.96 639.96 855.88 423.78 1070.31 417.33 988.20 559.04 900.54 668.41 1065.58 664.48
00008563 00000010 720.43 200.27 461.13 640.55 865.72 421.68 1081.26 423.08 995.97 562.43 903.89 673.88 1061.83 673.46
00008564 00000011 722.61 199.99 460.86 636.82 868.09 420.00 1081.48 418.40 998.23 559.22 908.83 669.57 1066.45 666.31
00008565 00000012 722.68 203.42 460.73 628.43 866.54 419.21 1083.26 416.90 998.11 555.25 906.12 667.18 1069.57 663.43
00008566 00000013 723.70 201.85 458.98 627.97 865.98 421.99 1084.84 419.59 999.70 558.13 907.16 668.64 1071.41 664.89
00008567 00000014 723.26 192.24 457.93 620.64 861.92 428.90 1085.81 417.21 998.14 565.43 904.57 663.04 1084.68 654.09
00008568 00000015 716.65 191.04 458.30 626.33 856.53 425.21 1082.76 413.91 998.78 563.36 899.50 664.40 1080.43 655.78
00008569 00000016 714.26 185.10 457.92 639.29 851.47 423.59 1069.46 415.26 987.14 559.92 889.51 662.20 1063.64 656.43
00008570 00000017 705.32 183.68 461.17 651.01 846.00 423.23 1063.19 417.38 981.52 558.63 885.58 667.71 1056.17 664.00
00008571 00000018 703.84 186.93 459.28 641.19 843.82 422.50 1060.64 417.80 975.76 558.07 881.80 665.05 1048.83 662.67
00008572 00000019 701.25 192.32 457.69 632.33 840.30 420.40 1059.80 417.38 974.18 558.09 877.94 664.91 1046.30 664.04
00008573 00000020 698.33 190.95 456.32 627.11 838.78 416.49 1058.05 413.31 972.45 551.28 874.82 659.48 1045.41 658.48
00008574 00000021 688.53 194.87 457.22 613.60 829.77 413.00 1048.27 394.66 965.68 543.01 880.09 666.36 1039.60 648.79
00008575 00000022 681.93 190.03 460.15 609.19 826.68 406.77 1042.07 392.05 960.37 535.08 874.12 652.61 1032.20 638.19
00008576 00000023 677.76 190.10 457.10 609.16 822.67 400.19 1034.99 385.65 956.13 530.01 870.60 644.16 1024.54 629.66
00008577 00000024 673.58 185.78 454.72 605.04 818.04 396.38 1032.28 384.26 951.96 523.52 866.92 636.33 1020.13 623.76
00008578 00000025 672.37 184.67 449.26 599.15 812.43 392.26 1031.25 381.00 947.05 516.18 860.39 631.70 1017.08 619.41
00008579 00000026 666.94 171.77 449.62 602.35 808.69 392.32 1022.17 384.13 940.26 511.46 848.63 620.85 1021.02 613.48
00008580 00000027 667.55 167.90 444.40 599.32 811.23 386.80 1017.35 380.95 939.11 500.01 851.55 612.22 1016.79 606.91
00008581 00000028 668.09 164.42 440.66 598.11 810.52 383.83 1014.29 377.65 937.25 491.95 851.25 606.01 1011.95 600.25
00008582 00000029 665.96 165.02 438.81 593.55 809.21 383.74 1014.29 379.44 936.93 490.93 849.37 603.83 1011.99 599.71
00008583 00000030 663.39 167.80 435.80 593.82 807.35 385.93 1012.52 382.65 935.21 493.47 845.56 606.07 1009.04 602.94
00008584 00000031 660.01 172.75 437.44 589.93 804.51 387.40 1008.57 385.64 931.27 496.69 844.21 607.61 1004.09 605.95
00008585 00000032 656.88 179.56 436.31 584.57 803.60 388.97 1003.24 387.32 928.80 497.20 844.72 608.81 998.46 607.65
00008586 00000033 653.36 181.67 434.73 585.07 802.76 391.05 999.62 389.53 928.21 499.56 845.17 611.23 994.30 610.46
00008587 00000034 650.71 181.28 431.93 587.21 801.70 392.31 995.36 392.54 926.53 501.04 845.08 611.80 992.18 612.45
00008588 00000035 646.42 193.70 429.73 575.56 797.62 391.69 991.74 380.10 926.89 501.29 839.03 623.40 988.36 611.08
00008589 00000036 641.11 194.43 430.91 576.71 794.11 391.63 988.24 381.29 922.77 503.20 834.43 623.19 982.71 611.98
00008590 00000037 636.99 191.08 432.34 579.57 793.80 391.87 986.10 381.23 922.28 501.96 835.34 623.21 980.69 611.64
00008591 00000038 633.59 193.16 432.45 577.77 791.39 392.45 984.69 380.73 921.21 502.44 833.65 623.56 978.31 611.18
00008592 00000039 631.80 195.24 432.50 575.99 788.98 392.90 982.20 380.06 919.00 502.24 832.22 624.08 974.98 610.79
00008593 00000040 629.41 192.16 432.74 578.00 786.72 392.98 980.39 379.17 918.42 502.40 831.27 625.01 972.74 610.98
00008594 00000041 626.14 185.58 435.59 583.10 784.84 394.09 978.34 380.59 916.36 504.48 829.22 625.00 971.03 611.09
00008595 00000042 626.88 182.66 433.96 580.03 782.90 395.09 978.17 381.77 913.92 507.58 826.22 622.90 970.97 609.10
00008596 00000043 624.64 182.48 437.61 581.09 779.99 394.89 976.16 380.63 910.95 508.25 824.18 623.18 969.38 608.64
00008597 00000044 626.52 181.60 436.77 581.87 781.02 394.01 976.64 381.12 910.31 506.60 825.13 623.34 967.07 609.94
00008598 DELETE   641.59 179.37 426.97 581.49 798.79 400.26 987.99 396.39 926.82 502.05 838.14 613.75 989.15 608.97
00008599 DELETE   654.89 171.93 422.41 597.34 820.00 406.75 1003.06 405.31 948.52 494.83 868.05 613.72 1008.48 612.97
00008600 00000047 666.07 169.15 419.99 603.89 836.04 403.41 1018.97 395.83 973.63 496.88 885.34 619.25 1029.39 612.84
00008601 00000048 667.06 162.24 424.99 611.67 831.19 394.89 1019.82 389.63 965.89 497.62 876.93 615.41 1027.18 610.64
00008602 00000049 663.48 170.64 428.53 603.94 825.33 391.84 1019.31 392.41 957.86 495.67 867.70 614.65 1019.70 614.76
00008603 00000050 672.73 156.39 429.86 617.33 839.06 388.62 1031.63 390.34 970.64 498.07 880.18 614.62 1027.37 614.86
00008604 DELETE   697.60 161.64 423.82 607.58 870.80 389.07 1060.42 390.57 1008.15 494.49 910.44 615.46 1058.21 615.24
00008605 DELETE   721.43 163.04 414.53 607.03 907.93 393.07 1080.27 395.71 1042.32 494.30 952.64 609.39 1084.04 610.82
00008606 00000053 740.96 158.63 404.14 605.67 926.55 386.55 1101.06 391.34 1064.67 488.25 972.84 605.37 1103.86 608.03
00008607 00000054 742.42 157.26 411.06 605.55 926.92 384.81 1104.97 389.84 1064.19 489.87 970.29 603.32 1105.99 605.74
00008608 00000055 737.51 151.11 420.55 614.76 915.80 383.63 1101.57 388.61 1050.45 492.60 957.19 604.19 1100.01 606.95
00008609 00000056 735.84 155.69 421.54 611.20 904.85 384.73 1092.09 390.80 1034.10 494.38 942.80 604.67 1086.38 608.81
00008610 00000057 727.52 150.30 429.52 623.94 896.60 380.60 1087.80 389.55 1024.18 492.70 931.66 609.04 1074.39 615.66
00008611 00000058 726.46 151.65 432.37 629.50 893.39 378.55 1087.62 388.23 1021.75 492.64 928.13 614.80 1072.89 622.15
00008612 00000059 733.68 157.33 430.68 617.06 899.92 380.64 1096.13 389.26 1030.42 491.94 934.98 608.88 1086.72 615.10
00008613 00000060 744.95 149.70 426.96 622.95 910.64 384.65 1107.38 386.25 1046.89 495.42 953.02 612.39 1104.80 612.12
00008614 00000061 750.22 150.66 423.12 617.94 916.58 383.72 1112.41 384.63 1052.09 495.52 959.22 610.36 1108.90 609.25
00008615 00000062 747.41 149.57 422.93 620.33 914.82 382.76 1108.66 383.69 1049.29 495.47 958.21 610.01 1105.39 609.07
00008616 00000063 741.85 158.39 422.73 602.71 906.22 386.35 1099.34 388.30 1037.95 496.88 946.67 605.24 1095.97 605.89
00008617 00000064 734.59 161.23 426.51 597.43 896.82 389.67 1091.45 395.19 1026.87 499.56 933.77 602.24 1087.81 606.13
00008618 00000065 732.48 164.29 423.38 591.78 889.83 389.12 1086.50 396.19 1017.41 501.46 925.72 602.04 1080.33 607.48
00008619 00000066 727.92 169.69 423.30 584.45 884.30 392.38 1079.34 398.08 1009.94 503.54 919.58 602.66 1072.84 607.27
00008620 00000067 721.01 175.41 424.73 585.63 875.41 392.49 1072.34 387.32 1009.78 506.84 917.11 617.13 1071.11 611.16
00008621 00000068 717.15 178.37 422.34 587.41 873.16 393.24 1065.56 390.97 1003.55 514.29 911.84 621.20 1061.09 617.49
00008622 00000069 707.39 176.14 424.04 588.16 864.76 396.61 1057.73 388.50 992.56 516.93 903.16 623.61 1048.94 614.66
00008623 00000070 696.94 177.90 430.26 590.95 857.16 398.19 1052.61 387.64 988.80 518.37 899.34 629.78 1043.26 618.54
00008624 00000071 692.40 177.37 426.55 591.03 851.84 401.24 1046.43 389.94 983.57 521.11 895.48 631.19 1036.06 619.36
00008625 00000072 690.61 165.92 422.26 608.17 841.66 399.80 1039.42 392.83 974.98 522.36 884.90 630.37 1036.85 623.17
00008626 00000073 682.22 184.06 422.21 589.07 836.60 398.64 1034.75 390.56 969.91 521.99 883.29 631.58 1022.76 622.34
00008627 00000074 673.98 190.37 424.94 588.37 831.06 400.10 1030.59 393.32 963.72 522.81 877.61 631.88 1018.44 624.19
00008628 00000075 667.46 197.51 424.85 583.92 824.13 401.56 1023.53 392.16 957.30 525.33 874.62 633.85 1015.00 623.73
00008629 00000076 662.20 199.99 424.72 582.95 816.30 404.07 1016.87 392.28 951.32 528.05 869.55 635.54 1011.20 623.63
00008630 00000077 657.74 201.45 424.11 582.48 808.04 406.58 1010.48 392.78 942.75 526.32 863.74 637.35 1005.63 623.51
00008631 00000078 652.28 199.97 422.26 575.10 799.87 413.73 998.85 388.59 935.30 518.25 848.32 642.79 1002.27 620.50
00008632 00000079 652.16 203.03 417.24 571.66 796.55 414.81 994.02 388.99 932.52 519.81 845.00 643.28 997.53 620.09
00008633 00000080 647.68 204.59 417.91 569.70 795.27 415.61 991.80 391.12 929.38 521.51 842.65 644.14 991.34 621.93
00008634 00000081 645.65 199.49 417.40 575.57 793.11 413.62 989.05 390.37 926.73 522.02 839.57 643.72 987.07 622.68
00008635 00000082 646.67 198.46 415.04 577.16 792.04 414.07 988.10 390.45 925.60 522.98 838.35 643.68 986.21 622.41
00008636 00000083 646.75 198.77 415.51 574.88 793.56 415.77 989.79 390.57 928.30 521.66 841.03 644.44 988.28 621.89
00008637 00000084 647.29 201.48 415.78 567.63 793.40 416.55 990.41 391.03 927.62 524.23 840.15 641.78 990.11 618.89
00008638 00000085 637.75 199.82 425.88 570.67 784.11 415.63 982.78 391.79 916.14 529.36 830.35 639.64 982.36 617.90
00008639 DELETE   620.53 192.01 446.16 588.23 762.20 412.08 963.94 392.51 890.18 532.43 810.57 639.60 961.07 621.02
00008640 00000087 614.22 182.45 449.21 605.38 751.26 407.66 951.74 397.14 874.16 527.58 796.09 633.47 955.49 623.41
00008641 DELETE   620.58 194.93 444.28 593.12 769.59 423.92 965.28 400.85 899.00 533.49 821.82 647.00 969.27 625.35
00008642 00000089 640.62 210.11 424.85 577.98 794.29 433.05 984.25 404.41 930.39 522.06 847.50 650.78 995.39 624.84
00008643 00000090 639.72 209.09 425.22 585.00 786.58 433.18 979.73 407.07 918.30 535.86 836.21 655.83 985.93 631.98
00008644 DELETE   617.85 197.61 449.49 598.23 764.71 429.95 962.10 406.90 893.45 550.98 815.17 656.30 962.08 635.06
00008645 00000092 612.88 200.23 450.89 602.51 751.27 427.15 954.51 405.29 882.14 551.14 807.48 660.26 954.23 639.91
00008646 00000093 617.35 179.89 450.91 632.61 756.95 424.70 961.31 397.89 890.12 543.50 814.80 664.90 964.65 640.30
00008647 00000094 624.22 184.77 442.22 632.56 768.14 424.39 971.52 396.34 908.66 536.93 829.38 672.09 975.10 646.11
00008648 00000095 632.48 195.75 435.01 608.82 773.86 422.96 980.79 394.41 915.18 537.87 831.52 665.44 983.69 639.10
00008649 00000096 627.02 190.25 443.62 618.68 768.48 421.59 976.26 393.69 908.28 541.57 826.48 667.82 979.34 642.14
00008650 00000097 623.54 187.11 447.31 631.03 764.95 421.40 976.93 396.81 906.10 543.78 820.00 671.36 978.36 648.38
00008651 00000098 634.54 182.49 441.76 627.09 771.38 420.38 983.81 406.03 912.54 544.44 818.08 655.88 990.88 644.99
00008652 00000099 638.35 176.49 441.14 622.38 776.66 421.07 987.14 405.16 915.05 541.52 825.97 649.89 998.36 637.24
00008653 00000100 640.53 177.00 440.28 618.55 776.07 420.10 987.22 404.00 912.40 540.10 823.45 647.64 996.74 634.99
00008654 00000101 638.07 177.59 442.13 618.15 773.49 421.24 986.86 404.87 909.52 541.71 818.41 648.33 994.29 635.62
00008655 00000102 638.35 176.92 441.00 619.18 774.19 420.83 986.69 404.89 910.70 541.31 819.23 649.37 993.38 636.96
00008656 00000103 637.64 177.84 441.09 617.74 775.99 421.17 986.25 405.58 912.22 541.44 823.66 649.64 993.83 637.50
00008657 00000104 635.85 182.94 441.35 610.05 773.10 420.61 985.96 404.18 909.97 540.28 819.89 648.61 993.39 635.77
00008658 00000105 627.94 190.61 441.70 594.77 767.13 418.92 977.79 392.49 905.62 540.01 819.35 656.37 977.89 632.51
00008659 00000106 624.62 179.47 442.10 601.04 761.69 415.83 973.36 389.30 899.43 535.49 816.32 651.50 974.53 627.30
00008660 00000107 624.74 169.97 439.88 605.46 759.23 410.30 971.15 388.91 894.97 533.68 811.12 640.25 979.94 620.88
00008661 00000108 624.31 175.09 438.14 595.30 760.93 410.19 970.10 384.87 897.39 527.89 814.04 640.47 971.73 616.76
00008662 00000109 623.03 174.69 435.89 594.28 759.70 409.99 966.73 384.55 895.91 526.88 813.35 639.42 969.78 615.49
00008663 00000110 619.15 174.54 437.57 596.09 756.86 409.41 962.65 383.87 893.21 526.51 811.96 638.62 967.76 614.57
00008664 00000111 616.53 162.52 436.92 611.31 747.35 407.95 955.32 383.81 885.33 522.67 803.02 634.65 970.92 612.96
00008665 00000112 611.08 163.43 437.56 607.46 743.84 407.12 950.25 382.79 880.53 520.55 798.91 631.79 965.11 610.22
00008666 00000113 604.75 166.21 436.56 604.38 738.94 407.95 946.73 383.27 875.45 520.36 794.47 631.58 961.96 609.68
00008667 00000114 600.54 167.67 435.86 602.10 733.33 408.96 942.12 382.23 870.45 518.80 790.51 630.44 960.53 607.01
00008668 00000115 594.68 173.32 438.10 595.31 728.66 410.14 937.26 384.42 864.26 518.17 785.88 629.42 957.06 607.22
00008669 00000116 593.38 175.55 436.00 591.67 724.64 411.69 932.04 387.84 857.76 517.01 781.22 627.04 953.08 606.43
00008670 00000117 592.09 171.67 433.15 594.78 719.57 413.13 925.07 388.29 850.80 518.50 776.90 626.66 946.84 605.27
00008671 00000118 589.78 167.69 433.09 601.62 714.68 414.26 919.82 388.42 845.07 518.76 772.90 627.92 942.07 605.88
00008672 00000119 589.12 175.01 427.15 595.32 712.33 420.28 912.99 394.09 837.52 522.27 768.04 629.50 935.67 607.86
00008673 00000120 581.19 169.56 427.77 598.53 714.05 431.45 905.38 403.07 837.41 520.87 765.10 626.93 928.62 604.32
00008674 00000121 576.40 164.35 428.94 605.64 713.20 434.59 894.65 404.77 833.00 518.95 762.78 624.47 917.79 600.54
00008675 00000122 576.37 160.64 424.22 614.10 708.74 434.10 887.42 394.71 834.62 513.86 770.28 629.48 920.44 597.83
00008676 00000123 553.95 176.80 444.85 597.17 695.12 444.55 870.50 370.99 834.28 509.83 775.18 638.47 920.92 574.84
00008677 00000124 547.69 158.81 440.67 615.02 679.47 449.63 856.49 369.95 822.97 512.66 768.94 645.23 918.03 577.80
00008678 00000125 526.33 158.11 457.70 625.47 664.71 463.36 843.37 374.51 810.73 528.05 765.45 655.53 915.97 581.02
00008679 00000126 516.21 161.78 465.84 633.89 651.01 468.67 834.04 377.92 798.98 534.77 754.56 662.81 912.65 587.49
00008680 00000127 504.11 168.48 465.07 630.55 631.47 472.40 818.31 384.76 778.77 541.62 736.45 668.29 901.60 596.63
00008681 00000128 494.76 184.89 463.87 613.47 621.69 482.46 806.06 396.10 766.37 560.06 724.30 669.49 889.39 599.27
00008682 00000129 486.55 183.30 468.58 615.43 617.32 487.36 798.20 396.35 762.43 562.00 730.54 676.48 886.53 602.68
00008683 00000130 481.91 177.48 463.70 611.92 610.46 474.02 794.28 392.77 756.09 548.25 717.44 667.22 875.80 601.29
00008684 00000131 484.05 166.06 455.80 619.93 610.97 465.03 792.50 381.58 755.20 537.89 717.02 663.06 873.00 594.72
00008685 00000132 473.37 161.05 461.84 621.45 605.65 465.63 787.01 379.04 754.09 536.28 716.06 659.94 873.26 588.73
00008686 00000133 471.21 168.11 459.51 618.42 600.51 466.06 787.97 384.02 749.77 542.22 707.36 663.69 869.35 596.23
00008687 00000134 477.27 167.79 453.99 621.06 601.31 466.87 790.54 386.59 748.66 544.75 706.31 665.42 868.73 599.59
00008688 00000135 485.16 166.60 449.51 616.91 607.45 462.22 794.89 383.82 751.38 542.14 708.29 661.23 870.08 596.98
00008689 00000136 486.34 160.26 450.42 616.20 615.39 455.04 794.51 380.77 756.44 535.59 713.46 650.93 869.35 590.06
00008690 00000137 487.74 156.91 451.11 616.70 619.78 452.32 796.47 376.92 760.61 528.69 716.61 647.17 870.19 585.58
00008691 00000138 487.46 161.88 453.32 612.31 618.96 453.66 797.91 378.65 759.55 533.12 716.09 650.57 870.71 589.25
00008692 00000139 490.55 169.15 448.63 607.56 617.10 456.04 802.32 384.60 756.01 539.03 711.50 655.22 867.17 597.18
00008693 00000140 488.26 171.43 452.77 611.77 615.63 453.09 802.45 388.07 754.43 540.10 711.09 656.96 864.39 604.45
00008694 00000141 482.65 157.80 455.61 629.49 611.99 450.63 797.90 380.86 751.90 532.24 706.86 653.41 865.51 596.24
00008695 00000142 485.18 156.68 450.55 623.75 614.80 441.73 792.26 373.97 750.55 514.85 716.77 646.08 859.26 590.79
00008696 00000143 480.53 158.94 446.82 595.09 609.22 441.45 782.97 366.40 741.70 501.20 702.73 631.02 841.55 568.08
00008697 DELETE   476.00 152.35 451.46 582.64 604.68 434.25 773.70 356.10 735.06 478.72 698.59 610.75 837.98 544.77
00008698 00000145 470.84 153.03 446.45 567.23 598.19 424.45 762.07 348.47 725.18 461.30 685.60 591.61 826.84 527.67
00008699 00000146 472.58 153.89 445.70 577.62 603.06 422.49 760.61 345.31 729.79 457.81 700.95 604.81 830.14 540.37
00008700 00000147 470.56 151.57 449.41 585.38 598.30 425.76 770.91 351.52 730.30 474.77 689.81 608.33 836.24 545.38
00008701 00000148 470.95 150.33 451.09 583.67 598.82 427.79 775.13 351.95 734.75 476.59 689.30 606.81 841.79 542.13
00008702 00000149 470.84 149.79 451.27 584.18 598.55 420.31 777.44 345.86 735.39 470.55 687.41 604.16 843.26 540.40
00008703 00000150 474.37 148.53 445.93 589.10 600.76 416.31 774.37 345.33 731.69 467.16 687.59 604.18 836.52 543.88
00008704 00000151 474.24 150.90 450.55 576.28 605.71 414.39 776.47 342.87 735.77 454.76 698.36 601.29 837.58 540.17
00008705 00000152 481.86 147.70 448.77 587.92 608.14 411.92 779.27 339.43 734.66 459.02 700.33 606.80 839.29 545.47
00008706 00000153 486.07 139.52 445.33 598.81 608.50 406.67 786.00 337.60 732.91 460.74 689.63 602.05 835.48 543.14
00008707 00000154 489.09 141.97 445.36 596.04 612.43 412.86 790.37 340.41 737.10 469.02 697.50 606.82 841.83 545.00
00008708 00000155 503.83 142.12 440.16 608.80 622.47 412.27 805.49 349.84 750.63 468.02 707.15 613.17 852.90 561.51
00008709 00000156 506.57 145.29 453.46 607.12 644.18 409.93 819.81 346.78 775.46 472.12 743.25 618.61 877.41 565.82
00008710 00000157 512.51 145.84 457.73 623.86 650.92 410.62 834.06 353.15 785.94 478.54 733.28 621.43 885.04 574.36
00008711 DELETE   525.95 145.30 453.39 631.15 656.83 416.12 847.50 356.71 793.66 491.67 741.50 633.81 897.97 583.88
00008712 00000159 532.50 141.45 455.09 633.06 671.62 429.60 858.58 372.27 808.87 510.14 747.70 634.94 900.40 587.16
00008713 DELETE   535.72 154.86 459.13 625.81 678.94 433.11 873.08 378.23 820.84 524.09 746.01 640.01 909.88 594.00
00008714 00000161 553.49 153.91 453.97 639.17 686.12 431.82 886.60 388.20 823.78 529.38 753.84 645.11 921.64 610.03
00008715 00000162 564.34 157.53 446.19 647.00 696.61 432.53 897.33 395.77 834.23 538.49 763.17 655.97 927.58 626.69
00008716 00000163 569.35 175.32 449.72 637.60 700.71 436.39 903.60 398.14 842.75 545.56 775.66 664.38 937.40 633.69
00008717 00000164 576.18 196.27 450.09 629.07 710.80 437.47 915.68 401.88 851.20 546.07 780.60 673.56 944.28 641.35
00008718 00000165 581.13 200.24 449.50 630.65 712.66 442.06 919.94 409.95 852.12 557.49 781.17 677.58 946.73 648.81
00008719 00000166 584.86 200.42 450.80 632.70 716.14 444.36 921.35 413.47 853.32 565.90 785.40 680.04 947.57 652.13
00008720 00000167 586.78 192.33 447.52 641.97 719.69 446.10 922.01 415.98 857.62 568.19 789.58 682.23 944.95 655.36
00008721 00000168 582.86 197.40 449.86 639.86 722.76 447.44 924.72 422.29 859.69 574.94 786.79 682.94 941.59 659.96
00008722 00000169 582.89 199.80 447.65 637.77 722.87 449.85 925.66 425.47 859.37 580.51 786.99 687.69 938.60 666.13
