Video ID: 	Y34ZvyN1Bjk
H: 	1080
W: 	1920
FPS: 	25.0

FRAME INDEX X0 Y0 W H [Landmarks (5 Points)]

00006612 00000000 956.52 270.54 446.63 572.97 1040.33 491.92 1215.41 469.14 1112.00 587.46 1090.00 703.58 1217.70 685.14
00006613 00000001 947.99 285.70 442.66 563.15 1013.35 508.29 1189.34 480.58 1078.64 591.96 1076.16 714.81 1190.81 691.41
00006614 00000002 938.71 294.29 440.17 560.44 1005.81 515.28 1170.24 486.64 1064.76 598.82 1071.11 717.71 1186.26 692.86
00006615 DELETE   930.37 287.46 445.23 559.23 999.28 512.91 1163.75 477.90 1060.56 586.80 1069.48 711.91 1181.95 681.68
00006616 DELETE   931.58 261.45 448.14 565.45 995.87 504.72 1164.14 460.83 1058.29 566.33 1069.15 700.27 1179.97 663.25
00006617 DELETE   938.45 246.91 444.27 565.34 1003.33 477.11 1172.88 434.82 1061.94 546.41 1058.87 680.50 1182.71 645.42
00006618 00000006 940.72 244.11 444.38 551.82 1006.33 465.38 1175.97 423.91 1065.85 529.34 1062.56 665.10 1183.41 630.40
00006619 00000007 944.31 236.13 442.12 556.04 1013.75 459.10 1181.55 419.50 1072.24 513.45 1067.10 655.95 1182.99 622.84
00006620 00000008 948.16 236.81 439.90 556.67 1020.73 457.36 1187.43 420.28 1077.74 514.83 1070.07 657.49 1181.22 626.85
00006621 00000009 951.86 237.72 437.34 557.53 1021.45 456.57 1190.15 421.73 1078.93 517.77 1069.59 659.05 1183.39 630.20
00006622 00000010 955.98 246.06 439.41 546.42 1028.26 467.41 1194.34 431.04 1081.50 527.92 1078.46 663.02 1188.58 633.16
00006623 00000011 958.11 246.48 440.94 544.94 1026.89 471.92 1195.45 433.19 1082.19 534.81 1080.72 665.60 1198.48 633.90
00006624 00000012 959.01 247.64 438.87 542.14 1028.21 471.74 1196.44 434.61 1083.96 536.83 1081.88 664.23 1200.29 633.67
00006625 00000013 952.81 245.64 443.93 548.62 1026.91 466.47 1200.07 429.47 1087.36 539.57 1082.07 669.53 1204.38 639.38
00006626 00000014 953.30 244.85 443.19 548.86 1028.43 466.57 1201.14 429.63 1089.12 539.23 1083.53 669.75 1204.95 639.63
00006627 00000015 952.97 245.12 444.40 550.03 1028.80 466.10 1202.95 429.35 1090.60 539.16 1083.99 670.62 1205.45 640.65
00006628 00000016 953.66 244.90 443.85 551.43 1029.98 466.50 1203.62 429.78 1091.67 538.61 1085.04 671.63 1205.68 641.70
00006629 00000017 955.32 243.03 442.79 553.98 1034.19 463.79 1206.23 428.79 1095.49 536.37 1088.28 669.25 1207.38 640.62
00006630 00000018 963.40 256.78 435.55 532.31 1041.03 459.99 1213.64 431.76 1109.95 536.17 1090.85 662.84 1209.86 639.35
00006631 00000019 968.22 253.14 434.05 537.01 1045.95 460.69 1218.03 434.09 1116.81 537.73 1095.91 664.98 1213.75 643.19
00006632 00000020 971.00 252.53 435.85 544.02 1048.87 460.73 1222.05 434.51 1122.00 540.29 1101.30 669.77 1219.59 648.54
00006633 00000021 969.78 253.13 439.16 554.73 1053.12 461.10 1225.33 436.57 1129.70 545.60 1108.93 675.90 1223.78 656.30
00006634 00000022 969.66 251.33 443.40 563.26 1056.45 465.11 1231.72 438.50 1138.39 551.54 1117.03 681.15 1235.14 659.61
00006635 00000023 971.82 257.60 444.14 559.70 1060.57 476.45 1236.29 446.95 1143.31 560.40 1122.19 684.83 1248.38 660.52
00006636 00000024 973.95 260.82 444.62 560.33 1062.17 488.95 1237.59 456.34 1144.07 567.01 1121.68 690.16 1254.29 662.67
00006637 00000025 971.11 260.77 445.08 562.44 1058.98 499.32 1231.91 467.68 1136.18 575.78 1116.38 695.96 1248.51 669.33
00006638 DELETE   967.06 264.23 443.28 568.09 1052.79 503.85 1224.29 476.13 1124.26 586.35 1106.60 702.58 1237.09 679.53
00006639 00000027 964.39 276.60 435.40 565.06 1048.25 506.26 1212.74 485.47 1113.26 593.03 1094.87 705.43 1220.50 688.14
00006640 00000028 959.45 289.28 436.61 559.41 1043.50 509.73 1208.43 490.43 1107.63 600.20 1090.25 712.64 1214.73 696.71
00006641 00000029 960.92 303.26 435.71 551.52 1040.95 520.19 1209.81 496.82 1110.49 604.26 1093.92 719.04 1215.77 699.44
00006642 00000030 956.83 309.01 441.18 554.61 1039.29 526.50 1208.74 497.39 1111.13 610.14 1098.46 725.63 1224.91 700.78
00006643 00000031 952.10 309.39 446.36 558.88 1037.31 532.23 1206.06 499.41 1111.64 615.10 1099.79 729.41 1228.98 700.97
00006644 00000032 950.85 296.64 445.56 574.34 1027.59 534.53 1193.83 503.94 1097.46 619.48 1096.06 731.73 1218.55 705.82
00006645 00000033 945.75 291.07 446.88 582.49 1023.66 539.55 1189.73 508.47 1091.84 621.84 1088.41 736.91 1211.10 710.78
00006646 00000034 938.34 297.64 450.03 577.23 1014.36 541.11 1183.88 509.65 1085.49 628.92 1081.30 742.03 1204.26 715.52
00006647 00000035 936.66 309.50 449.36 566.59 1009.87 542.70 1181.96 513.79 1079.71 634.00 1075.89 746.17 1198.25 721.61
00006648 00000036 932.57 320.11 444.55 554.86 1012.99 548.63 1174.23 522.98 1077.16 643.27 1078.32 744.90 1203.31 721.52
00006649 00000037 931.21 320.02 445.09 556.60 1011.91 547.59 1172.80 521.95 1076.09 644.90 1078.96 745.88 1203.32 722.42
00006650 00000038 930.99 319.66 445.64 558.84 1012.45 547.84 1173.36 521.96 1077.09 645.34 1080.18 746.58 1204.44 722.84
00006651 00000039 931.21 321.93 446.23 559.24 1013.71 549.37 1175.03 522.31 1078.90 646.99 1081.86 748.42 1206.73 723.69
00006652 00000040 931.39 323.02 447.42 558.93 1014.90 551.07 1175.43 523.95 1079.86 648.01 1083.66 750.26 1206.12 725.62
00006653 00000041 930.92 324.16 448.32 556.49 1015.80 551.80 1175.65 525.02 1081.07 648.45 1084.52 749.61 1205.43 725.26
00006654 00000042 929.31 324.18 450.33 554.70 1014.47 551.36 1177.64 524.16 1082.03 647.91 1081.79 747.77 1208.22 723.05
00006655 00000043 930.92 323.64 450.27 554.96 1015.60 551.35 1179.41 524.33 1083.43 645.54 1081.21 745.55 1209.59 720.83
00006656 00000044 935.52 315.85 452.54 564.40 1011.92 545.81 1185.83 516.30 1085.13 639.31 1080.20 747.53 1206.35 722.75
00006657 00000045 936.30 313.08 453.11 566.51 1012.71 545.16 1186.84 516.48 1085.65 638.67 1081.02 748.43 1204.50 724.26
00006658 00000046 937.07 314.04 451.56 566.30 1013.31 545.15 1186.37 516.43 1085.78 637.95 1081.01 747.80 1205.18 723.58
00006659 00000047 936.25 312.94 451.15 566.54 1011.35 544.33 1184.71 515.14 1083.61 637.17 1079.12 746.63 1204.67 722.04
00006660 00000048 935.23 312.14 451.14 565.55 1009.65 543.10 1184.45 513.42 1082.95 636.35 1078.20 745.48 1204.64 720.37
00006661 00000049 933.13 321.04 444.85 553.02 1013.88 545.94 1177.76 519.80 1081.46 641.21 1079.68 742.86 1206.23 719.18
00006662 00000050 932.04 317.52 444.96 555.96 1012.67 544.86 1176.86 518.00 1081.06 639.43 1078.98 742.05 1206.34 717.86
00006663 00000051 931.62 310.08 441.35 559.76 1015.23 548.81 1176.39 524.17 1083.55 637.68 1079.52 739.42 1204.62 717.41
00006664 00000052 933.47 291.03 446.58 580.92 1011.11 549.07 1182.44 516.34 1085.89 625.53 1077.02 740.37 1201.90 712.74
00006665 00000053 932.75 291.74 448.30 578.45 1008.91 544.62 1180.24 513.31 1081.17 624.20 1074.39 737.45 1199.60 710.93
00006666 00000054 931.01 292.48 450.95 578.64 1006.03 540.55 1177.71 510.91 1076.21 624.30 1070.92 735.52 1197.21 710.18
00006667 00000055 930.64 289.39 450.26 581.66 1004.37 538.72 1174.62 509.23 1073.14 624.32 1069.81 733.70 1196.54 708.35
00006668 00000056 930.48 304.14 440.51 564.00 1007.15 537.62 1166.39 513.48 1071.88 631.53 1072.00 733.34 1198.01 711.42
00006669 00000057 927.61 300.83 444.33 566.01 1004.45 531.05 1168.13 506.57 1070.75 622.80 1069.05 731.99 1191.80 710.30
00006670 00000058 929.71 296.56 440.34 555.34 1005.03 526.65 1169.63 499.77 1070.27 614.08 1064.72 723.44 1185.99 700.60
00006671 00000059 933.43 285.85 442.45 559.19 1005.92 519.85 1171.78 492.02 1070.21 592.47 1066.22 711.83 1180.25 687.67
00006672 00000060 933.90 281.14 446.45 569.54 1006.22 517.63 1171.40 487.98 1069.79 589.15 1070.69 705.90 1194.38 679.85
00006673 00000061 936.74 278.48 450.11 580.46 1008.33 518.16 1173.68 483.50 1070.69 587.73 1076.53 707.96 1209.43 677.71
00006674 00000062 940.55 283.37 449.52 579.48 1023.86 512.96 1190.88 477.12 1090.05 590.26 1078.40 705.33 1226.64 673.50
00006675 DELETE   952.79 287.84 444.81 571.16 1044.02 513.65 1216.23 474.45 1121.77 589.62 1101.32 702.65 1249.92 667.75
00006676 DELETE   961.53 288.17 450.58 568.70 1058.43 508.15 1240.68 471.49 1151.75 591.55 1120.85 703.85 1276.99 670.79
00006677 00000065 974.27 291.04 443.46 573.68 1081.12 504.27 1261.30 472.63 1180.55 592.09 1141.50 706.88 1296.53 677.09
00006678 00000066 979.52 298.06 445.14 572.68 1089.00 506.25 1269.81 474.79 1190.95 602.42 1151.41 716.76 1303.62 687.26
00006679 00000067 979.69 296.17 444.67 571.51 1086.15 507.97 1268.90 482.11 1185.23 607.25 1148.48 721.87 1291.00 697.46
00006680 00000068 982.10 299.48 440.18 561.62 1081.26 506.65 1262.77 484.19 1175.02 604.74 1139.33 717.38 1276.10 696.45
00006681 00000069 983.10 280.94 436.22 566.14 1076.56 502.67 1258.36 480.48 1165.80 596.72 1131.37 710.02 1266.14 689.82
00006682 00000070 978.60 268.36 444.84 570.95 1072.13 485.89 1259.10 461.70 1157.96 581.27 1123.94 696.30 1271.11 675.53
00006683 00000071 980.64 263.87 447.99 578.74 1070.48 477.42 1258.88 453.17 1153.64 571.97 1120.93 689.19 1274.74 667.71
00006684 00000072 981.76 258.52 448.38 590.76 1071.39 474.36 1259.37 449.27 1153.98 568.57 1121.33 688.31 1278.57 665.65
00006685 00000073 987.03 270.61 448.70 585.28 1072.09 481.84 1260.87 451.41 1154.54 572.74 1125.27 691.75 1281.81 663.50
00006686 00000074 987.04 274.91 448.65 586.85 1071.54 487.52 1258.13 458.87 1153.19 580.10 1126.32 698.84 1281.00 672.27
00006687 00000075 985.53 277.22 445.67 586.94 1069.93 493.92 1252.62 466.75 1150.91 587.22 1124.15 703.26 1276.89 678.19
00006688 00000076 983.64 286.63 442.33 575.53 1068.78 497.06 1247.19 472.03 1147.53 589.51 1122.23 703.38 1268.55 680.42
00006689 00000077 982.43 287.90 438.71 560.94 1065.18 498.48 1243.58 474.64 1143.22 591.29 1117.76 702.38 1257.96 680.85
00006690 00000078 975.38 275.81 443.68 564.42 1063.52 488.31 1243.27 467.49 1139.86 588.47 1111.62 695.55 1256.08 677.21
00006691 00000079 972.55 269.87 445.76 564.32 1059.67 483.53 1242.66 462.88 1138.38 584.93 1109.39 692.23 1254.09 674.01
00006692 00000080 971.97 272.19 445.37 561.12 1059.94 482.44 1243.16 462.38 1138.31 582.54 1108.70 691.62 1252.86 673.95
00006693 00000081 971.76 274.05 444.94 558.34 1060.24 481.83 1243.59 462.37 1138.07 581.61 1108.05 691.02 1251.66 673.92
00006694 00000082 971.73 273.49 444.65 557.17 1059.69 481.38 1243.45 462.05 1137.65 581.05 1107.97 691.28 1250.32 674.34
00006695 00000083 972.89 272.57 444.33 556.22 1061.38 480.67 1244.46 461.94 1139.55 579.22 1109.18 689.69 1250.85 673.34
00006696 00000084 973.88 271.04 444.73 555.81 1061.86 479.27 1245.78 460.16 1140.11 576.86 1109.30 688.28 1251.27 671.61
00006697 00000085 975.82 268.00 444.26 557.70 1063.66 477.78 1246.08 456.91 1142.73 573.99 1112.68 687.08 1253.71 669.02
00006698 00000086 977.16 268.29 444.08 555.18 1064.90 475.40 1247.20 454.54 1143.64 571.50 1114.42 685.57 1253.43 667.71
00006699 00000087 978.39 267.67 443.72 555.95 1066.30 473.91 1246.92 451.83 1145.48 569.65 1117.23 685.59 1252.12 666.91
00006700 00000088 980.68 263.42 442.35 560.71 1067.96 472.76 1248.14 450.60 1148.28 567.31 1119.74 685.38 1253.42 666.59
00006701 00000089 982.15 262.34 443.75 561.94 1068.42 470.92 1249.85 448.65 1148.43 564.61 1120.76 684.00 1255.78 664.94
00006702 00000090 983.84 258.00 442.81 565.18 1070.55 467.34 1252.04 446.34 1149.96 562.18 1122.10 682.51 1255.43 664.62
00006703 00000091 985.98 253.65 440.05 568.19 1072.95 464.19 1255.14 444.26 1153.04 560.28 1124.00 680.61 1256.88 663.53
00006704 00000092 988.21 249.83 438.81 571.44 1075.58 463.07 1257.92 443.05 1155.57 557.96 1125.78 679.02 1259.41 661.79
00006705 00000093 991.05 250.51 437.20 569.15 1078.05 460.77 1260.76 440.45 1158.95 554.77 1127.99 676.98 1263.06 659.52
00006706 00000094 995.11 250.17 434.63 568.09 1081.46 459.29 1262.52 437.91 1161.70 551.51 1130.90 675.53 1265.08 657.16
00006707 00000095 998.45 249.30 434.18 567.10 1087.72 464.60 1267.25 442.46 1167.75 549.01 1134.61 673.42 1271.49 654.33
00006708 00000096 1000.73 250.52 431.79 563.13 1091.30 469.06 1268.15 444.43 1170.76 546.32 1137.63 671.26 1275.63 650.12
00006709 00000097 1001.71 251.48 433.63 564.16 1091.85 460.97 1272.01 437.61 1174.34 545.85 1140.08 669.05 1281.28 648.34
00006710 00000098 1002.98 252.17 433.67 574.97 1095.30 454.64 1276.77 432.74 1178.27 545.07 1143.40 672.09 1285.69 652.08
00006711 00000099 1004.03 251.78 434.52 578.54 1099.25 454.77 1280.51 433.42 1182.53 546.74 1147.50 673.46 1290.60 653.65
00006712 00000100 1005.44 249.71 433.26 577.89 1102.64 456.33 1282.94 435.52 1187.39 549.39 1149.90 672.51 1291.84 653.22
00006713 00000101 1004.91 252.25 434.81 567.84 1102.13 459.62 1282.13 438.79 1187.96 550.42 1149.93 670.94 1289.30 651.90
00006714 00000102 1003.76 253.55 436.17 561.04 1101.43 459.19 1278.41 439.56 1186.15 550.36 1148.70 665.58 1285.34 647.32
00006715 00000103 1002.47 253.09 437.26 561.41 1097.67 458.98 1276.75 438.32 1181.50 548.44 1144.69 665.60 1284.25 646.76
00006716 00000104 999.25 252.89 435.69 562.02 1093.91 456.36 1274.12 435.45 1177.70 546.58 1142.97 668.09 1278.59 649.31
00006717 00000105 998.12 253.03 434.85 563.30 1092.34 452.09 1274.36 433.04 1176.48 542.97 1140.74 668.05 1275.78 650.95
00006718 00000106 997.56 252.15 435.43 558.42 1095.16 450.29 1279.39 432.55 1183.78 538.94 1143.79 666.21 1277.59 650.35
00006719 00000107 998.90 248.87 434.56 558.76 1099.75 450.28 1283.98 432.39 1191.83 538.15 1150.16 664.77 1283.58 648.62
00006720 00000108 1001.51 246.76 433.44 565.78 1102.31 450.89 1286.25 431.01 1194.30 537.48 1152.66 666.33 1289.24 648.30
00006721 00000109 1001.52 246.90 433.81 575.73 1101.82 448.69 1286.38 427.96 1192.05 537.07 1151.79 669.64 1291.13 650.60
00006722 00000110 1001.48 248.21 435.06 568.38 1100.46 449.55 1286.31 429.99 1190.17 534.60 1147.73 665.33 1291.56 647.28
00006723 00000111 1001.45 249.51 435.45 560.08 1101.03 449.32 1286.36 430.18 1191.64 532.72 1147.83 662.56 1288.01 645.19
00006724 00000112 1001.86 248.14 434.14 557.12 1102.33 448.96 1286.95 429.97 1193.68 530.87 1149.04 660.90 1287.44 643.71
00006725 00000113 1003.05 247.83 432.60 554.42 1103.10 449.22 1287.41 430.03 1194.10 530.64 1149.08 660.33 1286.58 643.15
00006726 00000114 1002.81 248.02 432.27 554.45 1103.00 450.28 1287.92 430.96 1194.40 531.49 1149.42 661.53 1287.18 644.20
00006727 00000115 1002.63 246.22 432.72 558.03 1102.92 450.32 1287.89 430.41 1194.48 531.86 1149.77 662.38 1287.40 644.63
00006728 00000116 1001.48 248.25 433.11 561.22 1101.81 447.90 1284.86 428.29 1191.45 531.15 1149.86 664.26 1284.10 646.68
00006729 00000117 1000.91 248.43 431.62 564.23 1100.03 446.64 1282.07 425.95 1189.14 530.25 1149.71 665.27 1283.04 646.90
00006730 00000118 999.86 249.44 432.74 563.46 1099.26 445.32 1280.66 423.99 1188.53 529.64 1150.37 664.83 1282.74 645.85
00006731 00000119 999.00 249.51 434.61 563.29 1099.56 445.97 1280.95 423.49 1190.18 529.91 1152.49 665.05 1284.76 645.04
00006732 00000120 1002.43 246.32 433.76 565.68 1104.71 455.77 1283.63 432.11 1194.96 528.67 1154.22 663.99 1290.49 643.25
00006733 00000121 1002.71 246.39 433.66 563.85 1106.83 456.39 1284.85 432.42 1198.31 529.36 1157.42 663.19 1293.77 642.14
00006734 00000122 999.54 247.87 436.14 563.43 1103.85 452.55 1284.67 428.12 1199.43 530.91 1158.63 665.10 1293.94 643.48
00006735 00000123 997.29 250.98 436.81 560.97 1100.09 453.71 1280.76 427.89 1195.22 532.68 1156.17 667.32 1291.74 644.63
00006736 00000124 992.90 252.90 437.83 558.98 1094.77 455.85 1275.48 430.93 1189.40 536.25 1150.98 669.11 1286.56 647.30
00006737 00000125 988.43 256.66 442.61 557.05 1083.75 459.62 1267.56 431.13 1176.34 540.55 1144.38 674.36 1283.12 649.48
00006738 00000126 979.75 254.03 446.20 564.27 1071.50 465.62 1253.06 435.37 1160.27 546.20 1133.30 679.40 1271.46 653.48
00006739 00000127 971.89 261.26 448.27 554.14 1059.60 470.05 1238.87 436.70 1145.32 551.27 1122.18 680.07 1256.31 652.14
00006740 00000128 965.46 260.42 448.70 553.39 1048.87 472.56 1231.39 436.92 1131.97 552.02 1109.81 681.17 1245.67 651.26
00006741 00000129 955.92 263.42 449.96 550.12 1041.78 479.75 1221.27 443.31 1120.54 558.17 1100.54 684.92 1230.89 654.52
00006742 DELETE   952.45 258.72 444.46 557.63 1039.26 495.20 1211.56 458.26 1113.42 562.21 1093.71 688.77 1218.74 658.44
00006743 00000131 947.35 260.23 442.60 558.36 1034.04 500.03 1205.07 462.36 1106.30 565.03 1088.13 691.34 1213.74 660.35
00006744 00000132 944.02 255.78 439.58 567.47 1021.17 515.50 1189.79 471.97 1092.02 559.78 1087.53 696.50 1204.07 659.47
00006745 00000133 936.37 262.65 441.65 564.67 1011.77 522.15 1181.71 476.72 1083.57 562.68 1077.52 701.47 1195.44 662.78
00006746 00000134 928.80 264.99 447.03 564.64 1004.38 533.03 1172.47 484.22 1075.13 567.99 1072.07 706.81 1189.57 665.03
00006747 00000135 925.74 268.33 445.68 564.97 1001.97 536.85 1167.77 489.14 1070.31 572.46 1067.40 709.36 1184.31 668.71
00006748 00000136 923.29 272.63 446.57 563.11 998.05 539.08 1165.36 488.51 1068.12 573.90 1064.87 711.61 1184.51 668.86
00006749 00000137 923.77 275.44 445.92 562.26 999.56 539.88 1163.65 490.23 1068.07 575.18 1064.90 711.81 1183.90 669.80
00006750 00000138 925.44 274.15 444.75 563.04 1002.30 537.98 1165.79 489.83 1071.25 574.41 1067.63 710.43 1185.38 669.60
00006751 00000139 926.64 273.62 443.79 561.92 1004.16 536.38 1166.52 488.93 1072.99 573.16 1069.32 709.32 1185.36 668.95
00006752 00000140 926.75 273.00 444.51 562.65 1003.57 536.47 1166.32 488.70 1071.88 573.28 1068.88 709.57 1185.04 668.96
00006753 00000141 927.35 274.26 443.56 561.27 1003.02 536.20 1165.51 489.18 1070.52 574.04 1067.93 709.71 1183.99 669.72
00006754 00000142 927.15 272.43 445.10 563.48 1002.76 535.24 1165.34 489.27 1069.59 574.64 1068.12 709.39 1184.25 670.19
00006755 00000143 928.71 271.87 445.20 563.13 1005.35 533.44 1168.62 488.57 1072.77 572.49 1069.57 707.35 1186.05 669.00
00006756 00000144 932.61 269.69 442.65 563.61 1008.82 528.20 1171.82 484.49 1076.50 568.94 1073.56 703.62 1190.77 666.25
00006757 00000145 932.51 267.93 445.08 569.59 1008.40 524.37 1174.13 479.91 1075.33 566.16 1073.64 706.62 1189.80 668.73
00006758 00000146 930.59 262.73 444.72 572.56 1006.35 521.36 1173.19 478.86 1072.35 565.45 1071.27 704.91 1185.35 668.48
00006759 00000147 928.88 259.90 446.27 575.09 1006.43 515.17 1174.40 474.02 1071.71 562.24 1070.20 703.35 1184.60 668.04
00006760 00000148 935.26 259.73 440.21 572.58 1010.73 506.54 1177.89 467.90 1075.60 555.51 1072.75 694.29 1186.17 661.04
00006761 00000149 939.85 254.33 441.21 574.70 1015.90 503.60 1181.19 461.40 1081.08 549.93 1076.85 689.89 1195.14 653.92
00006762 00000150 942.75 253.00 440.27 569.38 1017.40 502.12 1183.97 458.78 1082.33 546.87 1078.40 686.17 1198.05 649.47
00006763 00000151 942.05 250.69 441.15 568.80 1016.56 498.72 1183.62 456.70 1079.77 544.90 1076.95 685.39 1193.27 649.81
00006764 00000152 941.67 249.54 440.90 570.02 1016.78 495.85 1183.39 456.31 1077.94 543.81 1076.38 685.21 1188.16 651.59
00006765 00000153 944.60 249.27 439.68 568.63 1021.82 493.88 1186.17 457.07 1082.26 543.60 1080.17 683.74 1185.46 652.26
00006766 00000154 948.27 255.20 432.62 557.34 1029.58 487.58 1195.90 455.36 1097.37 555.03 1078.74 684.24 1189.55 657.82
00006767 00000155 950.34 257.27 435.03 555.30 1037.77 486.27 1204.29 457.78 1109.42 558.79 1089.31 681.30 1201.57 658.19
00006768 00000156 953.69 254.53 439.35 561.11 1044.48 486.91 1215.84 458.10 1120.33 564.39 1099.19 685.31 1218.46 662.39
00006769 00000157 955.21 262.18 443.81 558.26 1046.87 490.76 1226.98 459.98 1129.27 572.11 1104.71 688.85 1238.29 663.26
00006770 00000158 957.75 261.51 442.00 563.25 1048.04 494.94 1224.23 468.74 1125.99 579.51 1102.24 693.22 1234.87 671.49
00006771 00000159 957.67 260.86 438.88 566.06 1046.82 495.30 1221.27 473.89 1121.52 584.25 1096.67 695.02 1226.50 677.31
00006772 00000160 959.68 259.89 436.01 564.90 1047.02 493.73 1221.10 473.29 1120.86 581.62 1095.62 693.63 1223.92 676.72
00006773 00000161 961.51 262.14 436.50 558.23 1050.18 494.51 1225.90 470.84 1125.38 578.33 1099.72 692.88 1228.70 673.37
00006774 00000162 964.77 257.32 438.36 568.12 1051.46 499.43 1228.98 470.90 1129.01 578.73 1103.30 694.80 1239.22 670.93
00006775 00000163 963.32 260.22 439.01 572.41 1050.44 495.28 1229.24 469.52 1127.97 583.03 1101.72 697.24 1238.90 675.94
