Video ID: 	IV9bB60kGYg
H: 	1080
W: 	1920
FPS: 	29.97002997002997

FRAME INDEX X0 Y0 W H [Landmarks (5 Points)]

00003697 00000000 754.14 199.87 374.07 510.45 846.05 421.81 1016.64 424.58 925.21 498.82 856.85 586.44 1006.12 590.16
00003698 DELETE   754.43 202.37 372.36 510.18 845.57 424.45 1017.89 427.72 925.72 504.32 857.28 591.52 1004.06 595.93
00003699 00000002 753.69 206.49 371.74 510.99 847.37 426.14 1019.82 427.54 931.86 512.00 862.59 598.70 1004.58 601.52
00003700 DELETE   757.48 210.18 369.05 515.24 851.92 425.89 1023.45 425.34 939.11 512.26 868.47 603.27 1010.04 604.67
00003701 DELETE   762.55 212.54 367.65 519.03 857.06 421.04 1030.76 419.29 948.50 508.34 871.28 600.53 1019.23 601.13
00003702 00000005 769.20 201.33 364.91 529.01 866.87 409.58 1032.88 410.35 956.05 500.76 874.55 595.03 1019.26 595.72
00003703 00000006 775.11 197.70 357.48 525.78 873.68 406.41 1037.27 407.88 963.26 499.62 882.35 588.51 1025.09 589.77
00003704 00000007 779.44 193.31 354.48 525.38 879.39 405.08 1050.59 412.86 978.48 499.07 889.29 586.32 1038.29 593.73
00003705 00000008 782.32 192.31 352.38 524.39 885.12 403.40 1054.61 411.41 985.15 499.87 895.18 585.91 1041.53 593.68
00003706 00000009 785.04 192.47 350.40 523.31 890.47 402.18 1056.80 410.67 990.19 501.17 900.89 588.15 1040.23 596.72
00003707 00000010 786.42 196.28 348.21 519.11 891.59 403.78 1057.44 412.72 990.29 504.39 901.60 590.62 1037.70 599.84
00003708 00000011 786.00 198.08 348.46 519.20 892.07 403.21 1058.22 414.32 990.22 506.79 899.87 591.57 1035.46 602.52
00003709 00000012 785.92 198.10 349.14 522.84 892.16 403.22 1058.41 415.73 990.19 510.03 899.19 592.42 1034.55 604.57
00003710 00000013 785.55 198.86 350.35 525.24 893.03 403.77 1059.58 417.32 990.38 513.78 899.25 594.75 1032.16 607.71
00003711 00000014 783.01 197.21 353.94 529.55 893.37 406.18 1062.83 420.99 992.04 519.99 896.87 596.44 1034.68 610.61
00003712 00000015 780.51 201.01 357.03 529.14 896.10 407.85 1066.35 423.14 996.50 522.72 897.67 597.33 1036.82 611.95
00003713 00000016 785.18 202.58 357.70 529.97 904.85 410.57 1072.23 426.19 1002.17 525.25 902.42 598.95 1035.23 614.27
00003714 00000017 790.98 202.30 359.70 534.49 914.51 410.82 1082.73 428.67 1012.96 525.85 909.64 600.00 1042.16 617.87
00003715 00000018 798.44 204.02 360.80 530.76 921.83 411.81 1089.37 429.18 1020.16 524.52 917.24 598.53 1049.68 616.20
00003716 00000019 805.56 208.43 358.17 523.80 927.48 412.33 1093.21 428.71 1024.70 525.11 924.33 596.79 1056.02 613.84
00003717 00000020 811.82 209.66 358.40 520.14 932.66 411.08 1099.29 428.25 1031.30 522.82 930.65 595.56 1064.57 613.13
00003718 00000021 819.52 209.75 354.97 518.31 937.16 411.59 1102.99 427.60 1036.10 521.24 935.42 594.23 1070.87 610.75
00003719 00000022 822.49 208.97 354.77 516.71 939.66 410.79 1106.99 426.01 1040.69 519.92 940.48 594.15 1077.02 609.78
00003720 00000023 828.11 208.18 352.22 516.92 944.85 409.22 1112.90 424.81 1047.51 518.50 944.62 592.84 1083.15 608.83
00003721 00000024 832.11 206.30 352.71 516.16 948.22 406.17 1118.18 423.20 1052.06 516.22 949.33 591.34 1087.79 608.57
00003722 00000025 835.70 200.58 355.94 520.57 952.62 402.31 1122.39 420.68 1058.00 510.20 954.51 589.21 1091.95 606.95
00003723 00000026 841.60 195.91 355.83 520.81 959.04 397.54 1125.31 416.15 1062.61 506.28 959.29 583.76 1093.31 601.27
00003724 00000027 843.22 191.66 356.88 524.00 962.66 396.53 1129.53 417.47 1066.62 501.43 961.29 580.52 1098.20 599.89
00003725 00000028 844.19 189.80 357.14 524.06 965.38 395.98 1132.58 417.93 1068.91 498.76 962.60 577.30 1100.67 597.49
00003726 00000029 847.11 191.47 354.72 523.40 968.50 396.17 1134.08 418.36 1071.72 496.14 965.26 575.79 1102.89 596.24
00003727 00000030 847.05 185.83 347.51 527.61 976.07 391.25 1133.81 417.13 1076.41 492.72 969.44 579.73 1095.93 602.75
00003728 00000031 849.50 186.28 350.98 526.63 972.06 396.20 1140.04 417.60 1080.01 494.53 971.80 576.77 1111.50 596.63
00003729 00000032 852.69 186.88 347.56 527.97 973.71 395.68 1141.06 413.99 1083.45 496.65 975.38 578.42 1114.11 595.75
00003730 00000033 849.64 188.67 344.25 527.70 979.14 396.24 1137.96 417.34 1087.16 498.31 978.37 585.91 1105.47 605.45
00003731 00000034 849.80 197.12 343.55 526.04 982.30 400.50 1139.56 422.59 1089.49 511.33 975.74 592.89 1099.63 613.66
00003732 00000035 847.02 207.22 346.06 524.48 981.02 410.52 1137.72 430.16 1086.72 524.29 973.26 600.22 1099.22 618.87
00003733 00000036 844.31 218.08 347.89 520.95 983.10 419.29 1137.92 441.02 1085.12 532.51 973.55 604.85 1099.16 624.95
00003734 00000037 847.61 224.95 343.75 519.22 984.02 425.74 1137.98 448.29 1083.93 543.25 971.66 609.59 1096.68 630.64
00003735 00000038 846.98 231.59 344.18 518.68 985.54 431.86 1137.47 453.28 1084.36 548.91 973.59 613.43 1096.81 633.80
00003736 00000039 845.82 232.61 345.83 521.58 985.87 432.80 1136.73 455.32 1084.39 550.04 973.56 614.56 1095.38 635.84
00003737 00000040 847.11 228.49 345.37 520.21 985.64 430.74 1138.73 452.01 1085.48 547.55 976.19 613.34 1097.72 633.40
00003738 00000041 844.02 220.50 350.06 524.50 984.58 426.19 1141.16 447.42 1086.23 543.56 975.82 610.68 1100.73 630.42
00003739 00000042 845.70 216.34 349.75 525.47 985.12 421.71 1142.61 444.48 1087.87 536.08 976.42 608.37 1101.62 629.26
00003740 00000043 846.76 214.71 349.24 526.32 985.37 418.27 1141.60 441.95 1087.20 531.71 978.63 606.67 1099.93 628.24
00003741 00000044 847.75 211.20 348.96 527.61 985.78 415.97 1142.07 440.06 1087.56 527.03 980.28 603.82 1101.49 625.64
00003742 00000045 848.88 206.97 347.58 528.74 985.11 412.86 1141.33 434.72 1089.23 523.40 982.37 600.97 1104.25 621.09
00003743 00000046 848.69 202.85 347.30 530.29 985.06 411.86 1141.14 430.44 1091.14 521.80 984.86 600.78 1105.05 618.25
00003744 00000047 848.94 201.11 344.77 529.89 985.70 409.72 1138.96 425.85 1093.00 519.53 988.29 601.43 1104.16 616.81
00003745 00000048 849.71 198.27 342.58 531.72 985.46 408.96 1138.80 421.34 1096.26 518.68 992.21 602.45 1108.20 614.91
00003746 00000049 851.36 201.50 339.20 527.46 986.86 412.25 1138.70 417.74 1101.25 517.75 1000.41 603.52 1114.76 610.30
00003747 00000050 850.43 201.06 340.23 526.32 987.33 417.80 1140.84 413.95 1105.20 519.39 1007.24 605.28 1124.20 604.45
00003748 00000051 848.19 202.71 341.59 524.57 990.49 425.13 1141.06 413.36 1111.32 522.68 1015.05 607.19 1131.65 599.68
00003749 00000052 847.26 203.85 344.16 525.62 991.84 434.01 1143.00 415.02 1115.63 526.18 1021.28 611.14 1139.29 597.52
00003750 00000053 857.22 208.97 334.12 523.61 993.17 441.77 1142.83 418.86 1119.00 533.36 1029.91 618.66 1143.97 601.26
00003751 00000054 856.75 215.89 333.46 524.36 995.23 451.86 1140.71 424.04 1123.98 537.41 1034.09 626.22 1145.59 604.92
00003752 00000055 853.94 212.82 330.47 530.92 1001.99 451.27 1139.15 424.09 1129.70 539.05 1038.82 631.36 1145.02 612.51
00003753 00000056 853.19 215.71 332.24 530.42 1001.42 452.36 1139.34 427.56 1127.72 541.99 1037.03 632.28 1144.15 615.19
00003754 00000057 850.49 217.04 333.52 531.07 1001.55 451.21 1138.99 429.92 1125.61 543.66 1034.74 633.25 1140.84 619.09
00003755 00000058 845.18 222.01 336.42 533.88 998.58 450.12 1137.80 433.23 1121.08 547.32 1026.08 637.28 1134.80 626.68
00003756 00000059 843.54 227.47 336.82 535.77 995.29 448.88 1136.46 435.18 1115.76 550.82 1019.62 641.77 1127.97 633.99
00003757 00000060 842.94 229.49 334.37 533.20 991.96 448.14 1133.63 436.65 1111.36 552.72 1011.95 638.67 1125.64 632.57
00003758 00000061 841.65 230.81 334.61 529.76 989.74 447.25 1132.40 437.07 1108.07 550.75 1008.53 636.85 1122.84 631.91
00003759 00000062 840.52 230.47 334.14 529.18 987.29 445.28 1130.75 437.59 1104.59 549.48 1003.23 633.60 1120.37 630.52
00003760 00000063 840.58 230.43 332.36 529.32 984.37 443.62 1128.76 437.94 1100.66 547.09 996.50 630.89 1116.26 629.52
00003761 00000064 841.70 230.13 329.39 529.46 982.39 442.78 1127.65 437.74 1098.32 545.59 991.74 629.12 1113.80 628.37
00003762 00000065 840.46 227.17 330.70 532.60 981.66 442.10 1126.85 437.47 1096.79 543.53 989.38 626.89 1112.29 626.46
00003763 00000066 840.75 227.43 330.70 531.97 978.69 439.25 1126.54 436.92 1093.68 543.33 982.57 622.55 1112.33 623.68
00003764 00000067 841.89 227.81 328.60 530.25 977.52 436.51 1125.49 436.53 1091.49 541.91 978.24 619.21 1109.90 622.31
00003765 00000068 836.31 223.96 334.17 531.81 977.55 434.73 1125.53 435.15 1090.01 539.08 978.43 616.48 1109.00 619.88
00003766 00000069 840.62 224.66 336.35 523.42 959.97 445.62 1118.47 436.21 1081.36 533.02 976.53 620.18 1111.74 613.65
00003767 00000070 838.05 223.29 338.66 521.74 957.34 442.37 1117.39 435.31 1078.00 532.25 973.86 617.09 1109.89 612.74
00003768 00000071 831.63 219.64 344.72 521.34 954.42 435.87 1115.06 429.98 1075.35 529.23 972.24 614.25 1104.71 611.21
00003769 00000072 825.76 215.56 349.12 522.17 949.25 428.49 1111.99 424.62 1069.76 524.63 966.33 609.53 1100.14 608.83
00003770 00000073 831.32 207.90 343.41 518.15 947.18 419.84 1112.83 420.59 1062.44 514.80 960.14 600.01 1097.79 603.81
00003771 00000074 832.79 194.64 339.88 524.61 948.43 408.57 1109.11 413.87 1059.47 500.95 955.95 585.80 1092.35 593.14
00003772 00000075 830.61 179.27 339.28 529.93 941.21 395.47 1103.75 403.39 1048.78 482.16 948.02 573.54 1088.97 582.79
00003773 00000076 827.53 172.11 336.08 522.44 935.68 381.45 1101.01 389.74 1040.83 466.40 942.17 562.90 1084.98 572.25
00003774 00000077 823.56 164.85 335.30 520.16 929.74 369.39 1095.65 380.18 1032.69 454.11 931.78 549.41 1079.87 561.87
00003775 00000078 810.34 164.20 347.64 513.52 921.24 357.71 1089.69 369.23 1025.77 443.48 925.55 538.71 1076.87 550.46
00003776 DELETE   806.69 162.36 347.58 510.96 915.84 350.80 1084.34 361.80 1017.74 434.80 920.35 533.57 1071.17 544.04
00003777 00000080 803.49 162.30 347.39 509.84 907.72 348.50 1077.23 359.49 1006.50 429.88 910.98 530.14 1063.24 541.15
00003778 00000081 798.18 164.22 349.09 507.44 903.29 350.30 1072.44 361.64 1000.51 432.49 904.39 529.25 1057.43 540.58
00003779 00000082 793.83 160.03 349.36 515.00 895.02 355.21 1074.00 366.18 995.28 432.16 903.56 532.61 1060.93 543.12
00003780 00000083 792.35 167.99 351.07 511.07 897.46 358.50 1066.97 371.33 992.51 444.99 895.16 537.44 1050.69 549.37
00003781 00000084 788.09 172.60 354.62 514.74 894.73 364.16 1064.00 378.13 990.35 451.93 889.28 542.50 1046.72 555.36
00003782 00000085 785.90 176.17 357.21 519.39 894.74 372.09 1060.72 384.92 990.63 461.04 890.33 550.30 1046.11 562.32
00003783 00000086 785.56 180.17 357.34 521.62 894.36 379.46 1060.41 391.07 990.07 468.64 891.09 556.11 1047.75 567.30
00003784 00000087 786.73 181.35 356.43 523.97 895.29 384.83 1061.93 396.87 991.09 478.10 892.05 561.55 1048.95 572.92
00003785 00000088 786.70 182.86 355.86 525.48 896.02 388.25 1063.00 399.90 993.16 484.25 895.58 567.18 1047.91 578.43
00003786 00000089 786.31 184.08 355.87 526.90 895.38 390.87 1062.26 399.76 993.76 487.55 899.13 571.61 1048.74 580.46
00003787 00000090 786.99 186.09 355.15 527.74 895.10 393.53 1062.22 400.68 995.05 491.47 901.50 575.89 1049.86 583.32
00003788 00000091 788.85 189.22 352.51 524.23 896.59 397.32 1063.56 403.97 997.07 494.95 904.55 579.20 1050.73 586.33
00003789 00000092 790.24 188.47 350.79 523.16 898.61 397.19 1065.28 403.79 999.89 494.03 907.98 579.81 1052.88 587.06
00003790 00000093 791.57 184.02 350.47 523.54 903.00 392.39 1067.29 396.60 1005.08 487.90 912.83 576.51 1054.20 581.83
00003791 00000094 793.44 177.88 350.17 519.74 906.64 385.75 1070.42 388.63 1010.30 479.25 920.95 570.70 1060.11 574.54
00003792 00000095 798.56 174.62 345.63 509.66 909.79 377.27 1072.08 382.22 1012.09 466.85 923.68 559.82 1061.33 564.98
00003793 00000096 798.33 172.44 347.92 504.34 914.12 370.09 1074.04 376.13 1018.51 455.18 928.71 549.98 1061.62 555.99
00003794 00000097 798.41 171.50 349.20 506.51 916.20 367.24 1075.80 374.34 1021.14 452.86 930.12 549.02 1062.38 556.07
00003795 00000098 802.59 172.18 344.94 514.80 917.20 368.01 1078.68 375.27 1021.83 454.48 928.11 553.19 1066.16 561.12
00003796 00000099 804.28 173.58 343.65 518.24 916.85 372.79 1079.14 378.61 1020.79 458.68 926.14 555.23 1069.15 562.64
00003797 00000100 803.71 175.87 342.87 515.65 915.09 377.71 1078.07 382.20 1018.88 464.54 924.19 558.20 1069.73 564.39
00003798 00000101 801.52 178.80 343.09 513.25 913.92 381.84 1074.92 384.36 1017.75 470.98 924.70 560.91 1068.18 565.12
00003799 00000102 799.67 179.25 341.82 517.16 911.52 385.99 1073.48 388.05 1016.72 477.81 921.14 565.62 1066.24 569.36
00003800 00000103 795.62 178.13 342.72 523.20 908.07 388.35 1071.25 388.79 1016.51 481.58 920.48 572.31 1062.95 574.55
00003801 00000104 792.71 180.48 344.15 525.32 907.56 391.05 1069.43 390.82 1016.16 485.25 923.79 578.32 1060.22 580.02
00003802 00000105 787.15 183.45 347.69 526.76 903.35 396.57 1067.50 397.65 1015.27 489.74 919.69 581.43 1059.94 584.15
00003803 00000106 787.83 185.15 347.04 527.51 903.60 397.87 1067.89 401.03 1015.40 491.50 917.76 582.04 1058.99 586.44
00003804 00000107 788.38 182.51 347.47 530.61 903.85 396.18 1068.14 399.90 1014.92 490.26 916.48 581.38 1058.31 586.33
00003805 00000108 790.05 183.39 346.06 528.94 904.42 393.07 1067.31 396.62 1013.21 489.31 916.21 580.06 1055.26 584.89
00003806 00000109 791.06 181.86 345.25 528.68 904.87 391.36 1066.74 394.18 1012.21 486.40 916.16 576.49 1055.78 580.74
00003807 00000110 791.32 177.68 345.52 527.79 904.38 388.40 1067.82 390.60 1011.96 481.71 915.23 572.39 1058.22 576.03
00003808 00000111 793.48 176.95 343.89 521.64 903.57 385.01 1067.76 388.14 1009.61 476.70 912.98 566.45 1059.79 570.91
00003809 00000112 793.66 175.30 342.07 514.90 904.00 377.61 1066.72 382.05 1007.95 468.71 913.49 559.59 1057.30 564.73
00003810 00000113 787.21 168.68 345.80 506.38 899.95 371.46 1071.69 379.12 1006.85 457.17 917.25 547.01 1059.98 553.93
00003811 00000114 783.56 163.40 351.83 505.39 896.84 360.80 1070.21 370.73 1002.18 446.54 911.68 536.55 1057.69 545.59
00003812 00000115 780.45 155.24 354.65 507.07 894.98 354.47 1067.06 366.83 997.40 437.70 909.09 529.21 1050.78 540.56
00003813 00000116 780.82 148.26 353.87 506.69 893.55 351.06 1065.20 364.97 992.13 429.71 905.50 521.62 1045.62 534.28
00003814 00000117 777.79 145.18 356.34 505.21 890.68 347.90 1063.85 361.42 988.64 422.39 903.60 517.83 1044.72 529.90
00003815 00000118 778.43 144.92 356.03 502.14 890.36 345.11 1060.80 357.87 985.72 418.05 901.40 517.15 1038.32 528.66
00003816 00000119 777.21 143.88 357.97 501.50 888.50 342.69 1058.70 354.29 982.74 412.44 899.02 514.05 1037.29 524.60
00003817 00000120 778.04 142.27 357.34 500.97 889.01 339.89 1057.67 352.39 981.96 409.50 897.95 510.44 1035.53 521.76
00003818 00000121 777.52 142.02 358.26 502.89 888.18 338.96 1056.49 351.13 980.50 407.46 897.49 509.50 1035.39 520.39
00003819 00000122 780.25 142.59 355.87 499.45 888.45 338.31 1056.87 349.37 980.84 407.37 898.77 509.08 1036.49 519.24
00003820 00000123 781.71 142.53 353.82 496.06 889.20 339.91 1059.62 351.42 984.14 407.57 900.07 508.73 1040.90 519.64
00003821 00000124 783.51 143.09 352.39 497.53 890.78 341.73 1061.25 353.18 986.34 411.42 901.71 510.63 1042.76 521.62
00003822 00000125 783.70 145.34 353.37 501.96 890.94 343.88 1062.29 354.73 986.85 415.83 903.24 515.02 1044.93 525.52
00003823 00000126 784.34 149.05 354.35 503.43 893.29 346.44 1065.39 356.34 991.81 421.09 907.18 521.58 1047.75 531.28
00003824 00000127 785.70 150.51 354.80 507.63 894.96 348.90 1069.87 360.43 995.13 427.52 907.39 523.65 1052.64 534.59
00003825 00000128 787.66 155.56 353.25 508.89 897.44 354.34 1072.90 363.99 1000.56 436.19 909.70 529.27 1058.10 538.60
00003826 00000129 792.71 161.94 350.59 506.71 900.12 360.31 1076.29 368.31 1003.98 444.56 911.43 533.84 1062.82 541.93
00003827 00000130 796.91 165.74 350.24 503.81 908.64 358.28 1073.61 367.31 1012.26 448.39 914.23 536.67 1061.60 545.30
00003828 00000131 801.31 164.55 349.36 504.45 913.49 356.38 1077.67 364.06 1017.88 447.74 921.29 537.10 1065.14 544.71
00003829 00000132 804.67 161.31 350.23 505.39 920.36 353.08 1082.46 358.79 1027.46 441.88 932.75 536.00 1069.52 541.95
00003830 00000133 804.83 146.60 353.04 511.01 920.88 352.54 1092.15 356.10 1029.85 435.50 942.80 530.29 1080.88 535.12
00003831 00000134 806.50 139.21 355.80 508.67 926.45 348.00 1096.15 350.41 1037.89 424.74 952.07 525.24 1086.44 528.79
00003832 00000135 812.33 132.78 351.16 503.06 931.05 340.09 1097.54 344.00 1041.97 411.23 954.23 511.43 1091.18 515.95
00003833 00000136 815.16 132.06 348.84 499.03 934.56 337.08 1102.49 344.90 1046.53 407.00 955.14 508.66 1093.78 516.55
00003834 00000137 817.39 130.98 349.83 502.39 937.34 340.05 1104.12 344.37 1051.61 408.70 961.79 513.65 1098.18 518.66
00003835 00000138 822.67 137.52 348.00 503.36 939.99 346.38 1104.57 348.53 1053.84 418.57 967.78 523.88 1098.39 527.19
00003836 00000139 824.05 144.77 348.93 508.60 942.09 350.56 1104.24 353.43 1057.39 423.28 970.37 532.03 1097.31 535.88
00003837 00000140 823.94 150.95 348.94 506.54 946.86 353.61 1106.07 358.95 1062.19 427.45 973.67 532.55 1099.52 538.29
00003838 00000141 823.28 154.98 348.84 502.65 946.95 357.29 1110.09 363.43 1063.57 433.78 970.51 533.73 1100.79 540.10
00003839 00000142 820.54 158.98 351.00 501.70 945.29 360.39 1112.03 365.67 1062.75 439.89 967.06 535.61 1102.86 541.16
00003840 00000143 823.28 163.66 349.47 504.79 942.20 367.04 1105.18 368.49 1062.32 447.36 967.94 546.49 1102.35 548.69
00003841 00000144 824.65 164.78 347.59 511.63 943.10 373.29 1105.10 376.49 1062.11 455.68 964.29 552.49 1099.57 556.39
00003842 00000145 827.54 168.73 344.06 513.24 945.39 378.24 1107.30 386.69 1060.65 464.38 960.50 560.01 1093.17 568.45
00003843 00000146 823.75 172.73 348.26 521.10 947.77 382.11 1108.43 397.87 1060.87 472.58 956.68 562.89 1089.57 577.09
00003844 00000147 823.75 177.24 349.75 519.22 952.06 382.25 1111.02 403.30 1062.97 477.07 954.91 562.99 1086.32 581.96
00003845 00000148 828.11 179.19 346.73 512.47 956.51 380.69 1115.76 406.44 1063.49 476.79 955.36 560.18 1085.43 583.41
00003846 00000149 831.75 179.99 345.49 506.25 959.20 377.22 1123.37 408.47 1063.33 473.21 954.36 556.57 1088.91 584.64
00003847 00000150 835.10 179.94 345.78 504.09 962.10 372.20 1128.82 406.49 1064.65 469.58 953.38 551.85 1092.17 582.73
00003848 00000151 836.87 182.63 347.82 501.89 965.17 368.10 1133.36 405.48 1067.04 462.92 951.81 547.55 1092.22 581.31
00003849 00000152 839.34 182.56 347.88 501.61 967.08 363.02 1135.64 401.83 1071.56 453.87 953.99 544.21 1093.55 579.18
00003850 00000153 843.94 180.58 347.01 503.52 967.86 358.62 1136.72 395.19 1073.51 449.44 953.19 538.78 1097.51 572.33
00003851 00000154 845.94 181.59 347.45 502.97 968.75 357.47 1137.11 391.89 1075.68 447.60 955.00 537.21 1100.69 569.16
00003852 00000155 848.27 179.99 346.31 506.71 970.11 358.99 1136.74 389.88 1076.95 450.14 957.32 537.48 1103.73 566.66
00003853 00000156 850.21 182.03 344.91 507.22 969.13 364.88 1136.54 393.41 1074.58 455.80 957.64 541.21 1106.27 568.52
00003854 00000157 850.75 183.00 342.49 505.43 968.47 370.64 1134.98 396.98 1073.23 464.90 960.99 548.67 1105.32 573.69
00003855 00000158 852.43 185.62 341.02 506.89 969.92 376.76 1136.33 403.33 1072.89 472.71 961.58 552.96 1106.92 578.45
00003856 00000159 849.27 189.41 343.43 507.96 968.78 383.70 1135.13 412.46 1071.06 480.41 958.68 556.06 1106.47 583.23
00003857 00000160 847.19 191.98 343.97 508.56 967.33 386.69 1134.51 416.03 1069.58 482.78 956.59 558.19 1105.97 585.76
00003858 00000161 844.45 192.21 343.98 508.51 966.42 385.39 1133.16 416.16 1069.53 481.53 955.37 558.95 1103.40 587.65
00003859 00000162 842.92 190.22 342.62 507.07 965.51 385.08 1131.79 415.62 1069.81 479.80 955.77 557.02 1103.18 585.48
00003860 00000163 838.80 188.56 344.38 507.06 963.10 382.75 1129.25 413.15 1068.35 476.96 954.06 555.35 1100.98 583.39
00003861 00000164 838.50 184.25 341.68 509.02 961.15 380.76 1126.83 409.22 1066.21 475.90 954.08 555.28 1098.28 581.58
00003862 00000165 834.95 183.95 343.25 513.22 957.81 381.97 1120.79 408.61 1063.76 476.87 952.69 557.41 1094.00 581.76
00003863 00000166 829.72 181.67 346.46 517.35 954.11 383.10 1115.55 408.01 1061.62 477.53 951.80 560.55 1088.50 582.94
